0.003741037730237553	-5.2801393229330836e-05	0.003983676908454526	1.3825966575856992	1.382827923634997	1.3832990984081148	1.383377478525338	1.383164987941383	186.0	255.0	11111110.0	
0.0033065926352701678	-5.270986784241628e-05	0.003986657141048567	1.3825901010739923	1.3828240493326247	1.3832931379429267	1.3833724121299282	1.3831596235227137	187.0	255.0	11111110.0	
0.002991013102352068	-5.2618375412181956e-05	0.0039890413271238	1.3825951674694021	1.3828255394489217	1.3832952241057426	1.3833739022462253	1.3831611136390107	188.0	255.0	11111110.0	
0.0028318431767022606	-5.252691607955135e-05	0.003992319582977245	1.3826055982834813	1.3828392485188543	1.3833047608500435	1.3833849291068232	1.3831712464298305	189.0	255.0	11111110.0	
0.002839918056967193	-5.2435489985130786e-05	0.003995001792311882	1.382600233864812	1.3828359702630009	1.3833011845709307	1.3833837370137856	1.3831673721274582	190.0	255.0	11111110.0	
0.003005382300660908	-5.234409726920763e-05	0.003998876094684136	1.3826023200276278	1.3828395465421137	1.3833056549198217	1.383387015269639	1.3831712464298305	191.0	255.0	11111110.0	
0.003294562357644044	-5.225273807174848e-05	0.004002750397056389	1.3825948694461427	1.3828312018908504	1.3832952241057426	1.3833789686416351	1.3831631998018266	192.0	255.0	11111110.0	
0.0036559191785018163	-5.216141253239739e-05	0.004002154350537581	1.3825984457252556	1.382833884100185	1.383299992477893	1.3833831409672668	1.3831652859646424	193.0	255.0	11111110.0	
0.0040399952139721935	-5.2070120790474175e-05	0.004002154350537581	1.38260619433	1.3828413346816701	1.383309529222194	1.38339148561853	1.383170948406571	194.0	255.0	11111110.0	
0.004389828977399125	-5.197886298497272e-05	0.003999770164462348	1.3826044061904437	1.3828401425886325	1.383308039105897	1.3833891014324549	1.3831712464298305	195.0	255.0	11111110.0	
0.004660048485487328	-5.188763925455938e-05	0.003995299815571286	1.3825936773531051	1.3828273275884782	1.3832967142220396	1.3833768824788193	1.3831599215459731	196.0	255.0	11111110.0	
0.004823098478876053	-5.179644973757143e-05	0.003993213652755457	1.3825981477019962	1.3828297117745534	1.3832990984081148	1.3833792666648945	1.3831640938716048	197.0	255.0	11111110.0	
0.004862993333098135	-5.1705294572015476e-05	0.003992319582977245	1.3825996378182932	1.3828317979373692	1.3833002905011524	1.3833798627114133	1.38316647805768	198.0	255.0	11111110.0	
0.004779627981870281	-5.161417389556614e-05	0.003988743303864396	1.382592187236808	1.3828252414256623	1.3832946280592238	1.383373008176447	1.383160517592492	199.0	255.0	11111110.0	
0.004596462286976156	-5.152308784556456e-05	0.003985763071270355	1.382604704213703	1.3828362682862603	1.3833059529430811	1.3833837370137856	1.3831721404996087	200.0	255.0	11111110.0	
0.004346656233273504	-5.143203655901708e-05	0.003984272954973334	1.3826151350277822	1.3828443149142642	1.3833160857339009	1.3833944658511241	1.3831807831741314	201.0	255.0	11111110.0	
0.004068772817536027	-5.134102017259387e-05	0.003983676908454526	1.3825936773531051	1.38282136712329	1.3832931379429267	1.3833712200368906	1.3831581334064167	202.0	255.0	11111110.0	
0.003803192425146497	-5.125003882262769e-05	0.003984272954973334	1.3825939753763645	1.382822857239587	1.3832928399196673	1.3833721141066688	1.3831578353831573	203.0	255.0	11111110.0	
0.00358604548659628	-5.1159092645112653e-05	0.003986955164307971	1.3826026180508872	1.3828312018908504	1.3833017806174495	1.3833819488742292	1.3831682661972364	204.0	255.0	11111110.0	
0.003440117348350626	-5.106818177570306e-05	0.003988445280604992	1.3826026180508872	1.3828341821234444	1.3833035687570059	1.3833834389905262	1.3831700543367929	205.0	255.0	11111110.0	
0.0033805769134493168	-5.097730634971222e-05	0.003989935396902012	1.3825933793298457	1.3828282216582564	1.383297012245299	1.3833765844555599	1.3831614116622701	206.0	255.0	11111110.0	
0.003409009222030988	-5.088646650211137e-05	0.003992319582977245	1.382589207004214	1.382824347355884	1.383292541896408	1.3833721141066688	1.3831599215459731	207.0	255.0	11111110.0	
0.0035156064545748995	-5.079566236752853e-05	0.003997385978387114	1.3826029160741466	1.3828377584025573	1.3833032707337465	1.3833861211998608	1.383173034569387	208.0	255.0	11111110.0	
0.003674760715499466	-5.0704894080247474e-05	0.004000366210981156	1.3825966575856992	1.3828326920071474	1.3832988003848554	1.383382544920748	1.38316647805768	209.0	255.0	11111110.0	
0.003855505626913574	-5.061416177420664e-05	0.003996193885349498	1.3825784781668755	1.3828165987511396	1.3832827071288476	1.3833661536414807	1.3831482986388564	210.0	255.0	11111110.0	
0.004039681928292477	-5.052346558299819e-05	0.0039944057457930735	1.382587716887917	1.3828216651465495	1.3832907537568515	1.383373008176447	1.3831545571273038	211.0	255.0	11111110.0	
0.004201838064203993	-5.043280563986697e-05	0.003995299815571286	1.3825853327018418	1.3828186849139554	1.3832877735242575	1.3833697299205936	1.383150980848191	212.0	255.0	11111110.0	
0.004316026155595506	-5.034218207770953e-05	0.003992319582977245	1.3825850346785824	1.3828165987511396	1.383285985384701	1.383368537827556	1.383150980848191	213.0	255.0	11111110.0	
0.004372491286949874	-5.0251595029073205e-05	0.003986657141048567	1.3825805643296913	1.3828142145650644	1.38328151503581	1.3833628753856273	1.3831474045690781	214.0	255.0	11111110.0	
0.004373250088782131	-5.016104462615511e-05	0.003982782838676314	1.3825912931670299	1.3828225592163277	1.3832931379429267	1.3833724121299282	1.3831566432901197	215.0	255.0	11111110.0	
0.004324988513110355	-5.007053100080129e-05	0.003981888768898102	1.3825975516554774	1.3828282216582564	1.3832993964313742	1.3833786706183757	1.383163497825086	216.0	255.0	11111110.0	
0.004239491596792565	-4.998005428450586e-05	0.003983676908454526	1.3826023200276278	1.3828320959606286	1.3833047608500435	1.3833816508509698	1.383169458290274	217.0	255.0	11111110.0	
0.0041285702085977	-4.988961460841005e-05	0.003983378885195122	1.3826008299113308	1.3828306058443316	1.3833023766639683	1.383378074571857	1.3831682661972364	218.0	255.0	11111110.0	
0.004011248706361648	-4.9799212103301416e-05	0.003981888768898102	1.382595763515921	1.3828246453791435	1.3832976082918178	1.3833750943392629	1.3831626037553078	219.0	255.0	11111110.0	
0.003904973439372905	-4.970884689961303e-05	0.003980100629341677	1.3825838425855448	1.3828157046813614	1.3832886675940357	1.3833652595717025	1.3831545571273038	220.0	255.0	11111110.0	
0.00382618747403864	-4.9618519127422654e-05	0.003981888768898102	1.3825823524692478	1.3828157046813614	1.3832886675940357	1.383364067478665	1.3831521729412286	221.0	255.0	11111110.0	
0.003781601788350548	-4.952822891645189e-05	0.003986657141048567	1.3825796702599131	1.382813916541805	1.3832841972451446	1.383359001083255	1.3831485966621158	222.0	255.0	11111110.0	
0.0037694369284800057	-4.9437976396065495e-05	0.00399053144342082	1.382590697120511	1.3828240493326247	1.3832922438731485	1.383370027943853	1.3831578353831573	223.0	255.0	11111110.0	
0.0037891778620990006	-4.93477616952706e-05	0.003995895862090094	1.3825930813065863	1.3828273275884782	1.3832967142220396	1.3833756903857817	1.383160517592492	224.0	255.0	11111110.0	
0.0038290657329200536	-4.925758494271593e-05	0.0039976840016465185	1.3825960615391804	1.3828303078210722	1.3832996944546336	1.3833801607346727	1.383163497825086	225.0	255.0	11111110.0	
0.003882569614291189	-4.916744626669111e-05	0.0039982800481653275	1.382597253632218	1.382830903867591	1.383298502361596	1.3833822468974886	1.383163497825086	226.0	255.0	11111110.0	
0.0039399572663206435	-4.907734579512593e-05	0.0039976840016465185	1.3825898030507329	1.3828261354954405	1.383292541896408	1.383374498292744	1.3831560472436009	227.0	255.0	11111110.0	
0.003993287865453861	-4.8987283655589675e-05	0.003996789931868306	1.3825805643296913	1.3828157046813614	1.3832833031753664	1.3833646635251837	1.3831488946853752	228.0	255.0	11111110.0	
0.004031391297730033	-4.8897259975290376e-05	0.003990829466680224	1.3825668552597588	1.382802293634688	1.3832722763147685	1.3833512524785105	1.3831345895689238	229.0	255.0	11111110.0	
0.004057445882271857	-4.880727488107415e-05	0.003986657141048567	1.3825763920040597	1.382810340262692	1.3832794288729942	1.3833569149204392	1.3831426361969277	230.0	255.0	11111110.0	
0.0040694838287470905	-4.87173284994245e-05	0.003983378885195122	1.3825874188646576	1.3828201750302525	1.383288965617295	1.3833649615484431	1.3831536630575256	231.0	255.0	11111110.0	
0.004069657385227826	-4.862742095646168e-05	0.003981590745638698	1.3825856307251012	1.3828148106115832	1.3832862834079604	1.383362577362368	1.383150980848191	232.0	255.0	11111110.0	
0.004058796128335214	-4.853755237794199e-05	0.003978610513044657	1.382594273399624	1.3828240493326247	1.383295522129002	1.3833733061997064	1.3831593254994543	233.0	255.0	11111110.0	
0.004044184183267829	-4.844772288925716e-05	0.00397741842000704	1.3825898030507329	1.382818386890696	1.3832901577103327	1.3833673457345184	1.383153961080785	234.0	255.0	11111110.0	
0.004028630400256916	-4.835793261543365e-05	0.003976822373488232	1.382595763515921	1.382824347355884	1.383295522129002	1.383373008176447	1.3831611136390107	235.0	255.0	11111110.0	
0.004015781016308074	-4.826818168113203e-05	0.00397741842000704	1.3825981477019962	1.382829413751294	1.3832990984081148	1.3833742002694847	1.3831637958483454	236.0	255.0	11111110.0	
0.004008297846912132	-4.817847021064629e-05	0.003980398652601081	1.3825963595624398	1.3828267315419593	1.383298502361596	1.3833750943392629	1.383163497825086	237.0	255.0	11111110.0	
0.004005191213401174	-4.8088798327903205e-05	0.003984869001492143	1.3826196053766733	1.3828496793329335	1.3833211521293107	1.3833983401534964	1.38318644561606	238.0	255.0	11111110.0	
0.004000959364450286	-4.7999166156461696e-05	0.003986359117789163	1.3826169231673386	1.3828475931701176	1.3833193639897543	1.3833974460837182	1.383184955499763	239.0	255.0	11111110.0	
0.003998551685244845	-4.7909573819512195e-05	0.003989637373642608	1.3826100686323723	1.3828413346816701	1.3833107213152316	1.3833917836417895	1.3831766108484997	240.0	255.0	11111110.0	
0.003993516541880463	-4.782002143987596e-05	0.003992319582977245	1.38260619433	1.382838950495595	1.3833062509663405	1.383388505385936	1.3831736306159057	241.0	255.0	11111110.0	
0.0039836764869893475	-4.773050914000449e-05	0.003993511676014861	1.382601723981109	1.3828356722397415	1.3833056549198217	1.3833864192231202	1.3831691602670146	242.0	255.0	11111110.0	
0.0039699884753329915	-4.7641037041978866e-05	0.0039944057457930735	1.3825993397950338	1.3828341821234444	1.3832990984081148	1.3833801607346727	1.383163497825086	243.0	255.0	11111110.0	
0.003951769876826423	-4.7551605267509194e-05	0.003993213652755457	1.3825963595624398	1.3828329900304068	1.383295522129002	1.383379564688154	1.3831617096855295	244.0	255.0	11111110.0	
0.003932575419179856	-4.746221393793395e-05	0.0039911274899396285	1.3826008299113308	1.382835374216482	1.38330148259419	1.3833846310835638	1.383167968173977	245.0	255.0	11111110.0	
0.003916647257633457	-4.737286317421938e-05	0.003989339350383204	1.38260619433	1.3828407386351513	1.3833086351524158	1.3833893994557143	1.383176014801981	246.0	255.0	11111110.0	
0.0039052538199400707	-4.728355309695883e-05	0.003985763071270355	1.3826076844462971	1.3828410366584107	1.3833113173617504	1.383388505385936	1.383177504918278	247.0	255.0	11111110.0	
0.003904771032524449	-4.7194283826372286e-05	0.00398397493171393	1.382609770609113	1.3828416327049295	1.3833134035245662	1.3833876113161578	1.3831783989880562	248.0	255.0	11111110.0	
0.00391301609580379	-4.710505548230564e-05	0.003980100629341677	1.382598743748515	1.3828317979373692	1.3833026746872277	1.3833786706183757	1.3831673721274582	249.0	255.0	11111110.0	
0.003933922237770259	-4.701586818423019e-05	0.0039780144665258485	1.382600233864812	1.3828306058443316	1.3833038667802653	1.3833822468974886	1.3831703523600523	250.0	255.0	11111110.0	
0.003966288208978694	-4.692672205124203e-05	0.003978610513044657	1.382597253632218	1.3828258374721811	1.3832990984081148	1.383375988409041	1.3831640938716048	251.0	255.0	11111110.0	
0.004002901636590114	-4.6837617202061485e-05	0.003978312489785253	1.3825829485157666	1.3828100422394325	1.383284495268404	1.3833610872460709	1.383148000615597	252.0	255.0	11111110.0	
0.004041030242196543	-4.6748553755032565e-05	0.003979206559563465	1.3825898030507329	1.3828192809604742	1.3832922438731485	1.383368537827556	1.383155451197082	253.0	255.0	11111110.0	
0.00407374345100351	-4.6659531828122395e-05	0.003979802606082273	1.3825829485157666	1.3828133204952862	1.3832847932916634	1.383362577362368	1.3831506828249316	254.0	255.0	11111110.0	
0.004099880120643948	-4.6570551538920664e-05	0.003984272954973334	1.3825814583994696	1.3828121284022483	1.3832806209660318	1.3833598951530333	1.3831497887551534	255.0	255.0	11111110.0	
0.004109424870667838	-4.648161300463911e-05	0.003986657141048567	1.382583246539026	1.3828148106115832	1.3832853893381822	1.3833610872460709	1.3831503848016722	0.0	255.0	11111110.0	
0.004101980679725566	-4.639271634211099e-05	0.003988445280604992	1.3825760939808003	1.3828088501463949	1.3832782367799565	1.3833554248041422	1.383142934220187	1.0	255.0	11111110.0	
0.004078994297753254	-4.630386166779053e-05	0.003990829466680224	1.3825912931670299	1.3828267315419593	1.383294032012705	1.383374498292744	1.3831593254994543	2.0	255.0	11111110.0	
0.0040413853209436065	-4.621504909775246e-05	0.003992021559717841	1.3825895050274735	1.3828246453791435	1.3832919458498891	1.383373008176447	1.383156941313379	3.0	255.0	11111110.0	
0.003994099158890575	-4.6126278747691445e-05	0.003992021559717841	1.382594273399624	1.3828282216582564	1.3832958201522614	1.3833768824788193	1.3831602195692325	4.0	255.0	11111110.0	
0.003942434301297126	-4.603755073292162e-05	0.003989637373642608	1.3825981477019962	1.3828335860769256	1.3833011845709307	1.3833801607346727	1.3831640938716048	5.0	255.0	11111110.0	
0.00389714637130123	-4.5948865168376076e-05	0.003988743303864396	1.382592783283327	1.3828291157280346	1.3832946280592238	1.3833736042229658	1.3831599215459731	6.0	255.0	11111110.0	
0.0038624773601707396	-4.58602221686064e-05	0.003987253187567375	1.3826038101439249	1.3828395465421137	1.3833068470128593	1.3833864192231202	1.3831718424763493	7.0	255.0	11111110.0	
0.0038423668330458743	-4.577162184778219e-05	0.00398397493171393	1.3826103666556318	1.3828431228212266	1.3833122114315286	1.38339148561853	1.3831772068950186	8.0	255.0	11111110.0	
0.003841208109471583	-4.568306431969054e-05	0.003980398652601081	1.3826070883997783	1.3828377584025573	1.3833089331756752	1.383385525153342	1.3831748227089433	9.0	255.0	11111110.0	
0.0038594014583867883	-4.559454969773562e-05	0.003976822373488232	1.3826023200276278	1.3828326920071474	1.3833035687570059	1.3833813528277104	1.383170948406571	10.0	255.0	11111110.0	
0.0038945527264094447	-4.550607809493819e-05	0.003973544117634787	1.3825945714228833	1.38282136712329	1.383294032012705	1.3833727101531876	1.3831599215459731	11.0	255.0	11111110.0	
0.00394573614889791	-4.541764962393518e-05	0.003975034233931808	1.3825963595624398	1.382823453286106	1.3832967142220396	1.3833724121299282	1.3831626037553078	12.0	255.0	11111110.0	
0.004000315295662931	-4.5329264396979183e-05	0.003975630280450616	1.382600233864812	1.3828273275884782	1.3833011845709307	1.3833753923625223	1.38316647805768	13.0	255.0	11111110.0	
0.0040537892932952894	-4.52409225259381e-05	0.003978312489785253	1.382600233864812	1.3828276256117376	1.3832996944546336	1.3833801607346727	1.38316647805768	14.0	255.0	11111110.0	
0.0040977642797900005	-4.515262412229469e-05	0.003981888768898102	1.3825969556089586	1.3828246453791435	1.3832976082918178	1.3833765844555599	1.3831629017785672	15.0	255.0	11111110.0	
0.004125701067832454	-4.5064369297146195e-05	0.003985465048010951	1.382595763515921	1.382824943402403	1.3832964161987802	1.3833771805020787	1.3831631998018266	16.0	255.0	11111110.0	
0.004135082170416673	-4.49761581612039e-05	0.003989935396902012	1.3825966575856992	1.3828282216582564	1.3833005885244118	1.3833786706183757	1.3831643918948642	17.0	255.0	11111110.0	
0.004121245884355659	-4.488799082479275e-05	0.0039911274899396285	1.3825871208413982	1.3828210691000307	1.3832892636405545	1.3833712200368906	1.383155451197082	18.0	255.0	11111110.0	
0.004091211825788418	-4.4799867397850976e-05	0.003993809699274265	1.3825829485157666	1.3828180888674366	1.3832865814312199	1.3833673457345184	1.3831515768947098	19.0	255.0	11111110.0	
0.0040465932323597385	-4.4711787989929715e-05	0.003995001792311882	1.3825844386320636	1.3828222611930683	1.383289561663814	1.3833694318973342	1.3831533650342662	20.0	255.0	11111110.0	
0.0039945183267608405	-4.46237527101927e-05	0.003995299815571286	1.382590697120511	1.3828291157280346	1.3832937339894456	1.3833768824788193	1.383159027476195	21.0	255.0	11111110.0	
0.003942889410616054	-4.453576166741588e-05	0.003995299815571286	1.3826094725858535	1.3828461030538206	1.3833116153850098	1.3833941678278647	1.3831748227089433	22.0	255.0	11111110.0	
0.003893470647676057	-4.444781496998703e-05	0.003989339350383204	1.3826091745625941	1.382843420844486	1.3833116153850098	1.3833905915487519	1.3831748227089433	23.0	255.0	11111110.0	
0.0038595006439548266	-4.435991272590545e-05	0.0039845709782327385	1.382601723981109	1.3828347781699633	1.3833041648035247	1.3833843330603044	1.3831697563135334	24.0	255.0	11111110.0	
0.003845390729538146	-4.427205504278166e-05	0.003981888768898102	1.3825951674694021	1.3828258374721811	1.3832958201522614	1.3833756903857817	1.3831614116622701	25.0	255.0	11111110.0	
0.0038498586935434517	-4.4184242027837044e-05	0.003978908536304061	1.3825778821203567	1.3828070620068384	1.3832776407334377	1.3833563188739204	1.3831456164295217	26.0	255.0	11111110.0	
0.0038751696874399825	-4.409647378790355e-05	0.003979504582822869	1.3825898030507329	1.382819877006993	1.383291051780111	1.3833679417810372	1.3831575373598979	27.0	255.0	11111110.0	
0.003910704105807999	-4.400875042942337e-05	0.003976822373488232	1.382595763515921	1.3828282216582564	1.3832990984081148	1.3833762864323005	1.383164987941383	28.0	255.0	11111110.0	
0.003956380300063078	-4.392107205844867e-05	0.003976226326969424	1.3826053002602219	1.3828377584025573	1.3833086351524158	1.3833852271300826	1.383173928639165	29.0	255.0	11111110.0	
0.0040046113140581804	-4.383343878064127e-05	0.003976822373488232	1.3826005318880714	1.3828317979373692	1.3833026746872277	1.3833801607346727	1.3831685642204958	30.0	255.0	11111110.0	
0.004051838117398437	-4.3745850701272374e-05	0.003981888768898102	1.3825909951437705	1.3828246453791435	1.383292541896408	1.3833721141066688	1.3831596235227137	31.0	255.0	11111110.0	
0.004084987687446597	-4.365830792522229e-05	0.00398397493171393	1.3825915911902893	1.3828252414256623	1.3832943300359644	1.3833718160834094	1.3831587294529355	32.0	255.0	11111110.0	
0.004104506502997266	-4.357081055698014e-05	0.003987253187567375	1.382590697120511	1.3828246453791435	1.3832937339894456	1.3833721141066688	1.3831560472436009	33.0	255.0	11111110.0	
0.0041071632828837586	-4.3483358700643654e-05	0.003990233420161416	1.382590697120511	1.3828276256117376	1.383297012245299	1.383375988409041	1.383160517592492	34.0	255.0	11111110.0	
0.004093075713554186	-4.339595245991887e-05	0.003992319582977245	1.382592783283327	1.3828285196815158	1.3832973102685584	1.383378074571857	1.383162007708789	35.0	255.0	11111110.0	
0.004066811760286963	-4.330859193811991e-05	0.003995299815571286	1.3825948694461427	1.3828300097978128	1.3832976082918178	1.3833801607346727	1.383163497825086	36.0	255.0	11111110.0	
0.004029642250739162	-4.322127723816874e-05	0.003995895862090094	1.3825996378182932	1.3828359702630009	1.3833002905011524	1.383382544920748	1.3831667760809394	37.0	255.0	11111110.0	
0.003989252569151223	-4.3134008462594955e-05	0.003996193885349498	1.38260619433	1.3828425267747078	1.3833071450361187	1.3833893994557143	1.3831742266624245	38.0	255.0	11111110.0	
0.003948194998613338	-4.304678571353558e-05	0.003992915629496053	1.3826038101439249	1.3828371623560385	1.3833065489896	1.383387015269639	1.3831721404996087	39.0	255.0	11111110.0	
0.003914920439141266	-4.2959609092734853e-05	0.003989339350383204	1.3825945714228833	1.382829413751294	1.3832976082918178	1.3833789686416351	1.383162007708789	40.0	255.0	11111110.0	
0.003895578723631861	-4.2872478701543986e-05	0.003988147257345588	1.3825909951437705	1.3828261354954405	1.3832952241057426	1.3833753923625223	1.3831602195692325	41.0	255.0	11111110.0	
0.0038878209023818847	-4.278539464092097e-05	0.003985167024751547	1.3825886109576953	1.382818386890696	1.383291051780111	1.383368537827556	1.383156941313379	42.0	255.0	11111110.0	
0.00389097744240305	-4.2698357011430405e-05	0.003979504582822869	1.3825915911902893	1.3828225592163277	1.3832952241057426	1.3833694318973342	1.3831593254994543	43.0	255.0	11111110.0	
0.003909904284704947	-4.261136591324329e-05	0.0039780144665258485	1.3825930813065863	1.3828231552628465	1.383295522129002	1.3833718160834094	1.383159027476195	44.0	255.0	11111110.0	
0.0039396020135080995	-4.2524421446136895e-05	0.003979504582822869	1.3826041081671843	1.3828317979373692	1.383304462826784	1.3833816508509698	1.3831697563135334	45.0	255.0	11111110.0	
0.003973538739723441	-4.243752370949456e-05	0.003981888768898102	1.3826121547951882	1.3828407386351513	1.3833098272454534	1.3833893994557143	1.3831769088717591	46.0	255.0	11111110.0	
0.004005805860530745	-4.235067280230557e-05	0.003983676908454526	1.3826103666556318	1.382840440611892	1.383309529222194	1.383389995502233	1.383177504918278	47.0	255.0	11111110.0	
0.004031931407660396	-4.226386882316493e-05	0.003984272954973334	1.382597253632218	1.382829413751294	1.383298502361596	1.3833762864323005	1.3831652859646424	48.0	255.0	11111110.0	
0.004051790020789624	-4.217711187027324e-05	0.003986657141048567	1.3825975516554774	1.3828297117745534	1.3832993964313742	1.383378074571857	1.3831655839879018	49.0	255.0	11111110.0	
0.004061988222470758	-4.2090402041436525e-05	0.003989339350383204	1.3825966575856992	1.3828273275884782	1.3832979063150772	1.3833762864323005	1.383164987941383	50.0	255.0	11111110.0	
0.004063027353953629	-4.2003739434066105e-05	0.003993213652755457	1.3825990417717744	1.3828314999141098	1.38330148259419	1.3833786706183757	1.3831661800344206	51.0	255.0	11111110.0	
0.004053925561703016	-4.1917124145178463e-05	0.003996193885349498	1.382598743748515	1.3828317979373692	1.3832996944546336	1.3833801607346727	1.3831643918948642	52.0	255.0	11111110.0	
0.004036520581641903	-4.183055627139512e-05	0.0039976840016465185	1.3825999358415526	1.3828344801467038	1.3833005885244118	1.3833828429440074	1.3831661800344206	53.0	255.0	11111110.0	
0.004014017042902333	-4.17440359089425e-05	0.0039976840016465185	1.3825915911902893	1.3828297117745534	1.3832943300359644	1.3833786706183757	1.3831608156157513	54.0	255.0	11111110.0	
0.003988454175384884	-4.1657563153651774e-05	0.003994703769052478	1.382577286073838	1.3828133204952862	1.3832797268962536	1.3833628753856273	1.383145020383003	55.0	255.0	11111110.0	
0.003963174711023688	-4.1571138100958795e-05	0.003988743303864396	1.3825725177016874	1.3828061679370602	1.383275554570622	1.383357510966958	1.3831402520108524	56.0	255.0	11111110.0	
0.003943597981901121	-4.1484760845903944e-05	0.003982782838676314	1.3825951674694021	1.3828297117745534	1.383297012245299	1.3833801607346727	1.3831611136390107	57.0	255.0	11111110.0	
0.0039337926341210215	-4.1398431483132026e-05	0.003979802606082273	1.3826076844462971	1.3828407386351513	1.3833089331756752	1.3833908895720113	1.383173034569387	58.0	255.0	11111110.0	
0.003932516656052477	-4.131215010689219e-05	0.003978610513044657	1.3826190093301545	1.3828496793329335	1.383319065966495	1.3833998302697934	1.3831843594532442	59.0	255.0	11111110.0	
0.003934955273066566	-4.122591681103781e-05	0.003975034233931808	1.3826139429347446	1.3828452089840424	1.3833163837571603	1.383395061897643	1.3831807831741314	60.0	255.0	11111110.0	
0.003944441299000448	-4.113973168902644e-05	0.003973842140894191	1.382606790376519	1.3828380564258167	1.3833092311989346	1.383387015269639	1.3831748227089433	61.0	255.0	11111110.0	
0.003957934384322131	-4.1053594833919705e-05	0.003974140164153595	1.3826053002602219	1.382838354449076	1.3833077410826375	1.383385525153342	1.383174524685684	62.0	255.0	11111110.0	
0.003971275955985518	-4.0967506338383184e-05	0.003973842140894191	1.3825969556089586	1.3828255394489217	1.3832961181755208	1.3833750943392629	1.383162007708789	63.0	255.0	11111110.0	
0.003985787971589065	-4.088146629468637e-05	0.003976226326969424	1.3826023200276278	1.3828306058443316	1.3833020786407089	1.383381054804451	1.3831658820111612	64.0	255.0	11111110.0	
0.00399780539631467	-4.0795474794702596e-05	0.003979206559563465	1.3825933793298457	1.382824347355884	1.3832937339894456	1.3833718160834094	1.383158431429676	65.0	255.0	11111110.0	
0.004007341760620876	-4.070953192990897e-05	0.003983676908454526	1.382584736655323	1.3828163007278802	1.3832865814312199	1.3833664516647401	1.3831506828249316	66.0	255.0	11111110.0	
0.0040113328635333284	-4.0623637791386294e-05	0.003986657141048567	1.38258622677162	1.3828186849139554	1.3832862834079604	1.3833679417810372	1.3831536630575256	67.0	255.0	11111110.0	
0.0040124208891423145	-4.053779246981902e-05	0.003990233420161416	1.3825930813065863	1.3828267315419593	1.3832934359661861	1.3833753923625223	1.383160517592492	68.0	255.0	11111110.0	
0.004010052513734418	-4.045199605549516e-05	0.003992915629496053	1.382592187236808	1.3828276256117376	1.3832946280592238	1.3833768824788193	1.3831611136390107	69.0	255.0	11111110.0	
0.004004909068804505	-4.0366248638306226e-05	0.003994107722533669	1.3825778821203567	1.3828148106115832	1.3832806209660318	1.3833649615484431	1.3831474045690781	70.0	255.0	11111110.0	
0.003997439422921216	-4.028055030774721e-05	0.003992915629496053	1.382577286073838	1.3828133204952862	1.3832794288729942	1.3833646635251837	1.3831456164295217	71.0	255.0	11111110.0	
0.003991039611222905	-4.019490115291651e-05	0.003991723536458437	1.3825859287483606	1.3828207710767713	1.3832883695707763	1.3833736042229658	1.3831536630575256	72.0	255.0	11111110.0	
0.0039845316043043595	-4.0109301262515875e-05	0.003988743303864396	1.3825829485157666	1.3828177908441772	1.3832868794544793	1.3833679417810372	1.3831497887551534	73.0	255.0	11111110.0	
0.003981024161904066	-4.002375072485035e-05	0.003986955164307971	1.3825838425855448	1.3828186849139554	1.3832865814312199	1.3833649615484431	1.3831485966621158	74.0	255.0	11111110.0	
0.003979263672529185	-3.993824962782827e-05	0.003985465048010951	1.3825909951437705	1.382824347355884	1.3832934359661861	1.3833727101531876	1.3831572393366385	75.0	255.0	11111110.0	
0.003977595770780618	-3.985279805896116e-05	0.003983080861935718	1.382595763515921	1.3828285196815158	1.3832993964313742	1.383375988409041	1.3831640938716048	76.0	255.0	11111110.0	
0.003978610145811812	-3.9767396105363706e-05	0.003983080861935718	1.3826008299113308	1.3828303078210722	1.3833011845709307	1.3833792666648945	1.3831670741041988	77.0	255.0	11111110.0	
0.003979529478263844	-3.9682043853753776e-05	0.003983378885195122	1.382615731074301	1.3828455070073018	1.3833148936408632	1.3833929757348271	1.3831807831741314	78.0	255.0	11111110.0	
0.003982525834691727	-3.959674139045233e-05	0.003986657141048567	1.3826303342140118	1.3828624943330878	1.3833315829433899	1.3834096650373537	1.3831956843371016	79.0	255.0	11111110.0	
0.003984159364880209	-3.951148880138341e-05	0.003989637373642608	1.382608280492816	1.3828371623560385	1.3833086351524158	1.3833876113161578	1.3831751207322027	80.0	255.0	11111110.0	
0.003984235804566226	-3.942628617207409e-05	0.003991723536458437	1.3826035121206655	1.3828320959606286	1.3833035687570059	1.3833807567811915	1.3831697563135334	81.0	255.0	11111110.0	
0.003985660387457073	-3.934113358765448e-05	0.003995299815571286	1.3826026180508872	1.3828341821234444	1.383302972710487	1.383382544920748	1.3831691602670146	82.0	255.0	11111110.0	
0.003983888114226808	-3.9256031132857677e-05	0.003995001792311882	1.3825933793298457	1.3828267315419593	1.383294032012705	1.3833739022462253	1.3831611136390107	83.0	255.0	11111110.0	
0.003985598018960415	-3.9170978892019776e-05	0.003996789931868306	1.3825966575856992	1.3828291157280346	1.3832967142220396	1.3833747963160035	1.383163497825086	84.0	255.0	11111110.0	
0.0039895274433585275	-3.908597694907981e-05	0.00399917411794354	1.3825963595624398	1.3828306058443316	1.3832990984081148	1.3833771805020787	1.3831637958483454	85.0	255.0	11111110.0	
0.003993471397823935	-3.900102538757977e-05	0.003999770164462348	1.382583246539026	1.3828192809604742	1.3832871774777387	1.3833682398042966	1.3831521729412286	86.0	255.0	11111110.0	
0.004001309319143071	-3.891612429066457e-05	0.004002750397056389	1.3825918892135487	1.3828303078210722	1.383297012245299	1.3833789686416351	1.3831599215459731	87.0	255.0	11111110.0	
0.004007399721580911	-3.883127374108204e-05	0.004003048420315793	1.3826038101439249	1.3828401425886325	1.3833083371291564	1.3833888034091955	1.3831715444530899	88.0	255.0	11111110.0	
0.0040126132449035	-3.874647382118292e-05	0.004002154350537581	1.3826026180508872	1.3828395465421137	1.3833062509663405	1.3833882073626766	1.3831715444530899	89.0	255.0	11111110.0	
0.004015227580439062	-3.866172461292086e-05	0.00399917411794354	1.3825975516554774	1.3828356722397415	1.383299992477893	1.383382544920748	1.3831658820111612	90.0	255.0	11111110.0	
0.004015007858185956	-3.857702619785239e-05	0.003994703769052478	1.3826053002602219	1.3828410366584107	1.3833089331756752	1.3833888034091955	1.3831733325926463	91.0	255.0	11111110.0	
0.004012624295347822	-3.849237865713695e-05	0.003990233420161416	1.3826094725858535	1.3828422287514484	1.3833113173617504	1.3833908895720113	1.383176014801981	92.0	255.0	11111110.0	
0.0040080335808174074	-3.8407782071536865e-05	0.003986359117789163	1.382606790376519	1.3828395465421137	1.383308039105897	1.3833882073626766	1.383174524685684	93.0	255.0	11111110.0	
0.004002965854478128	-3.83232365214174e-05	0.003985167024751547	1.3826076844462971	1.3828380564258167	1.3833098272454534	1.3833893994557143	1.3831751207322027	94.0	255.0	11111110.0	
0.003994395906850797	-3.823874208674672e-05	0.003983378885195122	1.3826109627021506	1.382838950495595	1.3833134035245662	1.3833911875952707	1.3831786970113156	95.0	255.0	11111110.0	
0.003986645382873454	-3.815429884709593e-05	0.0039845709782327385	1.382609770609113	1.3828410366584107	1.383313999571085	1.3833891014324549	1.383177504918278	96.0	255.0	11111110.0	
0.003977568687467525	-3.806990688163907e-05	0.003985465048010951	1.3826124528184476	1.3828446129375236	1.383316979803679	1.3833923796883083	1.383180485150872	97.0	255.0	11111110.0	
0.003969569373808327	-3.798556626915313e-05	0.003986955164307971	1.38260619433	1.3828401425886325	1.3833098272454534	1.383387015269639	1.3831751207322027	98.0	255.0	11111110.0	
0.003964086851871121	-3.790127708801808e-05	0.0039890413271238	1.3826151350277822	1.3828490832864146	1.383319960036273	1.3833968500371994	1.383183465383466	99.0	255.0	11111110.0	
0.003961755387365642	-3.781703941621687e-05	0.0039911274899396285	1.382600233864812	1.3828365663095197	1.383304462826784	1.3833819488742292	1.3831670741041988	100.0	255.0	11111110.0	
0.003961430704673604	-3.773285333133551e-05	0.0039911274899396285	1.382578776190135	1.3828163007278802	1.3832824091055882	1.383362577362368	1.3831474045690781	101.0	255.0	11111110.0	
0.003968599342949577	-3.7648718910563014e-05	0.0039944057457930735	1.3825978496787368	1.3828347781699633	1.3833017806174495	1.3833807567811915	1.3831652859646424	102.0	255.0	11111110.0	
0.003977097376428055	-3.756463623069152e-05	0.003995299815571286	1.3826055982834813	1.3828395465421137	1.3833074430593781	1.3833905915487519	1.3831727365461275	103.0	255.0	11111110.0	
0.003987587205640409	-3.748060536811626e-05	0.003995299815571286	1.382615731074301	1.382849381309674	1.3833175758501979	1.3834004263163122	1.3831831673602066	104.0	255.0	11111110.0	
0.003999513174155656	-3.739662639883562e-05	0.003995299815571286	1.382621691539489	1.3828568318911592	1.3833253244549424	1.3834051946884627	1.3831876377090977	105.0	255.0	11111110.0	
0.0040072022235484745	-3.731269939845116e-05	0.0039911274899396285	1.382608280492816	1.3828407386351513	1.3833098272454534	1.383392081665049	1.3831736306159057	106.0	255.0	11111110.0	
0.004011334584348617	-3.722882444216768e-05	0.003984869001492143	1.3825960615391804	1.3828291157280346	1.383298502361596	1.3833798627114133	1.3831629017785672	107.0	255.0	11111110.0	
0.004013638198560137	-3.7145001604793254e-05	0.003979802606082273	1.382590697120511	1.3828264335187	1.3832937339894456	1.383373008176447	1.3831587294529355	108.0	255.0	11111110.0	
0.0040133677632201055	-3.706123096073925e-05	0.003976524350228828	1.382595763515921	1.3828291157280346	1.3832976082918178	1.383375988409041	1.3831608156157513	109.0	255.0	11111110.0	
0.004008690781708233	-3.697751258402044e-05	0.003973842140894191	1.382600233864812	1.3828335860769256	1.3833026746872277	1.383378074571857	1.3831658820111612	110.0	255.0	11111110.0	
0.003997558885354115	-3.6893846548255006e-05	0.00396937179200313	1.3825981477019962	1.3828297117745534	1.3833008865476712	1.3833768824788193	1.3831643918948642	111.0	255.0	11111110.0	
0.003987025182064473	-3.681023292666463e-05	0.00396937179200313	1.38260619433	1.3828380564258167	1.3833101252687128	1.3833849291068232	1.383173928639165	112.0	255.0	11111110.0	
0.003973332705706994	-3.672667179207453e-05	0.003968775745484322	1.3826070883997783	1.3828377584025573	1.383308039105897	1.3833834389905262	1.383173034569387	113.0	255.0	11111110.0	
0.003962407746915016	-3.6643163216913544e-05	0.003971755978078363	1.3826053002602219	1.3828350761932227	1.3833074430593781	1.3833834389905262	1.383172438522868	114.0	255.0	11111110.0	
0.003950831343473887	-3.6559707273214185e-05	0.003972948071115979	1.382592783283327	1.3828273275884782	1.383295522129002	1.383373008176447	1.3831614116622701	115.0	255.0	11111110.0	
0.00394405511235362	-3.647630403261274e-05	0.00397592830371002	1.3825930813065863	1.3828267315419593	1.3832967142220396	1.3833736042229658	1.3831626037553078	116.0	255.0	11111110.0	
0.003940474121123605	-3.639295356634929e-05	0.0039777164432664444	1.3825933793298457	1.3828297117745534	1.3833005885244118	1.3833786706183757	1.3831655839879018	117.0	255.0	11111110.0	
0.003940984311091595	-3.630965594526782e-05	0.003978312489785253	1.382603214097406	1.3828422287514484	1.383309529222194	1.3833891014324549	1.383173928639165	118.0	255.0	11111110.0	
0.003949325114722103	-3.622641123981632e-05	0.003981590745638698	1.3826070883997783	1.3828440168910048	1.383309529222194	1.3833917836417895	1.383174524685684	119.0	255.0	11111110.0	
0.003960458148009206	-3.614321952004681e-05	0.003983378885195122	1.382597253632218	1.3828356722397415	1.3833017806174495	1.3833837370137856	1.38316647805768	120.0	255.0	11111110.0	
0.003970919991138977	-3.606008085561547e-05	0.0039812927223792935	1.382594273399624	1.3828297117745534	1.3832952241057426	1.3833783725951163	1.3831608156157513	121.0	255.0	11111110.0	
0.0039798708644169425	-3.5976995315782696e-05	0.00397592830371002	1.3825912931670299	1.3828267315419593	1.3832952241057426	1.3833756903857817	1.383159027476195	122.0	255.0	11111110.0	
0.0039900695232857105	-3.5893962969413225e-05	0.003972054001337767	1.3825859287483606	1.3828195789837336	1.383288965617295	1.3833697299205936	1.3831533650342662	123.0	255.0	11111110.0	
0.0039962136847303716	-3.581098388497623e-05	0.003966391559409089	1.382590697120511	1.382824347355884	1.3832916478266297	1.3833727101531876	1.383156941313379	124.0	255.0	11111110.0	
0.003999655752162488	-3.572805813054541e-05	0.003961921210518028	1.382601723981109	1.3828341821234444	1.383302972710487	1.3833837370137856	1.3831688622437552	125.0	255.0	11111110.0	
0.0039991931363869086	-3.564518577379908e-05	0.003958642954664583	1.38260619433	1.382837460379298	1.3833062509663405	1.3833864192231202	1.383172438522868	126.0	255.0	11111110.0	
0.003996639258827703	-3.556236688202033e-05	0.003958940977923987	1.3826199033999327	1.3828475931701176	1.383319065966495	1.3833968500371994	1.383184955499763	127.0	255.0	11111110.0	
0.0039873654026540035	-3.547960152209705e-05	0.00395774888488637	1.3826133468882258	1.3828422287514484	1.3833160857339009	1.3833929757348271	1.3831792930578344	128.0	255.0	11111110.0	
0.003972303026641861	-3.5396889760522074e-05	0.0039544706290329254	1.3826070883997783	1.382838950495595	1.383309529222194	1.3833879093394172	1.3831769088717591	129.0	255.0	11111110.0	
0.00395881436573998	-3.531423166339332e-05	0.0039547686522923295	1.3826109627021506	1.382840440611892	1.3833119134082692	1.383389995502233	1.3831801871276126	130.0	255.0	11111110.0	
0.003945414347512896	-3.5231627296413885e-05	0.003955364698811138	1.3825963595624398	1.3828267315419593	1.3832967142220396	1.3833750943392629	1.3831611136390107	131.0	255.0	11111110.0	
0.003936033458632455	-3.514907672489217e-05	0.003958344931405179	1.3825978496787368	1.3828291157280346	1.3832976082918178	1.383375988409041	1.3831640938716048	132.0	255.0	11111110.0	
0.003932654936563702	-3.5066580013742e-05	0.00396430539659326	1.3826109627021506	1.3828431228212266	1.3833119134082692	1.3833923796883083	1.3831783989880562	133.0	255.0	11111110.0	
0.00393223429154735	-3.4984137227482716e-05	0.003969073768743726	1.3826055982834813	1.3828392485188543	1.3833074430593781	1.3833873132928984	1.3831721404996087	134.0	255.0	11111110.0	
0.003936634621795913	-3.4901748430239364e-05	0.003973842140894191	1.3826008299113308	1.3828320959606286	1.3833005885244118	1.383382544920748	1.3831667760809394	135.0	255.0	11111110.0	
0.003946011502323774	-3.4819413685742786e-05	0.003978908536304061	1.3825945714228833	1.382830903867591	1.3832961181755208	1.3833801607346727	1.3831626037553078	136.0	255.0	11111110.0	
0.003957016739790105	-3.473713305732978e-05	0.003981590745638698	1.3825903990972517	1.3828291157280346	1.3832952241057426	1.3833786706183757	1.3831596235227137	137.0	255.0	11111110.0	
0.003967754296947771	-3.4654906607943216e-05	0.0039809946991198894	1.3825903990972517	1.3828276256117376	1.3832931379429267	1.383375988409041	1.383158431429676	138.0	255.0	11111110.0	
0.003980518306529115	-3.457273440013219e-05	0.0039809946991198894	1.3826008299113308	1.3828350761932227	1.3833011845709307	1.3833846310835638	1.3831658820111612	139.0	255.0	11111110.0	
0.003993913839223931	-3.449061649605217e-05	0.003982186792157506	1.382609770609113	1.382844910960783	1.3833116153850098	1.383392081665049	1.3831754187554621	140.0	255.0	11111110.0	
0.00400160679863816	-3.4408552957465135e-05	0.003979802606082273	1.3826091745625941	1.3828431228212266	1.3833119134082692	1.3833905915487519	1.3831769088717591	141.0	255.0	11111110.0	
0.004008013948751421	-3.4326543845739747e-05	0.003979504582822869	1.3826160290975604	1.38284640107708	1.3833145956176038	1.3833944658511241	1.3831810811973908	142.0	255.0	11111110.0	
0.004010126354299861	-3.424458922185152e-05	0.003979206559563465	1.382614240958004	1.3828416327049295	1.383313999571085	1.383389995502233	1.3831781009647968	143.0	255.0	11111110.0	
0.004006969058736314	-3.4162689146382934e-05	0.0039780144665258485	1.3826255658418614	1.3828538516585651	1.383325026431683	1.3834028105023874	1.3831912139882105	144.0	255.0	11111110.0	
0.004001383487788286	-3.408084367952363e-05	0.003978312489785253	1.382620797469711	1.3828496793329335	1.3833211521293107	1.3833983401534964	1.3831873396858383	145.0	255.0	11111110.0	
0.003991699825594568	-3.399905288107057e-05	0.00397741842000704	1.38260619433	1.3828371623560385	1.3833071450361187	1.3833834389905262	1.3831733325926463	146.0	255.0	11111110.0	
0.003986453353793889	-3.3917316810428234e-05	0.003982782838676314	1.3826204994464515	1.3828526595655275	1.383322046199089	1.3833992342232746	1.3831894258486541	147.0	255.0	11111110.0	
0.003976962900896329	-3.383563552660873e-05	0.003984272954973334	1.3826255658418614	1.382857427937678	1.3833268145712394	1.3834051946884627	1.3831924060812482	148.0	255.0	11111110.0	
0.0039691886047964805	-3.375400908823203e-05	0.003986061094529759	1.3826199033999327	1.3828526595655275	1.3833229402688672	1.3834022144558686	1.3831876377090977	149.0	255.0	11111110.0	
0.003965481113231558	-3.367243755352608e-05	0.003989339350383204	1.382615731074301	1.382847891193377	1.3833172778269385	1.3833983401534964	1.383183465383466	150.0	255.0	11111110.0	
0.003963695513647962	-3.359092098032707e-05	0.0039911274899396285	1.3826151350277822	1.3828484872398958	1.3833178738734573	1.3833989362000152	1.3831831673602066	151.0	255.0	11111110.0	
0.003969912595682464	-3.350945942607955e-05	0.003997385978387114	1.3826178172371169	1.3828505734027117	1.3833187679432355	1.3833983401534964	1.383184955499763	152.0	255.0	11111110.0	
0.003974424532956629	-3.342805294783661e-05	0.003998578071424732	1.38261126072541	1.3828469971235988	1.3833128074780474	1.3833944658511241	1.3831783989880562	153.0	255.0	11111110.0	
0.003978013852555855	-3.334670160226012e-05	0.00399559783883069	1.38261126072541	1.3828472951468582	1.3833142975943444	1.38339655201394	1.3831798891043532	154.0	255.0	11111110.0	
0.003984821852503006	-3.326540544562086e-05	0.003993511676014861	1.382612750841707	1.3828466991003394	1.383315489687382	1.3833977441069776	1.3831795910810938	155.0	255.0	11111110.0	
0.003991668726982988	-3.3184164533798755e-05	0.00399053144342082	1.3826079824695565	1.3828437188677454	1.383311019338491	1.3833923796883083	1.3831757167787215	156.0	255.0	11111110.0	
0.003998071914515478	-3.3102978922283054e-05	0.003987551210826779	1.3826136449114852	1.3828469971235988	1.3833142975943444	1.38339655201394	1.3831822732904284	157.0	255.0	11111110.0	
0.004002196533312608	-3.3021848666172515e-05	0.00398397493171393	1.382614240958004	1.3828466991003394	1.383316979803679	1.3833944658511241	1.383183465383466	158.0	255.0	11111110.0	
0.004005401687758244	-3.2940773820175614e-05	0.003982186792157506	1.3826151350277822	1.3828469971235988	1.3833172778269385	1.3833938698046053	1.3831828693369472	159.0	255.0	11111110.0	
0.004005289898282912	-3.285975443861073e-05	0.003980398652601081	1.3826124528184476	1.3828428247979672	1.3833142975943444	1.3833905915487519	1.3831792930578344	160.0	255.0	11111110.0	
0.004001309227069255	-3.2778790575406365e-05	0.0039780144665258485	1.3826130488649664	1.3828392485188543	1.383312509454788	1.3833888034091955	1.3831792930578344	161.0	255.0	11111110.0	
0.003994276676455	-3.269788228410133e-05	0.003975332257191212	1.3826130488649664	1.3828416327049295	1.3833128074780474	1.3833891014324549	1.3831783989880562	162.0	255.0	11111110.0	
0.003986160891781581	-3.2617029617844963e-05	0.003973544117634787	1.382614240958004	1.3828472951468582	1.383316979803679	1.383393571781346	1.3831807831741314	163.0	255.0	11111110.0	
0.003980401404126906	-3.253623262939732e-05	0.003975332257191212	1.3826204994464515	1.382852361542268	1.3833238343386454	1.3834013203860904	1.3831882337556165	164.0	255.0	11111110.0	
0.003971820143849195	-3.245549137112942e-05	0.0039744381874129995	1.3826088765393347	1.3828425267747078	1.3833122114315286	1.383389995502233	1.3831772068950186	165.0	255.0	11111110.0	
0.003966847308776112	-3.2374805895023456e-05	0.003976226326969424	1.382598743748515	1.3828317979373692	1.3832996944546336	1.383378074571857	1.3831661800344206	166.0	255.0	11111110.0	
0.003963485787362731	-3.2294176252673006e-05	0.0039780144665258485	1.382587716887917	1.3828207710767713	1.3832886675940357	1.3833691338740748	1.383153961080785	167.0	255.0	11111110.0	
0.003963976539352328	-3.221360249528324e-05	0.003981590745638698	1.3825823524692478	1.3828186849139554	1.3832862834079604	1.3833667496879996	1.3831500867784128	168.0	255.0	11111110.0	
0.0039677746599747505	-3.213308467367116e-05	0.003986359117789163	1.3826008299113308	1.3828365663095197	1.3833047608500435	1.3833864192231202	1.383169458290274	169.0	255.0	11111110.0	
0.00397074688461002	-3.205262283826582e-05	0.003988147257345588	1.3826106646788912	1.382847891193377	1.3833145956176038	1.3833953599209023	1.383178995034575	170.0	255.0	11111110.0	
0.003973170344502664	-3.197221703910857e-05	0.003987253187567375	1.3826014259578496	1.382838354449076	1.383305058873303	1.383385525153342	1.3831700543367929	171.0	255.0	11111110.0	
0.0039744482731181585	-3.1891867325853245e-05	0.003983378885195122	1.3825981477019962	1.3828341821234444	1.3833002905011524	1.3833822468974886	1.3831655839879018	172.0	255.0	11111110.0	
0.003980527257631435	-3.1811573747766444e-05	0.003983378885195122	1.3825999358415526	1.382832393983888	1.3833011845709307	1.3833816508509698	1.3831661800344206	173.0	255.0	11111110.0	
0.003983323676694878	-3.173133635372774e-05	0.003980100629341677	1.3826050022369625	1.3828365663095197	1.383308039105897	1.383387015269639	1.383172438522868	174.0	255.0	11111110.0	
0.0039869104523804835	-3.1651155192229936e-05	0.003978312489785253	1.3826038101439249	1.3828341821234444	1.3833059529430811	1.3833843330603044	1.3831703523600523	175.0	255.0	11111110.0	
0.0039882317001747655	-3.157103031137928e-05	0.003975630280450616	1.3825895050274735	1.3828186849139554	1.3832913498033703	1.3833688358508154	1.3831548551505632	176.0	255.0	11111110.0	
0.00399205095948201	-3.149096175889572e-05	0.00397741842000704	1.3825874188646576	1.382815406658102	1.3832886675940357	1.3833646635251837	1.3831521729412286	177.0	255.0	11111110.0	
0.003994681252226268	-3.141094958211315e-05	0.003980398652601081	1.3826005318880714	1.3828276256117376	1.3833035687570059	1.383377478525338	1.3831646899181236	178.0	255.0	11111110.0	
0.003993184943752595	-3.133099382797967e-05	0.0039812927223792935	1.38261126072541	1.3828392485188543	1.3833137015478256	1.3833879093394172	1.3831769088717591	179.0	255.0	11111110.0	
0.003989185631325777	-3.125109454305779e-05	0.0039809946991198894	1.3826053002602219	1.3828320959606286	1.3833062509663405	1.3833822468974886	1.383172438522868	180.0	255.0	11111110.0	
0.003984025905008317	-3.1171251773524714e-05	0.003980100629341677	1.3825978496787368	1.382824347355884	1.3832976082918178	1.3833747963160035	1.3831623057320483	181.0	255.0	11111110.0	
0.003980930783448113	-3.109146556517256e-05	0.0039812927223792935	1.382595763515921	1.3828258374721811	1.3832979063150772	1.3833747963160035	1.383162007708789	182.0	255.0	11111110.0	
0.003980770118779089	-3.101173596340862e-05	0.003985167024751547	1.3826014259578496	1.3828350761932227	1.3833068470128593	1.3833831409672668	1.3831706503833117	183.0	255.0	11111110.0	
0.003985092818175112	-3.093206301325564e-05	0.003993213652755457	1.3826109627021506	1.3828446129375236	1.383313999571085	1.3833938698046053	1.383178995034575	184.0	255.0	11111110.0	
0.0039825971519350115	-3.085244675935201e-05	0.003993511676014861	1.3825993397950338	1.3828317979373692	1.3833011845709307	1.383381054804451	1.38316647805768	185.0	255.0	11111110.0	
0.003985081869689679	-3.077288724595207e-05	0.003997385978387114	1.3825963595624398	1.3828317979373692	1.3833020786407089	1.3833819488742292	1.38316647805768	186.0	255.0	11111110.0	
0.003985391291919781	-3.069338451692637e-05	0.0039976840016465185	1.3825996378182932	1.382835374216482	1.3833041648035247	1.3833852271300826	1.3831685642204958	187.0	255.0	11111110.0	
0.003986858548187491	-3.061393861576191e-05	0.0039976840016465185	1.3825939753763645	1.3828291157280346	1.3832967142220396	1.3833783725951163	1.3831611136390107	188.0	255.0	11111110.0	
0.003987764095719045	-3.05345495855624e-05	0.003995895862090094	1.3826038101439249	1.3828377584025573	1.383304462826784	1.383387015269639	1.3831703523600523	189.0	255.0	11111110.0	
0.003988412313545945	-3.045521746904853e-05	0.003992915629496053	1.3826020220043684	1.3828344801467038	1.3833056549198217	1.3833846310835638	1.383170948406571	190.0	255.0	11111110.0	
0.003988686899885928	-3.0375942308558233e-05	0.0039890413271238	1.3825936773531051	1.382827923634997	1.3832979063150772	1.3833771805020787	1.3831617096855295	191.0	255.0	11111110.0	
0.003990948955799937	-3.0296724146046945e-05	0.003987253187567375	1.3826026180508872	1.3828335860769256	1.383304462826784	1.3833849291068232	1.3831700543367929	192.0	255.0	11111110.0	
0.003988325874446993	-3.0217563023087874e-05	0.0039809946991198894	1.3825963595624398	1.3828258374721811	1.3832979063150772	1.3833786706183757	1.3831643918948642	193.0	255.0	11111110.0	
0.003989954990029521	-3.013845898087228e-05	0.003979802606082273	1.3826005318880714	1.3828306058443316	1.3833026746872277	1.3833801607346727	1.3831703523600523	194.0	255.0	11111110.0	
0.003989121691956822	-3.005941206020972e-05	0.00397741842000704	1.3825984457252556	1.382829413751294	1.3833017806174495	1.383378074571857	1.383167968173977	195.0	255.0	11111110.0	
0.003991261397151934	-2.9980422301528346e-05	0.003979504582822869	1.3826106646788912	1.3828398445653731	1.3833131055013068	1.383388505385936	1.3831772068950186	196.0	255.0	11111110.0	
0.003995437419140151	-2.990148974487517e-05	0.003985465048010951	1.3826190093301545	1.3828484872398958	1.3833223442223483	1.3833977441069776	1.383187935732357	197.0	255.0	11111110.0	
0.003992346514499898	-2.982261442991632e-05	0.003985465048010951	1.3826091745625941	1.382840440611892	1.3833119134082692	1.383389995502233	1.383180485150872	198.0	255.0	11111110.0	
0.00398966020244579	-2.9743796395937335e-05	0.003986359117789163	1.3826044061904437	1.382835374216482	1.3833071450361187	1.383387015269639	1.3831727365461275	199.0	255.0	11111110.0	
0.003989710595020391	-2.966503568184344e-05	0.003990233420161416	1.3826053002602219	1.3828371623560385	1.3833083371291564	1.3833879093394172	1.3831742266624245	200.0	255.0	11111110.0	
0.003988678093026761	-2.9586332326159814e-05	0.003992915629496053	1.3826023200276278	1.3828365663095197	1.3833074430593781	1.3833873132928984	1.3831718424763493	201.0	255.0	11111110.0	
0.003990183517974061	-2.950768636703188e-05	0.0039976840016465185	1.3826020220043684	1.3828365663095197	1.3833074430593781	1.3833867172463796	1.383172438522868	202.0	255.0	11111110.0	
0.003988395945313107	-2.9429097842225586e-05	0.0039982800481653275	1.3825993397950338	1.3828335860769256	1.383304462826784	1.3833858231766014	1.383167968173977	203.0	255.0	11111110.0	
0.0039887379395162695	-2.9350566789127678e-05	0.003999770164462348	1.3826011279345902	1.3828362682862603	1.3833056549198217	1.3833861211998608	1.3831688622437552	204.0	255.0	11111110.0	
0.0039896851750172765	-2.9272093244746e-05	0.00400066423424056	1.3826055982834813	1.3828416327049295	1.3833101252687128	1.3833893994557143	1.383172438522868	205.0	255.0	11111110.0	
0.003986685537846002	-2.919367724570976e-05	0.003996193885349498	1.382600233864812	1.3828359702630009	1.383302972710487	1.3833804587579321	1.3831685642204958	206.0	255.0	11111110.0	
0.003986236191880968	-2.9115318828269814e-05	0.003992915629496053	1.3825966575856992	1.3828332880536662	1.3833011845709307	1.383379564688154	1.38316647805768	207.0	255.0	11111110.0	
0.003986900412674335	-2.9037018028298984e-05	0.003989935396902012	1.3826064923532595	1.3828395465421137	1.3833131055013068	1.3833888034091955	1.3831754187554621	208.0	255.0	11111110.0	
0.003984514460469178	-2.895877488129233e-05	0.003983378885195122	1.3826118567719288	1.3828407386351513	1.3833151916641226	1.3833923796883083	1.3831778029415374	209.0	255.0	11111110.0	
0.003986280314525191	-2.8880589422367432e-05	0.0039809946991198894	1.3826103666556318	1.3828416327049295	1.3833145956176038	1.3833917836417895	1.3831783989880562	210.0	255.0	11111110.0	
0.003988157516390688	-2.8802461686264702e-05	0.003979504582822869	1.3826038101439249	1.3828326920071474	1.3833062509663405	1.3833837370137856	1.3831721404996087	211.0	255.0	11111110.0	
0.003987783383545794	-2.8724391707347654e-05	0.003976822373488232	1.3825912931670299	1.3828201750302525	1.3832931379429267	1.3833688358508154	1.3831593254994543	212.0	255.0	11111110.0	
0.0039915967487001505	-2.8646379519603234e-05	0.003979802606082273	1.3825859287483606	1.3828148106115832	1.3832865814312199	1.3833637694554055	1.3831533650342662	213.0	255.0	11111110.0	
0.00399504846145308	-2.856842515664208e-05	0.003984272954973334	1.3825966575856992	1.3828282216582564	1.3833002905011524	1.3833768824788193	1.3831643918948642	214.0	255.0	11111110.0	
0.003997136869240817	-2.8490528651698846e-05	0.0039890413271238	1.3826190093301545	1.3828499773561929	1.3833229402688672	1.3833977441069776	1.38318644561606	215.0	255.0	11111110.0	
0.003995779900564442	-2.841269003763249e-05	0.003991425513199033	1.3826184132836357	1.3828505734027117	1.3833208541060513	1.3833989362000152	1.3831861475928007	216.0	255.0	11111110.0	
0.003991807077448463	-2.8334909346926582e-05	0.003991425513199033	1.3826124528184476	1.3828446129375236	1.3833148936408632	1.3833953599209023	1.3831772068950186	217.0	255.0	11111110.0	
0.003988510377968578	-2.82571866116896e-05	0.003991723536458437	1.3826011279345902	1.3828350761932227	1.383305058873303	1.3833861211998608	1.3831676701507176	218.0	255.0	11111110.0	
0.003989578458014047	-2.817952186365524e-05	0.003995895862090094	1.3826055982834813	1.3828410366584107	1.3833089331756752	1.3833908895720113	1.383173928639165	219.0	255.0	11111110.0	
0.00398726211771808	-2.8101915134182745e-05	0.003995895862090094	1.3826100686323723	1.3828455070073018	1.3833148936408632	1.3833956579441617	1.3831781009647968	220.0	255.0	11111110.0	
0.003984744208557721	-2.802436645425717e-05	0.0039944057457930735	1.3826055982834813	1.3828410366584107	1.3833119134082692	1.3833911875952707	1.3831733325926463	221.0	255.0	11111110.0	
0.003984411692617391	-2.7946875854489714e-05	0.003993809699274265	1.3826154330510416	1.3828511694492305	1.383320556082792	1.3834004263163122	1.3831840614299848	222.0	255.0	11111110.0	
0.003984296301381172	-2.7869443365118037e-05	0.003992319582977245	1.382612750841707	1.3828455070073018	1.3833157877106415	1.3833962539906806	1.3831801871276126	223.0	255.0	11111110.0	
0.0039842245529601835	-2.7792069016006557e-05	0.003989935396902012	1.3826085785160753	1.3828407386351513	1.3833104232919722	1.3833923796883083	1.3831766108484997	224.0	255.0	11111110.0	
0.0039870257927919804	-2.7714752836646785e-05	0.003989935396902012	1.3826181152603763	1.3828484872398958	1.383320556082792	1.3833971480604588	1.38318644561606	225.0	255.0	11111110.0	
0.003989252685795497	-2.7637494856157624e-05	0.003989339350383204	1.382618711306895	1.3828469971235988	1.3833175758501979	1.38339655201394	1.383184955499763	226.0	255.0	11111110.0	
0.003988157969676619	-2.756029510328569e-05	0.003985465048010951	1.3826184132836357	1.3828475931701176	1.383318469919976	1.3833968500371994	1.3831852535230225	227.0	255.0	11111110.0	
0.003988627204914247	-2.7483153606405628e-05	0.003983378885195122	1.3826020220043684	1.3828291157280346	1.3833026746872277	1.3833786706183757	1.3831685642204958	228.0	255.0	11111110.0	
0.003990217652344739	-2.7406070393520435e-05	0.003983080861935718	1.3825960615391804	1.3828222611930683	1.383297012245299	1.3833712200368906	1.3831629017785672	229.0	255.0	11111110.0	
0.003992035170629587	-2.7329045492261768e-05	0.00398397493171393	1.3826014259578496	1.3828273275884782	1.383305058873303	1.3833771805020787	1.3831685642204958	230.0	255.0	11111110.0	
0.00399198588502635	-2.7252078929890292e-05	0.00398397493171393	1.3825933793298457	1.38282136712329	1.383297012245299	1.3833721141066688	1.3831617096855295	231.0	255.0	11111110.0	
0.003993368091329852	-2.7175170733295984e-05	0.003986359117789163	1.3826041081671843	1.3828326920071474	1.3833059529430811	1.3833843330603044	1.3831700543367929	232.0	255.0	11111110.0	
0.003995812839848441	-2.7098320928998458e-05	0.003990829466680224	1.3826026180508872	1.3828347781699633	1.3833059529430811	1.3833816508509698	1.383167968173977	233.0	255.0	11111110.0	
0.003992656180072947	-2.702152954314729e-05	0.003990233420161416	1.3825939753763645	1.3828276256117376	1.3832988003848554	1.3833750943392629	1.3831608156157513	234.0	255.0	11111110.0	
0.003992388623638501	-2.6944796601522357e-05	0.003992617606236649	1.3825918892135487	1.3828255394489217	1.3832952241057426	1.3833718160834094	1.3831563452668603	235.0	255.0	11111110.0	
0.0039918464479621555	-2.6868122129534182e-05	0.003994703769052478	1.3825886109576953	1.3828237513093653	1.3832946280592238	1.3833706239903718	1.3831545571273038	236.0	255.0	11111110.0	
0.003990202379432564	-2.6791506152224237e-05	0.003995299815571286	1.382590697120511	1.3828261354954405	1.3832949260824832	1.383373008176447	1.383159027476195	237.0	255.0	11111110.0	
0.0039861412297384135	-2.6714948694265275e-05	0.003992617606236649	1.3826023200276278	1.382836864332779	1.3833056549198217	1.383385525153342	1.3831700543367929	238.0	255.0	11111110.0	
0.003983191929410595	-2.663844977996169e-05	0.003989935396902012	1.3826008299113308	1.3828347781699633	1.3833038667802653	1.383384035037045	1.3831685642204958	239.0	255.0	11111110.0	
0.003980984282744755	-2.6562009433249843e-05	0.003986955164307971	1.3825996378182932	1.3828303078210722	1.383302972710487	1.3833816508509698	1.3831673721274582	240.0	255.0	11111110.0	
0.003978240358529469	-2.648562767769839e-05	0.00398248481541691	1.3825951674694021	1.3828252414256623	1.3832988003848554	1.3833786706183757	1.3831631998018266	241.0	255.0	11111110.0	
0.003977656563337475	-2.6409304536508625e-05	0.003979504582822869	1.3825978496787368	1.3828282216582564	1.3832996944546336	1.383377478525338	1.3831626037553078	242.0	255.0	11111110.0	
0.0039773279770846555	-2.6333040032514833e-05	0.003976524350228828	1.3825835445622854	1.3828157046813614	1.3832862834079604	1.3833607892228115	1.3831456164295217	243.0	255.0	11111110.0	
0.003978347930578274	-2.625683418818462e-05	0.003975034233931808	1.382592783283327	1.382823453286106	1.383294032012705	1.3833697299205936	1.3831581334064167	244.0	255.0	11111110.0	
0.00397945041954244	-2.618068702561926e-05	0.003974140164153595	1.3825996378182932	1.3828303078210722	1.38330148259419	1.3833777765485975	1.3831673721274582	245.0	255.0	11111110.0	
0.0039834948687808664	-2.6104598566554045e-05	0.003977120396747636	1.382608280492816	1.3828362682862603	1.383308039105897	1.3833858231766014	1.3831754187554621	246.0	255.0	11111110.0	
0.003986090374503603	-2.6028568832358633e-05	0.003979802606082273	1.3826103666556318	1.3828380564258167	1.3833086351524158	1.3833882073626766	1.383174524685684	247.0	255.0	11111110.0	
0.003987144568806621	-2.595259784403739e-05	0.003981888768898102	1.3825948694461427	1.3828252414256623	1.3832946280592238	1.3833747963160035	1.3831614116622701	248.0	255.0	11111110.0	
0.003986970259323208	-2.5876685622229744e-05	0.003983378885195122	1.3826070883997783	1.3828362682862603	1.3833074430593781	1.383387015269639	1.383176014801981	249.0	255.0	11111110.0	
0.003990112870700526	-2.5800832187210527e-05	0.003988743303864396	1.3826306322372712	1.3828607061935314	1.383332477013168	1.3834123472466884	1.3831986645696956	250.0	255.0	11111110.0	
0.003990256248058157	-2.5725037558890343e-05	0.003991425513199033	1.3826130488649664	1.3828469971235988	1.3833163837571603	1.3833953599209023	1.383181975267169	251.0	255.0	11111110.0	
0.003989438609827334	-2.564930175681591e-05	0.003992915629496053	1.3826136449114852	1.3828490832864146	1.3833157877106415	1.383395061897643	1.3831813792206502	252.0	255.0	11111110.0	
0.0039894297534871555	-2.557362480017042e-05	0.003994703769052478	1.38261126072541	1.3828458050305612	1.3833142975943444	1.3833956579441617	1.3831783989880562	253.0	255.0	11111110.0	
0.003988641097904632	-2.5498006707773902e-05	0.003995001792311882	1.382597253632218	1.3828329900304068	1.3833002905011524	1.3833801607346727	1.383164987941383	254.0	255.0	11111110.0	
0.003988111921710136	-2.542244749808358e-05	0.003994703769052478	1.3826055982834813	1.3828401425886325	1.3833089331756752	1.3833891014324549	1.383174524685684	255.0	255.0	11111110.0	
0.0039883789674979775	-2.5346947189194233e-05	0.0039944057457930735	1.382609770609113	1.3828428247979672	1.3833134035245662	1.3833929757348271	1.3831783989880562	0.0	255.0	11111110.0	
0.003985624938792606	-2.5271505798838562e-05	0.003990233420161416	1.3826041081671843	1.3828350761932227	1.3833056549198217	1.3833849291068232	1.3831703523600523	1.0	255.0	11111110.0	
0.003985088905796791	-2.5196123344387547e-05	0.003987551210826779	1.3825981477019962	1.382827923634997	1.3832982043383366	1.383377478525338	1.3831643918948642	2.0	255.0	11111110.0	
0.003987657566839093	-2.5120799842850813e-05	0.0039878492340861835	1.3826058963067407	1.3828359702630009	1.3833053568965623	1.3833837370137856	1.3831712464298305	3.0	255.0	11111110.0	
0.003985969615917263	-2.5045535310876967e-05	0.00398397493171393	1.3826085785160753	1.3828386524723355	1.3833104232919722	1.3833882073626766	1.3831766108484997	4.0	255.0	11111110.0	
0.0039853384965271655	-2.497032976475401e-05	0.0039812927223792935	1.3825984457252556	1.3828276256117376	1.3833005885244118	1.3833777765485975	1.38316647805768	5.0	255.0	11111110.0	
0.003987383145596705	-2.4895183220409674e-05	0.003981888768898102	1.3825936773531051	1.382823453286106	1.3832961181755208	1.3833724121299282	1.3831626037553078	6.0	255.0	11111110.0	
0.003986028192898405	-2.4820095693411816e-05	0.003979802606082273	1.3826020220043684	1.3828300097978128	1.3833053568965623	1.3833813528277104	1.3831721404996087	7.0	255.0	11111110.0	
0.003985819353047143	-2.4745067198968762e-05	0.003979504582822869	1.38260619433	1.3828356722397415	1.3833101252687128	1.3833867172463796	1.3831763128252403	8.0	255.0	11111110.0	
0.003986907030168252	-2.46700977519297e-05	0.0039812927223792935	1.382598743748515	1.3828273275884782	1.3832976082918178	1.383375988409041	1.3831673721274582	9.0	255.0	11111110.0	
0.003987539694158739	-2.459518736678503e-05	0.003983378885195122	1.382595763515921	1.3828255394489217	1.3832961181755208	1.3833750943392629	1.383164987941383	10.0	255.0	11111110.0	
0.003987935592872901	-2.452033605766678e-05	0.003985763071270355	1.382608280492816	1.3828380564258167	1.3833086351524158	1.3833905915487519	1.3831769088717591	11.0	255.0	11111110.0	
0.003987224534991965	-2.4445543838348938e-05	0.003987253187567375	1.3825993397950338	1.3828326920071474	1.3833005885244118	1.383382544920748	1.3831667760809394	12.0	255.0	11111110.0	
0.003983265917213232	-2.4370810722247834e-05	0.003985167024751547	1.3826100686323723	1.3828437188677454	1.383313999571085	1.383392081665049	1.3831766108484997	13.0	255.0	11111110.0	
0.003983104323387486	-2.4296136722422554e-05	0.003986359117789163	1.3826193073534139	1.3828541496818245	1.3833214501525701	1.383402512479128	1.38318644561606	14.0	255.0	11111110.0	
0.003981661381100793	-2.4221521851575272e-05	0.003985763071270355	1.3826169231673386	1.382852957588787	1.3833187679432355	1.383399532246534	1.383184955499763	15.0	255.0	11111110.0	
0.003978884849570295	-2.414696612205167e-05	0.003983080861935718	1.3826184132836357	1.3828511694492305	1.383319065966495	1.3834004263163122	1.3831837634067254	16.0	255.0	11111110.0	
0.003974930296700638	-2.407246954584129e-05	0.003978312489785253	1.3826008299113308	1.3828320959606286	1.3832988003848554	1.3833816508509698	1.383164987941383	17.0	255.0	11111110.0	
0.0039748752986200585	-2.3998032134577944e-05	0.003976822373488232	1.3825993397950338	1.3828320959606286	1.3832996944546336	1.383379564688154	1.38316647805768	18.0	255.0	11111110.0	
0.003975823876107843	-2.3923653899540073e-05	0.003976226326969424	1.382603214097406	1.3828350761932227	1.3833083371291564	1.383385525153342	1.383172438522868	19.0	255.0	11111110.0	
0.003976333035487572	-2.3849334851651152e-05	0.003975332257191212	1.382608280492816	1.3828377584025573	1.3833104232919722	1.3833876113161578	1.3831766108484997	20.0	255.0	11111110.0	
0.003974605766286074	-2.3775075001480062e-05	0.003972352024597171	1.3826133468882258	1.3828407386351513	1.3833131055013068	1.3833911875952707	1.383178995034575	21.0	255.0	11111110.0	
0.003974422864057164	-2.370087435924149e-05	0.0039711599315595545	1.3826121547951882	1.3828362682862603	1.3833134035245662	1.38339148561853	1.383176014801981	22.0	255.0	11111110.0	
0.003977467028917591	-2.3626732934796328e-05	0.003973842140894191	1.3826115587486694	1.382840440611892	1.383313999571085	1.3833893994557143	1.3831778029415374	23.0	255.0	11111110.0	
0.003976049339717299	-2.355265073765205e-05	0.003972650047856575	1.3825945714228833	1.382822857239587	1.383295522129002	1.3833727101531876	1.383163497825086	24.0	255.0	11111110.0	
0.003976091330594421	-2.3478627776963112e-05	0.003973246094375383	1.3825844386320636	1.3828142145650644	1.3832871774777387	1.383364067478665	1.3831533650342662	25.0	255.0	11111110.0	
0.003978362788749544	-2.3404664061531348e-05	0.003976524350228828	1.3826008299113308	1.3828320959606286	1.383304462826784	1.3833804587579321	1.3831700543367929	26.0	255.0	11111110.0	
0.0039793761870078135	-2.3330759599806376e-05	0.003978908536304061	1.3826070883997783	1.382836864332779	1.3833089331756752	1.3833867172463796	1.3831748227089433	27.0	255.0	11111110.0	
0.003982817217842892	-2.325691439988598e-05	0.00398397493171393	1.3826044061904437	1.3828380564258167	1.3833071450361187	1.3833876113161578	1.3831733325926463	28.0	255.0	11111110.0	
0.003983823470285361	-2.3183128469516507e-05	0.003986657141048567	1.3825993397950338	1.3828317979373692	1.3833008865476712	1.3833831409672668	1.383167968173977	29.0	255.0	11111110.0	
0.003983999750604509	-2.3109401816093275e-05	0.003988147257345588	1.382597253632218	1.3828306058443316	1.3832993964313742	1.3833789686416351	1.38316647805768	30.0	255.0	11111110.0	
0.003983595120816398	-2.3035734446660978e-05	0.003988445280604992	1.3825966575856992	1.3828306058443316	1.3832976082918178	1.3833768824788193	1.3831658820111612	31.0	255.0	11111110.0	
0.003982471130837804	-2.2962126367914093e-05	0.003987253187567375	1.3825901010739923	1.382824347355884	1.3832916478266297	1.3833712200368906	1.3831596235227137	32.0	255.0	11111110.0	
0.003983768647218841	-2.2888577586197256e-05	0.0039878492340861835	1.382604704213703	1.3828392485188543	1.3833071450361187	1.383388505385936	1.3831736306159057	33.0	255.0	11111110.0	
0.00398428188054838	-2.2815088107505694e-05	0.003987253187567375	1.3826225856092673	1.3828565338678998	1.3833283046875364	1.3834066848047597	1.3831909159649511	34.0	255.0	11111110.0	
0.003984779894951556	-2.2741657937485643e-05	0.003986359117789163	1.3826324203768277	1.3828645804959037	1.3833363513155403	1.3834138373629854	1.3831998566627333	35.0	255.0	11111110.0	
0.003983393438137747	-2.2668287081434722e-05	0.003983378885195122	1.3826249697953426	1.3828541496818245	1.3833253244549424	1.3834028105023874	1.3831906179416917	36.0	255.0	11111110.0	
0.003982669081569025	-2.259497554430236e-05	0.0039809946991198894	1.3826196053766733	1.3828490832864146	1.3833208541060513	1.3833974460837182	1.3831861475928007	37.0	255.0	11111110.0	
0.00398204876103418	-2.2521723330690212e-05	0.003978908536304061	1.3826231816557861	1.3828505734027117	1.3833226422456077	1.3834004263163122	1.3831882337556165	38.0	255.0	11111110.0	
0.003979671505588154	-2.244853044485255e-05	0.003975332257191212	1.3826255658418614	1.382852957588787	1.3833244303851642	1.3834013203860904	1.3831918100347294	39.0	255.0	11111110.0	
0.003978144783475277	-2.2375396890696705e-05	0.003972948071115979	1.3826100686323723	1.3828371623560385	1.383311019338491	1.383387015269639	1.3831772068950186	40.0	255.0	11111110.0	
0.003979524795302327	-2.230232267178346e-05	0.003974140164153595	1.38261126072541	1.3828410366584107	1.3833134035245662	1.3833893994557143	1.3831778029415374	41.0	255.0	11111110.0	
0.003982606547299484	-2.222930779132747e-05	0.0039780144665258485	1.3826181152603763	1.3828484872398958	1.383322046199089	1.3833971480604588	1.3831855515462819	42.0	255.0	11111110.0	
0.003984197150998647	-2.215635225219769e-05	0.0039812927223792935	1.3826166251440792	1.3828466991003394	1.383319065966495	1.3833968500371994	1.383183465383466	43.0	255.0	11111110.0	
0.003985242006350849	-2.208345605691777e-05	0.0039845709782327385	1.3826210954929703	1.3828520635190087	1.3833238343386454	1.383402512479128	1.3831894258486541	44.0	255.0	11111110.0	
0.00398496788358295	-2.201061920766649e-05	0.003986657141048567	1.382618711306895	1.3828505734027117	1.383320556082792	1.3833992342232746	1.3831867436393195	45.0	255.0	11111110.0	
0.003984396830471871	-2.1937841706278173e-05	0.003988147257345588	1.3826151350277822	1.382849381309674	1.3833175758501979	1.383398042130237	1.3831822732904284	46.0	255.0	11111110.0	
0.00398299303568375	-2.1865123554243105e-05	0.003988147257345588	1.3826106646788912	1.382847891193377	1.383313999571085	1.3833953599209023	1.3831795910810938	47.0	255.0	11111110.0	
0.003984401433880708	-2.179246475270796e-05	0.003990233420161416	1.3826118567719288	1.3828484872398958	1.3833163837571603	1.3833956579441617	1.3831816772439096	48.0	255.0	11111110.0	
0.00398444321002853	-2.171986530247623e-05	0.003990233420161416	1.3826175192138574	1.3828511694492305	1.3833217481758295	1.383401022362831	1.3831852535230225	49.0	255.0	11111110.0	
0.0039821480756385905	-2.1647325204008617e-05	0.003986955164307971	1.382615731074301	1.3828472951468582	1.3833151916641226	1.3833959559674212	1.3831798891043532	50.0	255.0	11111110.0	
0.003980194004875198	-2.1574844457423493e-05	0.003983080861935718	1.3826151350277822	1.3828466991003394	1.3833160857339009	1.3833959559674212	1.3831813792206502	51.0	255.0	11111110.0	
0.00398053788825827	-2.1502423062497325e-05	0.0039809946991198894	1.382615731074301	1.3828452089840424	1.383316979803679	1.3833944658511241	1.3831816772439096	52.0	255.0	11111110.0	
0.003979223230554849	-2.143006101866509e-05	0.003977120396747636	1.3826154330510416	1.3828446129375236	1.3833145956176038	1.3833941678278647	1.383181975267169	53.0	255.0	11111110.0	
0.003978072563809858	-2.13577583250207e-05	0.003973544117634787	1.3826085785160753	1.382837460379298	1.3833083371291564	1.3833873132928984	1.3831766108484997	54.0	255.0	11111110.0	
0.003976469494447507	-2.1285514980317464e-05	0.003969967838521938	1.3825963595624398	1.382822857239587	1.3832961181755208	1.3833733061997064	1.3831643918948642	55.0	255.0	11111110.0	
0.003977010308177518	-2.1213330982968482e-05	0.00396937179200313	1.3826058963067407	1.3828332880536662	1.3833083371291564	1.3833828429440074	1.3831748227089433	56.0	255.0	11111110.0	
0.003977879040767856	-2.1141206331047093e-05	0.003970265861781342	1.3826023200276278	1.3828303078210722	1.3833017806174495	1.3833801607346727	1.3831685642204958	57.0	255.0	11111110.0	
0.003979583305700189	-2.106914102228732e-05	0.003973246094375383	1.3826058963067407	1.382832393983888	1.3833035687570059	1.383382544920748	1.3831712464298305	58.0	255.0	11111110.0	
0.003977973335688204	-2.0997135054084292e-05	0.003973842140894191	1.3826011279345902	1.3828306058443316	1.3832990984081148	1.3833771805020787	1.3831685642204958	59.0	255.0	11111110.0	
0.003976537767909082	-2.0925188423494672e-05	0.003975034233931808	1.3826026180508872	1.382833884100185	1.383302972710487	1.3833804587579321	1.3831697563135334	60.0	255.0	11111110.0	
0.003976733269894253	-2.0853301127237107e-05	0.0039780144665258485	1.382615731074301	1.3828475931701176	1.3833163837571603	1.3833944658511241	1.383183465383466	61.0	255.0	11111110.0	
0.003976498407054038	-2.078147316169266e-05	0.003980398652601081	1.3826115587486694	1.382841930728189	1.383309529222194	1.383389995502233	1.3831772068950186	62.0	255.0	11111110.0	
0.003976518246201337	-2.0709704522905267e-05	0.00398248481541691	1.3826163271208198	1.3828481892166364	1.3833172778269385	1.3833989362000152	1.3831828693369472	63.0	255.0	11111110.0	
0.003964170128506495	-2.0637995206582165e-05	0.003970563885040746	1.382603214097406	1.3828320959606286	1.383305058873303	1.3833813528277104	1.3831712464298305	72.0	255.0	11111110.0	
0.003966819408019512	-2.056634520809432e-05	0.003972054001337767	1.3826020220043684	1.3828297117745534	1.3833026746872277	1.3833798627114133	1.3831685642204958	73.0	255.0	11111110.0	
0.003968808882898392	-2.049475452247689e-05	0.003972352024597171	1.3826091745625941	1.3828377584025573	1.3833098272454534	1.3833867172463796	1.3831766108484997	74.0	255.0	11111110.0	
0.003975004247086956	-2.0423223144429652e-05	0.003976822373488232	1.3826070883997783	1.3828371623560385	1.3833059529430811	1.3833849291068232	1.383176014801981	75.0	255.0	11111110.0	
0.0039832154188683055	-2.035175106831745e-05	0.00398397493171393	1.3826038101439249	1.3828335860769256	1.383302972710487	1.3833831409672668	1.383173034569387	76.0	255.0	11111110.0	
0.003973950996851934	-2.0280338288170665e-05	0.003973544117634787	1.3826124528184476	1.3828380564258167	1.3833119134082692	1.383389995502233	1.3831769088717591	70.0	255.0	11111110.0	
0.003973245240157065	-2.0208984797685643e-05	0.0039711599315595545	1.3826091745625941	1.382837460379298	1.3833104232919722	1.3833891014324549	1.3831754187554621	71.0	255.0	11111110.0	
0.003973988980840651	-2.0137690590225153e-05	0.003970563885040746	1.382603214097406	1.3828320959606286	1.383305058873303	1.3833813528277104	1.3831712464298305	72.0	255.0	11111110.0	
0.003976108991826004	-2.0066455658818833e-05	0.003972054001337767	1.3826020220043684	1.3828297117745534	1.3833026746872277	1.3833798627114133	1.3831685642204958	73.0	255.0	11111110.0	
0.003976271262405693	-1.9995279996163642e-05	0.003972352024597171	1.3826091745625941	1.3828377584025573	1.3833098272454534	1.3833867172463796	1.3831766108484997	74.0	255.0	11111110.0	
0.003979773745179185	-1.992416359462431e-05	0.003976822373488232	1.3826070883997783	1.3828371623560385	1.3833059529430811	1.3833849291068232	1.383176014801981	75.0	255.0	11111110.0	
0.0039849428773524485	-1.98531064462338e-05	0.00398397493171393	1.3826038101439249	1.3828335860769256	1.383302972710487	1.3833831409672668	1.383173034569387	76.0	255.0	11111110.0	
0.003982874162018103	-1.9782108542693762e-05	0.003984272954973334	1.3825820544459884	1.3828145125883238	1.383284495268404	1.383362577362368	1.3831500867784128	77.0	255.0	11111110.0	
0.0039820587503619845	-1.971116987537498e-05	0.003985465048010951	1.382594273399624	1.3828246453791435	1.3832949260824832	1.3833736042229658	1.3831599215459731	78.0	255.0	11111110.0	
0.003982375770893252	-1.964029043531782e-05	0.003987253187567375	1.3826076844462971	1.3828398445653731	1.3833101252687128	1.3833891014324549	1.3831763128252403	79.0	255.0	11111110.0	
0.003981958102056904	-1.9569470213232715e-05	0.003987551210826779	1.382604704213703	1.382840440611892	1.3833098272454534	1.3833891014324549	1.3831754187554621	80.0	255.0	11111110.0	
0.00398129674049564	-1.9498709199500608e-05	0.003986657141048567	1.3826026180508872	1.3828365663095197	1.3833065489896	1.3833873132928984	1.3831733325926463	81.0	255.0	11111110.0	
0.003982089457656339	-1.942800738417341e-05	0.003986359117789163	1.382612750841707	1.3828452089840424	1.383315489687382	1.38339655201394	1.3831825713136878	82.0	255.0	11111110.0	
0.003981217305699603	-1.9357364756974467e-05	0.003983676908454526	1.3826118567719288	1.3828437188677454	1.3833134035245662	1.383395061897643	1.3831828693369472	83.0	255.0	11111110.0	
0.00397919074681813	-1.9286781307299024e-05	0.003979206559563465	1.3826148370045228	1.3828461030538206	1.383315489687382	1.3833941678278647	1.3831837634067254	84.0	255.0	11111110.0	
0.003979449742210182	-1.921625702421469e-05	0.003976822373488232	1.38261126072541	1.3828422287514484	1.3833119134082692	1.3833902935254925	1.3831783989880562	85.0	255.0	11111110.0	
0.003978815740513576	-1.9145791896461895e-05	0.003973842140894191	1.382600233864812	1.3828320959606286	1.3833026746872277	1.3833804587579321	1.383169458290274	86.0	255.0	11111110.0	
0.003977322602063465	-1.9075385912454356e-05	0.003970563885040746	1.3825996378182932	1.382829413751294	1.3833023766639683	1.383378074571857	1.3831691602670146	87.0	255.0	11111110.0	
0.003975358875697396	-1.900503906027955e-05	0.003967583652446705	1.3825912931670299	1.3828186849139554	1.3832934359661861	1.3833697299205936	1.3831602195692325	88.0	255.0	11111110.0	
0.003975055205661366	-1.8934751327699178e-05	0.003967285629187301	1.3825960615391804	1.382822857239587	1.3832946280592238	1.3833724121299282	1.3831643918948642	89.0	255.0	11111110.0	
0.0039759027631224644	-1.886452270214964e-05	0.00396937179200313	1.382609770609113	1.382835374216482	1.3833086351524158	1.383387015269639	1.383176014801981	90.0	255.0	11111110.0	
0.003974541176974286	-1.87943531707425e-05	0.003970265861781342	1.3825948694461427	1.3828237513093653	1.3832961181755208	1.38337151806015	1.3831626037553078	91.0	255.0	11111110.0	
0.003972931973879764	-1.872424272026495e-05	0.0039714579548189586	1.3825728157249468	1.382800803518391	1.3832737664310655	1.3833521465482888	1.3831402520108524	92.0	255.0	11111110.0	
0.003972336638907463	-1.865419133718029e-05	0.003973842140894191	1.3825814583994696	1.382810340262692	1.38328151503581	1.383362577362368	1.3831482986388564	93.0	255.0	11111110.0	
0.003971659716882235	-1.8584199007628397e-05	0.00397592830371002	1.3825903990972517	1.3828210691000307	1.3832919458498891	1.3833724121299282	1.3831587294529355	94.0	255.0	11111110.0	
0.003972436773636056	-1.8514265717426204e-05	0.003978908536304061	1.382581756422729	1.3828136185185456	1.3832818130590694	1.3833613852693303	1.3831491927086346	95.0	255.0	11111110.0	
0.003971744662298165	-1.844439145206817e-05	0.003979504582822869	1.382583246539026	1.3828142145650644	1.3832833031753664	1.3833631734088867	1.3831497887551534	96.0	255.0	11111110.0	
0.003973332385265823	-1.8374576196726756e-05	0.0039812927223792935	1.3825859287483606	1.382819877006993	1.3832871774777387	1.383368537827556	1.3831518749179692	97.0	255.0	11111110.0	
0.003977540982065095	-1.8304819936252916e-05	0.003984869001492143	1.3825754979342815	1.3828133204952862	1.3832797268962536	1.3833601931762927	1.3831432322434465	98.0	255.0	11111110.0	
0.003980613417249872	-1.823512265517657e-05	0.003986657141048567	1.3825743058412439	1.382809744216173	1.3832773427101783	1.3833563188739204	1.3831411460806307	99.0	255.0	11111110.0	
0.003981946570058846	-1.8165484337707076e-05	0.003986061094529759	1.3825749018877627	1.3828064659603196	1.3832752565473625	1.3833551267808828	1.3831396559643336	100.0	255.0	11111110.0	
0.003984564998631949	-1.809590496773372e-05	0.003986359117789163	1.3825889089809547	1.3828216651465495	1.3832901577103327	1.383370027943853	1.3831563452668603	101.0	255.0	11111110.0	
0.003985748967172305	-1.8026384528826203e-05	0.003985167024751547	1.3825814583994696	1.3828130224720268	1.3832812170125506	1.3833607892228115	1.3831482986388564	102.0	255.0	11111110.0	
0.003983936804051227	-1.7956923004235104e-05	0.0039809946991198894	1.3825871208413982	1.3828148106115832	1.3832871774777387	1.3833643655019243	1.383153961080785	103.0	255.0	11111110.0	
0.003984209294409959	-1.7887520376892384e-05	0.003979206559563465	1.3825996378182932	1.3828282216582564	1.3833002905011524	1.383377478525338	1.3831697563135334	104.0	255.0	11111110.0	
0.0039879904850623794	-1.7818176629411873e-05	0.003981888768898102	1.3826026180508872	1.3828317979373692	1.383302972710487	1.383381054804451	1.3831736306159057	105.0	255.0	11111110.0	
0.0039899196795980625	-1.7748891744089758e-05	0.00398397493171393	1.382600233864812	1.3828300097978128	1.3833011845709307	1.3833777765485975	1.3831688622437552	106.0	255.0	11111110.0	
0.003988251320355803	-1.767966570290507e-05	0.003983378885195122	1.3825895050274735	1.3828165987511396	1.3832892636405545	1.3833667496879996	1.3831581334064167	107.0	255.0	11111110.0	
0.003987758625750503	-1.7610498487520175e-05	0.0039845709782327385	1.382594273399624	1.3828231552628465	1.3832952241057426	1.3833703259671124	1.3831617096855295	108.0	255.0	11111110.0	
0.003987973880783306	-1.754139007928126e-05	0.003986955164307971	1.382592783283327	1.382823453286106	1.3832961181755208	1.38337151806015	1.3831614116622701	109.0	255.0	11111110.0	
0.003987150921574402	-1.7472340459218833e-05	0.003988445280604992	1.3825895050274735	1.382819877006993	1.3832907537568515	1.3833697299205936	1.383156941313379	110.0	255.0	11111110.0	
0.003987700065055609	-1.740334960804822e-05	0.0039911274899396285	1.382594273399624	1.3828258374721811	1.3832946280592238	1.3833747963160035	1.383163497825086	111.0	255.0	11111110.0	
0.003989476795442386	-1.733441750617004e-05	0.003994703769052478	1.382592187236808	1.3828258374721811	1.383294032012705	1.3833747963160035	1.383163497825086	112.0	255.0	11111110.0	
0.00399230067281073	-1.726554413367073e-05	0.003998876094684136	1.3825898030507329	1.3828225592163277	1.3832916478266297	1.3833733061997064	1.3831581334064167	113.0	255.0	11111110.0	
0.003992585612779792	-1.7196729470323013e-05	0.003999770164462348	1.3825918892135487	1.3828258374721811	1.3832934359661861	1.3833753923625223	1.3831596235227137	114.0	255.0	11111110.0	
0.003990727160707055	-1.712797349558643e-05	0.003997385978387114	1.3825769880505785	1.382810340262692	1.383278534803216	1.3833587030599956	1.383144424336484	115.0	255.0	11111110.0	
0.00399225516754613	-1.70592761886078e-05	0.003997385978387114	1.3825763920040597	1.3828115323557295	1.3832788328264753	1.383357510966958	1.383143530266706	116.0	255.0	11111110.0	
0.003993207545082143	-1.6990637528221734e-05	0.003996193885349498	1.3825868228181388	1.38282136712329	1.3832892636405545	1.383368537827556	1.3831542591040444	117.0	255.0	11111110.0	
0.003991965446345756	-1.6922057492951167e-05	0.003992319582977245	1.3825895050274735	1.3828216651465495	1.3832922438731485	1.3833712200368906	1.3831581334064167	118.0	255.0	11111110.0	
0.003990965174138113	-1.685353606100781e-05	0.003988445280604992	1.3825981477019962	1.3828285196815158	1.3832988003848554	1.3833783725951163	1.383164987941383	119.0	255.0	11111110.0	
0.003990356344524562	-1.678507321029269e-05	0.003985167024751547	1.3825933793298457	1.3828219631698089	1.383292541896408	1.383373008176447	1.3831611136390107	120.0	255.0	11111110.0	
0.003991408395714576	-1.671666891839664e-05	0.003984272954973334	1.3825951674694021	1.382822857239587	1.383295522129002	1.3833736042229658	1.3831623057320483	121.0	255.0	11111110.0	
0.003988042556794014	-1.6648323162600816e-05	0.003979802606082273	1.3825912931670299	1.3828192809604742	1.3832934359661861	1.383368537827556	1.3831602195692325	122.0	255.0	11111110.0	
0.003986514463367796	-1.6580035919877194e-05	0.0039780144665258485	1.3825915911902893	1.3828195789837336	1.3832916478266297	1.3833676437577778	1.383158431429676	123.0	255.0	11111110.0	
0.00398879987535868	-1.651180716688908e-05	0.0039812927223792935	1.382601723981109	1.3828297117745534	1.3833020786407089	1.3833771805020787	1.383167968173977	124.0	255.0	11111110.0	
0.003989502141023749	-1.6443636879991624e-05	0.003984272954973334	1.3825969556089586	1.3828276256117376	1.383298502361596	1.3833756903857817	1.3831640938716048	125.0	255.0	11111110.0	
0.003989924872394359	-1.6375525035232323e-05	0.0039878492340861835	1.382597253632218	1.3828297117745534	1.3833005885244118	1.3833792666648945	1.3831661800344206	126.0	255.0	11111110.0	
0.003985186467150242	-1.6307471608351528e-05	0.003986359117789163	1.382594273399624	1.3828273275884782	1.3832988003848554	1.3833777765485975	1.3831640938716048	127.0	255.0	11111110.0	
0.003982517407299558	-1.623947657478297e-05	0.003986359117789163	1.3825903990972517	1.382822857239587	1.3832949260824832	1.3833736042229658	1.383160517592492	128.0	255.0	11111110.0	
0.003984851715436471	-1.6171539909654262e-05	0.003990829466680224	1.3825886109576953	1.3828246453791435	1.3832916478266297	1.38337151806015	1.383158431429676	129.0	255.0	11111110.0	
0.003984317837116451	-1.6103661587787417e-05	0.003991723536458437	1.3825826504925072	1.3828171947976584	1.3832833031753664	1.383365557594962	1.3831500867784128	130.0	255.0	11111110.0	
0.003983419583943807	-1.6035841583699368e-05	0.0039911274899396285	1.3825930813065863	1.3828288177047752	1.3832961181755208	1.383378074571857	1.3831596235227137	131.0	255.0	11111110.0	
0.003983100835790656	-1.596807987160248e-05	0.003989935396902012	1.3825981477019962	1.3828329900304068	1.3833017806174495	1.3833813528277104	1.383163497825086	132.0	255.0	11111110.0	
0.003983193411461023	-1.5900376425405068e-05	0.003988147257345588	1.3826011279345902	1.3828341821234444	1.3833023766639683	1.3833831409672668	1.3831676701507176	133.0	255.0	11111110.0	
0.003982849389808207	-1.583273121871192e-05	0.003985167024751547	1.3826145389812634	1.3828487852631552	1.383315489687382	1.3833953599209023	1.3831813792206502	134.0	255.0	11111110.0	
0.003982058845563509	-1.5765144224824807e-05	0.0039812927223792935	1.382609770609113	1.3828428247979672	1.383311019338491	1.383393571781346	1.3831778029415374	135.0	255.0	11111110.0	
0.003981870623688753	-1.5697615416743003e-05	0.0039780144665258485	1.3826050022369625	1.382836864332779	1.3833068470128593	1.3833861211998608	1.3831721404996087	136.0	255.0	11111110.0	
0.003979559534173838	-1.5630144767163814e-05	0.003972948071115979	1.3825915911902893	1.3828219631698089	1.3832913498033703	1.3833706239903718	1.3831581334064167	137.0	255.0	11111110.0	
0.003978093594902386	-1.5562732248483092e-05	0.00396937179200313	1.3825903990972517	1.3828201750302525	1.383292541896408	1.383370027943853	1.3831572393366385	138.0	255.0	11111110.0	
0.003979603711846476	-1.5495377832795768e-05	0.003969967838521938	1.3825951674694021	1.3828216651465495	1.3832946280592238	1.3833736042229658	1.383162007708789	139.0	255.0	11111110.0	
0.003981902187429883	-1.5428081491896376e-05	0.003972948071115979	1.382598743748515	1.3828273275884782	1.38330148259419	1.3833777765485975	1.3831682661972364	140.0	255.0	11111110.0	
0.00398214400916591	-1.5360843197279575e-05	0.003975332257191212	1.38261126072541	1.3828425267747078	1.3833160857339009	1.383393571781346	1.3831822732904284	141.0	255.0	11111110.0	
0.003980271652223415	-1.529366292014066e-05	0.003976524350228828	1.3826085785160753	1.3828380564258167	1.383312509454788	1.3833908895720113	1.3831783989880562	142.0	255.0	11111110.0	
0.003979179003718919	-1.5226540631376114e-05	0.003978908536304061	1.38260619433	1.3828380564258167	1.383308039105897	1.3833879093394172	1.3831736306159057	143.0	255.0	11111110.0	
0.003981756221790082	-1.5159476301584118e-05	0.003985167024751547	1.382592783283327	1.3828273275884782	1.3832952241057426	1.3833753923625223	1.3831617096855295	144.0	255.0	11111110.0	
0.003981045326536819	-1.5092469901065088e-05	0.0039878492340861835	1.3825823524692478	1.3828174928209178	1.3832871774777387	1.3833661536414807	1.3831521729412286	145.0	255.0	11111110.0	
0.003982380528203146	-1.5025521399822204e-05	0.003991723536458437	1.3825963595624398	1.3828329900304068	1.3832996944546336	1.3833807567811915	1.38316647805768	146.0	255.0	11111110.0	
0.003981950357784931	-1.4958630767561951e-05	0.003992617606236649	1.3825903990972517	1.3828282216582564	1.3832943300359644	1.3833771805020787	1.383162007708789	147.0	255.0	11111110.0	
0.0039829688746853735	-1.4891797973694634e-05	0.003993511676014861	1.3825936773531051	1.3828291157280346	1.3832952241057426	1.3833786706183757	1.3831626037553078	148.0	255.0	11111110.0	
0.003983313071580015	-1.4825022987334913e-05	0.003992319582977245	1.3826023200276278	1.3828392485188543	1.383302972710487	1.3833882073626766	1.383169458290274	149.0	255.0	11111110.0	
0.003982327129042704	-1.4758305777302338e-05	0.003988445280604992	1.3825975516554774	1.3828341821234444	1.3833011845709307	1.3833828429440074	1.3831676701507176	150.0	255.0	11111110.0	
0.003984296632382288	-1.4691646312121893e-05	0.003986657141048567	1.3825939753763645	1.3828270295652187	1.3832961181755208	1.383375988409041	1.3831611136390107	151.0	255.0	11111110.0	
0.0039850191241873195	-1.4625044560024515e-05	0.003983378885195122	1.3825859287483606	1.3828192809604742	1.3832892636405545	1.383368537827556	1.383153961080785	152.0	255.0	11111110.0	
0.003986072685571858	-1.4558500488947644e-05	0.003980696675860485	1.3825903990972517	1.3828231552628465	1.3832916478266297	1.3833721141066688	1.3831599215459731	153.0	255.0	11111110.0	
0.003986632444023735	-1.4492014066535749e-05	0.003978312489785253	1.3826058963067407	1.3828377584025573	1.3833074430593781	1.383388505385936	1.383176014801981	154.0	255.0	11111110.0	
0.003986070398212931	-1.442558526014087e-05	0.00397592830371002	1.3826070883997783	1.3828392485188543	1.3833116153850098	1.383388505385936	1.383176014801981	155.0	255.0	11111110.0	
0.00398874059916517	-1.4359214036823165e-05	0.003978312489785253	1.3826064923532595	1.3828356722397415	1.3833086351524158	1.3833846310835638	1.3831742266624245	156.0	255.0	11111110.0	
0.0039902619764229175	-1.4292900363351434e-05	0.0039812927223792935	1.382617221190598	1.3828475931701176	1.383319065966495	1.3833956579441617	1.383187935732357	157.0	255.0	11111110.0	
0.003990089240793473	-1.4226644206203672e-05	0.00398397493171393	1.3826181152603763	1.3828481892166364	1.3833181718967167	1.3833983401534964	1.3831858495695413	158.0	255.0	11111110.0	
0.003985145644741112	-1.4160445531567605e-05	0.00398248481541691	1.3826085785160753	1.3828380564258167	1.3833083371291564	1.3833879093394172	1.3831742266624245	159.0	255.0	11111110.0	
0.003984315486886398	-1.4094304305341238e-05	0.003985167024751547	1.3826070883997783	1.382837460379298	1.3833065489896	1.383385525153342	1.383173928639165	160.0	255.0	11111110.0	
0.003982823857500869	-1.4028220493133382e-05	0.003986955164307971	1.3825969556089586	1.3828285196815158	1.3832988003848554	1.383377478525338	1.383163497825086	161.0	255.0	11111110.0	
0.003980636585453983	-1.3962194060264209e-05	0.003987253187567375	1.3825874188646576	1.382822857239587	1.3832916478266297	1.3833721141066688	1.3831551531738226	162.0	255.0	11111110.0	
0.00398042524996519	-1.3896224971765796e-05	0.003988445280604992	1.3825838425855448	1.3828189829372148	1.3832868794544793	1.383370027943853	1.3831521729412286	163.0	255.0	11111110.0	
0.003979630656242747	-1.3830313192382666e-05	0.0039878492340861835	1.382569239445834	1.382805273867282	1.3832707861984714	1.383354530734364	1.383136973754999	164.0	255.0	11111110.0	
0.003982276203890302	-1.3764458686572339e-05	0.003989637373642608	1.382580266306432	1.3828151086348426	1.3832812170125506	1.3833637694554055	1.3831471065458187	165.0	255.0	11111110.0	
0.003983626067960605	-1.369866141850587e-05	0.003989339350383204	1.3825865247948794	1.3828201750302525	1.3832886675940357	1.3833697299205936	1.3831515768947098	166.0	255.0	11111110.0	
0.00398640394655336	-1.3632921352068408e-05	0.003989935396902012	1.3825799682831725	1.3828142145650644	1.3832818130590694	1.3833637694554055	1.383145020383003	167.0	255.0	11111110.0	
0.003986214290340049	-1.3567238450859736e-05	0.003987253187567375	1.3825793722366537	1.3828121284022483	1.3832791308497348	1.3833595971297739	1.3831426361969277	168.0	255.0	11111110.0	
0.003988959839880063	-1.3501612678194823e-05	0.003987551210826779	1.3825874188646576	1.3828216651465495	1.383290455733592	1.383368537827556	1.383153961080785	169.0	255.0	11111110.0	
0.003987519895070314	-1.3436043997104374e-05	0.00398397493171393	1.3825838425855448	1.3828177908441772	1.3832865814312199	1.383365557594962	1.3831521729412286	170.0	255.0	11111110.0	
0.0039863264303350455	-1.3370532370335389e-05	0.0039809946991198894	1.382583246539026	1.3828136185185456	1.3832833031753664	1.383361981315849	1.3831506828249316	171.0	255.0	11111110.0	
0.003986257138668504	-1.3305077760351701e-05	0.003979802606082273	1.382590697120511	1.3828195789837336	1.3832916478266297	1.383367047711259	1.383156941313379	172.0	255.0	11111110.0	
0.003986766244395701	-1.323968012933453e-05	0.003980100629341677	1.3826055982834813	1.382833884100185	1.3833092311989346	1.3833846310835638	1.3831733325926463	173.0	255.0	11111110.0	
0.0039869263677908395	-1.3174339439183046e-05	0.0039809946991198894	1.3826106646788912	1.3828416327049295	1.3833172778269385	1.38339148561853	1.3831798891043532	174.0	255.0	11111110.0	
0.003984923489855071	-1.3109055651514919e-05	0.003980398652601081	1.3825820544459884	1.3828157046813614	1.3832880715475169	1.383364067478665	1.383152470964488	175.0	255.0	11111110.0	
0.003985134718153481	-1.304382872766686e-05	0.00398248481541691	1.3825912931670299	1.3828246453791435	1.383295522129002	1.3833724121299282	1.3831608156157513	176.0	255.0	11111110.0	
0.003985861180303425	-1.297865862869519e-05	0.003985465048010951	1.382590697120511	1.382822857239587	1.3832937339894456	1.3833718160834094	1.3831578353831573	177.0	255.0	11111110.0	
0.003985083679622577	-1.29135453153764e-05	0.003986955164307971	1.3825912931670299	1.3828270295652187	1.3832922438731485	1.3833750943392629	1.383160517592492	178.0	255.0	11111110.0	
0.003986346339431915	-1.2848488748207697e-05	0.003990233420161416	1.3825901010739923	1.3828264335187	1.383292541896408	1.3833742002694847	1.383159027476195	179.0	255.0	11111110.0	
0.003986005910268086	-1.2783488887407568e-05	0.003991425513199033	1.3825889089809547	1.382824943402403	1.3832946280592238	1.3833750943392629	1.3831581334064167	180.0	255.0	11111110.0	
0.003986114740141083	-1.2718545692916334e-05	0.003992319582977245	1.382578180143616	1.382813916541805	1.3832833031753664	1.383364067478665	1.3831474045690781	181.0	255.0	11111110.0	
0.003986704582004822	-1.265365912439671e-05	0.003992915629496053	1.382567749329537	1.382805273867282	1.3832737664310655	1.3833533386413264	1.3831363777084802	182.0	255.0	11111110.0	
0.0039874228314273705	-1.2588829141234363e-05	0.003992915629496053	1.3825731137482062	1.3828061679370602	1.3832776407334377	1.3833557228274016	1.383139953987593	183.0	255.0	11111110.0	
0.003988709652041204	-1.2524055702538479e-05	0.003992915629496053	1.382592783283327	1.3828237513093653	1.3832952241057426	1.3833724121299282	1.3831581334064167	184.0	255.0	11111110.0	
0.003986965534690927	-1.245933876714231e-05	0.003989339350383204	1.3826008299113308	1.3828306058443316	1.3833017806174495	1.3833804587579321	1.3831685642204958	185.0	255.0	11111110.0	
0.003986813213894422	-1.2394678293603737e-05	0.003986955164307971	1.3826053002602219	1.382835374216482	1.383304462826784	1.3833867172463796	1.3831736306159057	186.0	255.0	11111110.0	
0.0039875150691852344	-1.2330074240205843e-05	0.003985465048010951	1.3825978496787368	1.3828282216582564	1.3832979063150772	1.3833771805020787	1.3831655839879018	187.0	255.0	11111110.0	
0.00398786392481698	-1.2265526564957468e-05	0.00398397493171393	1.3825918892135487	1.3828219631698089	1.3832937339894456	1.3833703259671124	1.3831581334064167	188.0	255.0	11111110.0	
0.00398572557989817	-1.2201035225593774e-05	0.003980398652601081	1.382589207004214	1.3828192809604742	1.3832898596870733	1.3833691338740748	1.3831560472436009	189.0	255.0	11111110.0	
0.003984883656896317	-1.2136600179576817e-05	0.003978610513044657	1.3825790742133943	1.38281123433247	1.383280024919513	1.3833592991065145	1.3831477025923375	190.0	255.0	11111110.0	
0.003985363910486072	-1.2072221384096103e-05	0.003978908536304061	1.3825859287483606	1.3828160027046208	1.3832850913149228	1.3833637694554055	1.3831536630575256	191.0	255.0	11111110.0	
0.003988387627308873	-1.2007898796069154e-05	0.003982782838676314	1.3825859287483606	1.3828151086348426	1.3832865814312199	1.383364067478665	1.3831512788714504	192.0	255.0	11111110.0	
0.003990098621192846	-1.1943632372142075e-05	0.003986359117789163	1.3825889089809547	1.3828174928209178	1.3832886675940357	1.383367047711259	1.3831551531738226	193.0	255.0	11111110.0	
0.003988348863174528	-1.1879422068690119e-05	0.003986955164307971	1.3825856307251012	1.3828177908441772	1.3832877735242575	1.3833673457345184	1.383153961080785	194.0	255.0	11111110.0	
0.00398832370570793	-1.1815267841818262e-05	0.003989339350383204	1.3825850346785824	1.3828192809604742	1.3832877735242575	1.3833688358508154	1.3831542591040444	195.0	255.0	11111110.0	
0.003989550797491864	-1.1751169647361764e-05	0.003992915629496053	1.3825886109576953	1.3828261354954405	1.3832937339894456	1.3833753923625223	1.383158431429676	196.0	255.0	11111110.0	
0.003988237757295493	-1.1687127440886743e-05	0.003993511676014861	1.3825954654926615	1.3828312018908504	1.383299992477893	1.3833807567811915	1.3831626037553078	197.0	255.0	11111110.0	
0.003984643424089807	-1.1623141177690734e-05	0.003990829466680224	1.3825912931670299	1.3828297117745534	1.3832958201522614	1.383377478525338	1.3831593254994543	198.0	255.0	11111110.0	
0.003981967125761156	-1.1559210812803262e-05	0.0039878492340861835	1.3825936773531051	1.3828317979373692	1.3832973102685584	1.3833786706183757	1.3831614116622701	199.0	255.0	11111110.0	
0.0039811906702561335	-1.1495336300986429e-05	0.003985763071270355	1.3825963595624398	1.3828332880536662	1.383299992477893	1.3833804587579321	1.3831646899181236	200.0	255.0	11111110.0	
0.003982198750797234	-1.1431517596735466e-05	0.003984869001492143	1.3825930813065863	1.3828273275884782	1.383295522129002	1.3833786706183757	1.383162007708789	201.0	255.0	11111110.0	
0.003982283890614563	-1.1367754654279317e-05	0.003982782838676314	1.3825993397950338	1.382830903867591	1.383299992477893	1.3833834389905262	1.3831697563135334	202.0	255.0	11111110.0	
0.003973716869486065	-1.130404742758121e-05	0.0039714579548189586	1.3825152972358818	1.3827471593316982	1.383218036081557	1.3832961181755208	1.383085415731122	203.0	255.0	11111110.0	
0.0039759798280361944	-1.1240395870339223e-05	0.00397086190830015	1.3825608947945707	1.3827933529369059	1.3832657198030616	1.3833417157342096	1.3831301192200327	204.0	255.0	11111110.0	
0.0039787312113043856	-1.1176799935986879e-05	0.003971755978078363	1.382583246539026	1.3828142145650644	1.3832850913149228	1.3833622793391085	1.3831512788714504	205.0	255.0	11111110.0	
0.003983329613660191	-1.1113259577693704e-05	0.00397592830371002	1.382592783283327	1.382824347355884	1.3832937339894456	1.3833712200368906	1.3831614116622701	206.0	255.0	11111110.0	
0.003985268360825028	-1.1049774748365804e-05	0.003978908536304061	1.3825918892135487	1.38282136712329	1.3832937339894456	1.3833712200368906	1.383158431429676	207.0	255.0	11111110.0	
0.003983866125679218	-1.098634540064646e-05	0.003979504582822869	1.3825963595624398	1.3828276256117376	1.3832988003848554	1.3833747963160035	1.3831626037553078	208.0	255.0	11111110.0	
0.003985673816239091	-1.0922971486916684e-05	0.00398397493171393	1.3826085785160753	1.3828386524723355	1.3833113173617504	1.3833888034091955	1.3831769088717591	209.0	255.0	11111110.0	
0.003984501683061816	-1.0859652959295813e-05	0.003985763071270355	1.382614240958004	1.38284640107708	1.3833175758501979	1.3833971480604588	1.3831828693369472	210.0	255.0	11111110.0	
0.003983071463022507	-1.0796389769642085e-05	0.003986955164307971	1.3826225856092673	1.3828565338678998	1.3833262185247206	1.383405492711722	1.3831894258486541	211.0	255.0	11111110.0	
0.003981503076977973	-1.073318186955322e-05	0.003987253187567375	1.3826175192138574	1.3828499773561929	1.3833196620130137	1.383399532246534	1.383183465383466	212.0	255.0	11111110.0	
0.003979241915831907	-1.0670029210367001e-05	0.003985763071270355	1.3826035121206655	1.3828392485188543	1.3833041648035247	1.383387015269639	1.383170948406571	213.0	255.0	11111110.0	
0.003979572489778107	-1.0606931743161849e-05	0.003985763071270355	1.3826100686323723	1.3828484872398958	1.3833122114315286	1.3833959559674212	1.383178995034575	214.0	255.0	11111110.0	
0.0039801810959433186	-1.0543889418757415e-05	0.003985167024751547	1.3826136449114852	1.3828487852631552	1.3833148936408632	1.3833962539906806	1.3831801871276126	215.0	255.0	11111110.0	
0.003981420031942245	-1.0480902187715143e-05	0.0039845709782327385	1.382601723981109	1.3828356722397415	1.3833026746872277	1.383385525153342	1.3831673721274582	216.0	255.0	11111110.0	
0.003984624791824899	-1.0417970000338876e-05	0.003985763071270355	1.3826091745625941	1.3828437188677454	1.3833116153850098	1.3833944658511241	1.3831763128252403	217.0	255.0	11111110.0	
0.003984214916641325	-1.035509280667542e-05	0.003983378885195122	1.3826100686323723	1.3828443149142642	1.3833119134082692	1.3833929757348271	1.3831781009647968	218.0	255.0	11111110.0	
0.003981739787332154	-1.0292270556515142e-05	0.003978908536304061	1.3826058963067407	1.3828401425886325	1.3833077410826375	1.383389995502233	1.3831754187554621	219.0	255.0	11111110.0	
0.003981382681954148	-1.0229503199392551e-05	0.003976822373488232	1.382604704213703	1.3828320959606286	1.3833035687570059	1.3833837370137856	1.3831718424763493	220.0	255.0	11111110.0	
0.0039812610239140945	-1.0166790684586885e-05	0.003975630280450616	1.38261126072541	1.3828386524723355	1.3833128074780474	1.3833882073626766	1.3831778029415374	221.0	255.0	11111110.0	
0.003981205322642257	-1.0104132961122696e-05	0.003975332257191212	1.3826121547951882	1.3828392485188543	1.3833119134082692	1.3833905915487519	1.3831763128252403	222.0	255.0	11111110.0	
0.0039828604952775615	-1.0041529977770436e-05	0.0039777164432664444	1.3826210954929703	1.3828484872398958	1.3833208541060513	1.3834019164326092	1.3831870416625789	223.0	255.0	11111110.0	
0.004001232399073041	-9.978981683047044e-06	0.003998876094684136	1.3825963595624398	1.382829413751294	1.3832990984081148	1.3833801607346727	1.3831626037553078	232.0	255.0	11111110.0	
0.003994294787531941	-9.916488025216538e-06	0.003995895862090094	1.3826023200276278	1.3828356722397415	1.3833071450361187	1.3833864192231202	1.383167968173977	233.0	255.0	11111110.0	
0.0039885924991623824	-9.854048952290603e-06	0.003993213652755457	1.3826053002602219	1.3828350761932227	1.3833056549198217	1.3833849291068232	1.3831715444530899	234.0	255.0	11111110.0	
0.003980828803134311	-9.79166441202918e-06	0.003986955164307971	1.3826085785160753	1.3828401425886325	1.3833104232919722	1.383387015269639	1.3831763128252403	235.0	255.0	11111110.0	
0.003975469479624989	-9.729334351941051e-06	0.0039812927223792935	1.3826085785160753	1.3828422287514484	1.3833145956176038	1.3833882073626766	1.3831769088717591	236.0	255.0	11111110.0	
0.003989897481384131	-9.667058719284437e-06	0.003995001792311882	1.3826091745625941	1.3828443149142642	1.3833089331756752	1.3833908895720113	1.3831748227089433	230.0	255.0	11111110.0	
0.00399331924231866	-9.604837461067588e-06	0.003997982024905923	1.3826038101439249	1.3828377584025573	1.3833038667802653	1.383385525153342	1.3831703523600523	231.0	255.0	11111110.0	
0.003995059875823574	-9.542670524049376e-06	0.003998876094684136	1.3825963595624398	1.382829413751294	1.3832990984081148	1.3833801607346727	1.3831626037553078	232.0	255.0	11111110.0	
0.0039934956677656515	-9.480557854739891e-06	0.003995895862090094	1.3826023200276278	1.3828356722397415	1.3833071450361187	1.3833864192231202	1.383167968173977	233.0	255.0	11111110.0	
0.003992735082251722	-9.41849939940103e-06	0.003993213652755457	1.3826053002602219	1.3828350761932227	1.3833056549198217	1.3833849291068232	1.3831715444530899	234.0	255.0	11111110.0	
0.003988768995041789	-9.35649510404709e-06	0.003986955164307971	1.3826085785160753	1.3828401425886325	1.3833104232919722	1.383387015269639	1.3831763128252403	235.0	255.0	11111110.0	
0.003985592474212257	-9.294544914445366e-06	0.0039812927223792935	1.3826085785160753	1.3828422287514484	1.3833145956176038	1.3833882073626766	1.3831769088717591	236.0	255.0	11111110.0	
0.003983059668038198	-9.232648776116743e-06	0.003976524350228828	1.3826196053766733	1.3828499773561929	1.383323536315386	1.3833977441069776	1.3831891278253947	237.0	255.0	11111110.0	
0.003982470541141475	-9.1708066343363e-06	0.0039744381874129995	1.3826210954929703	1.3828511694492305	1.3833229402688672	1.383401022362831	1.3831894258486541	238.0	255.0	11111110.0	
0.003982537727029315	-9.109018434133897e-06	0.003974140164153595	1.382617221190598	1.38284640107708	1.3833172778269385	1.3833944658511241	1.383184955499763	239.0	255.0	11111110.0	
0.003982834274490299	-9.047284120294786e-06	0.003975332257191212	1.3826219895627485	1.3828532556120463	1.3833229402688672	1.3833998302697934	1.3831897238719135	240.0	255.0	11111110.0	
0.003980076700939612	-8.9856036373602e-06	0.0039744381874129995	1.3826196053766733	1.3828505734027117	1.383322046199089	1.3833974460837182	1.38318644561606	241.0	255.0	11111110.0	
0.003980204733864303	-8.923976929627949e-06	0.003977120396747636	1.3826029160741466	1.382832393983888	1.3833047608500435	1.3833804587579321	1.3831700543367929	242.0	255.0	11111110.0	
0.0039801387815334155	-8.86240394115303e-06	0.003980100629341677	1.3825918892135487	1.3828216651465495	1.3832931379429267	1.3833697299205936	1.383160517592492	243.0	255.0	11111110.0	
0.0039800352075502555	-8.80088461574823e-06	0.003983080861935718	1.3825933793298457	1.382824347355884	1.3832949260824832	1.3833718160834094	1.383159027476195	244.0	255.0	11111110.0	
0.003981162467446356	-8.739418896984714e-06	0.003986955164307971	1.3826115587486694	1.3828425267747078	1.383313999571085	1.3833923796883083	1.3831781009647968	245.0	255.0	11111110.0	
0.003979551623544946	-8.678006728192638e-06	0.003987253187567375	1.3825966575856992	1.3828288177047752	1.3832973102685584	1.3833792666648945	1.3831637958483454	246.0	255.0	11111110.0	
0.003980009684047117	-8.616648052461752e-06	0.003988445280604992	1.3825895050274735	1.3828237513093653	1.383291051780111	1.38337151806015	1.3831575373598979	247.0	255.0	11111110.0	
0.003981845781045841	-8.555342812641998e-06	0.003989935396902012	1.382595763515921	1.3828306058443316	1.3832979063150772	1.3833777765485975	1.3831626037553078	248.0	255.0	11111110.0	
0.003983453266610662	-8.494090951344108e-06	0.003990233420161416	1.382587716887917	1.3828201750302525	1.3832901577103327	1.38337151806015	1.383153961080785	249.0	255.0	11111110.0	
0.003981884589665795	-8.432892410940223e-06	0.003986359117789163	1.3825844386320636	1.3828160027046208	1.3832856873614416	1.3833664516647401	1.3831500867784128	250.0	255.0	11111110.0	
0.003982822872386589	-8.371747133564485e-06	0.003984272954973334	1.3825859287483606	1.3828192809604742	1.3832877735242575	1.3833676437577778	1.3831536630575256	251.0	255.0	11111110.0	
0.003985842720654281	-8.31065506111365e-06	0.003984272954973334	1.38260619433	1.3828371623560385	1.383308039105897	1.3833879093394172	1.3831751207322027	252.0	255.0	11111110.0	
0.003987469645638092	-8.24961613524769e-06	0.003983378885195122	1.3826091745625941	1.382838354449076	1.383309529222194	1.3833891014324549	1.3831772068950186	253.0	255.0	11111110.0	
0.003985832514212015	-8.188630297390405e-06	0.003979802606082273	1.3826130488649664	1.3828428247979672	1.3833148936408632	1.3833923796883083	1.3831807831741314	254.0	255.0	11111110.0	
0.003987499380373575	-8.127697488730025e-06	0.003980398652601081	1.3826154330510416	1.3828452089840424	1.3833175758501979	1.3833953599209023	1.3831828693369472	255.0	255.0	11111110.0	
0.003988279700212414	-8.06681765021982e-06	0.0039812927223792935	1.3826178172371169	1.3828490832864146	1.3833214501525701	1.383398042130237	1.383184955499763	0.0	255.0	11111110.0	
0.003989122521987052	-8.005990722578705e-06	0.003983378885195122	1.3826115587486694	1.3828386524723355	1.3833122114315286	1.3833893994557143	1.3831778029415374	1.0	255.0	11111110.0	
0.003985701544878331	-7.945216646291856e-06	0.003981888768898102	1.3826055982834813	1.3828326920071474	1.3833041648035247	1.3833816508509698	1.3831718424763493	2.0	255.0	11111110.0	
0.00398692406517007	-7.884495361611311e-06	0.003985465048010951	1.3826088765393347	1.3828386524723355	1.3833104232919722	1.3833879093394172	1.3831783989880562	3.0	255.0	11111110.0	
0.003985277604776372	-7.823826808556585e-06	0.003986359117789163	1.382600233864812	1.3828320959606286	1.3833041648035247	1.3833819488742292	1.3831700543367929	4.0	255.0	11111110.0	
0.003983699785702784	-7.763210926915279e-06	0.003986955164307971	1.3825936773531051	1.3828282216582564	1.3832976082918178	1.3833747963160035	1.3831617096855295	5.0	255.0	11111110.0	
0.003985850914076008	-7.70264765624369e-06	0.003990829466680224	1.3825978496787368	1.3828306058443316	1.3833011845709307	1.383379564688154	1.3831643918948642	6.0	255.0	11111110.0	
0.0039881509898468314	-7.642136935867423e-06	0.0039944057457930735	1.3826091745625941	1.3828425267747078	1.3833128074780474	1.3833932737580865	1.383177504918278	7.0	255.0	11111110.0	
0.003987938063750753	-7.581678704881996e-06	0.003994703769052478	1.382608280492816	1.3828422287514484	1.383309529222194	1.383393571781346	1.3831766108484997	8.0	255.0	11111110.0	
0.003985298313683884	-7.52127290215347e-06	0.003991425513199033	1.3825954654926615	1.3828306058443316	1.383297012245299	1.3833813528277104	1.383163497825086	9.0	255.0	11111110.0	
0.00398381026262252	-7.460919466319049e-06	0.003988147257345588	1.3826044061904437	1.382838950495595	1.3833074430593781	1.3833879093394172	1.3831715444530899	10.0	255.0	11111110.0	
0.003981987894662645	-7.4006183357876916e-06	0.003983676908454526	1.382608280492816	1.3828413346816701	1.383309529222194	1.383389995502233	1.383176014801981	11.0	255.0	11111110.0	
0.0039831630210486885	-7.3403694487407305e-06	0.003981888768898102	1.3826058963067407	1.3828401425886325	1.3833074430593781	1.3833876113161578	1.3831757167787215	12.0	255.0	11111110.0	
0.00398516749778816	-7.280172743132481e-06	0.0039812927223792935	1.3826091745625941	1.3828392485188543	1.3833104232919722	1.3833891014324549	1.383176014801981	13.0	255.0	11111110.0	
0.003983889109567943	-7.220028156690858e-06	0.0039780144665258485	1.3825993397950338	1.3828282216582564	1.3833017806174495	1.3833804587579321	1.3831661800344206	14.0	255.0	11111110.0	
0.00398588133072734	-7.1599356269179865e-06	0.003978908536304061	1.3826044061904437	1.3828344801467038	1.3833086351524158	1.3833834389905262	1.3831718424763493	15.0	255.0	11111110.0	
0.003983868206216545	-7.099895091090822e-06	0.003976822373488232	1.3826058963067407	1.3828359702630009	1.3833086351524158	1.3833828429440074	1.383173928639165	16.0	255.0	11111110.0	
0.003981399614937018	-7.039906486261763e-06	0.003975034233931808	1.3825981477019962	1.3828240493326247	1.383298502361596	1.3833721141066688	1.383164987941383	17.0	255.0	11111110.0	
0.003981435791807989	-6.979969749259267e-06	0.003976524350228828	1.3826011279345902	1.3828288177047752	1.38330148259419	1.3833768824788193	1.3831673721274582	18.0	255.0	11111110.0	
0.003982197538398362	-6.920084816688468e-06	0.003979504582822869	1.3825993397950338	1.3828273275884782	1.3832988003848554	1.3833750943392629	1.38316647805768	19.0	255.0	11111110.0	
0.003982214371469925	-6.860251624931791e-06	0.003982186792157506	1.38260619433	1.382836864332779	1.383309529222194	1.383385525153342	1.3831766108484997	20.0	255.0	11111110.0	
0.00398165578574663	-6.800470110149572e-06	0.003984272954973334	1.3826076844462971	1.382838950495595	1.383311019338491	1.3833893994557143	1.3831769088717591	21.0	255.0	11111110.0	
0.003982073526089133	-6.740740208280673e-06	0.003986955164307971	1.3825996378182932	1.3828317979373692	1.3833020786407089	1.3833816508509698	1.383167968173977	22.0	255.0	11111110.0	
0.0039842184536734776	-6.681061855043095e-06	0.003990829466680224	1.3826088765393347	1.3828425267747078	1.383312509454788	1.3833944658511241	1.383177504918278	23.0	255.0	11111110.0	
0.003983909730122965	-6.621434985934607e-06	0.003991425513199033	1.382603214097406	1.3828392485188543	1.3833065489896	1.383389995502233	1.3831718424763493	24.0	255.0	11111110.0	
0.0039818458818982085	-6.561859536233354e-06	0.0039890413271238	1.382594273399624	1.3828312018908504	1.3832967142220396	1.3833783725951163	1.3831637958483454	25.0	255.0	11111110.0	
0.0039821304833834465	-6.502335440998479e-06	0.0039878492340861835	1.3825984457252556	1.3828350761932227	1.38330148259419	1.3833816508509698	1.38316647805768	26.0	255.0	11111110.0	
0.003982890883011609	-6.442862635070747e-06	0.003986359117789163	1.3825996378182932	1.382838354449076	1.3833053568965623	1.3833828429440074	1.383169458290274	27.0	255.0	11111110.0	
0.0039826449953923315	-6.38344105307316e-06	0.003983378885195122	1.382592783283327	1.3828276256117376	1.3832961181755208	1.3833742002694847	1.3831599215459731	28.0	255.0	11111110.0	
0.003980305431859278	-6.324070629411581e-06	0.0039780144665258485	1.3825868228181388	1.3828177908441772	1.3832901577103327	1.3833682398042966	1.383153961080785	29.0	255.0	11111110.0	
0.003979085689963349	-6.264751298275346e-06	0.003973842140894191	1.3825868228181388	1.3828192809604742	1.3832907537568515	1.3833682398042966	1.3831560472436009	30.0	255.0	11111110.0	
0.00398125838879851	-6.205482993637893e-06	0.003973842140894191	1.3825933793298457	1.3828237513093653	1.3832949260824832	1.3833727101531876	1.3831599215459731	31.0	255.0	11111110.0	
0.003980786704191082	-6.146265649257382e-06	0.003972352024597171	1.3826020220043684	1.3828297117745534	1.3833020786407089	1.3833807567811915	1.3831673721274582	32.0	255.0	11111110.0	
0.003981474788634365	-6.087099198677315e-06	0.003973246094375383	1.3826124528184476	1.3828416327049295	1.383313999571085	1.3833908895720113	1.3831783989880562	33.0	255.0	11111110.0	
0.003979277017016071	-6.027983575227157e-06	0.003972352024597171	1.382592187236808	1.3828237513093653	1.3832937339894456	1.3833724121299282	1.383160517592492	34.0	255.0	11111110.0	
0.003979752518448343	-5.968918712022958e-06	0.003975034233931808	1.382594273399624	1.382824347355884	1.3832973102685584	1.383374498292744	1.383163497825086	35.0	255.0	11111110.0	
0.003982590729961566	-5.909904541967973e-06	0.0039809946991198894	1.382606790376519	1.3828371623560385	1.383311019338491	1.3833873132928984	1.383176014801981	36.0	255.0	11111110.0	
0.003980069598739866	-5.850940997753293e-06	0.003981888768898102	1.3826163271208198	1.3828455070073018	1.3833166817804197	1.3833953599209023	1.3831837634067254	37.0	255.0	11111110.0	
0.003979177468674359	-5.792028011858459e-06	0.00398397493171393	1.3826085785160753	1.3828410366584107	1.383309529222194	1.3833902935254925	1.3831754187554621	38.0	255.0	11111110.0	
0.0039778962977944895	-5.7331655165520904e-06	0.003984869001492143	1.3826011279345902	1.382835374216482	1.3833017806174495	1.383382544920748	1.38316647805768	39.0	255.0	11111110.0	
0.003979942221094707	-5.674353443892508e-06	0.003988147257345588	1.3826041081671843	1.3828398445653731	1.3833047608500435	1.3833861211998608	1.383170948406571	40.0	255.0	11111110.0	
0.003981445110392856	-5.615591725728363e-06	0.003989935396902012	1.3825966575856992	1.3828335860769256	1.3832973102685584	1.3833804587579321	1.3831623057320483	41.0	255.0	11111110.0	
0.003980267594409016	-5.556880293699261e-06	0.0039878492340861835	1.3825951674694021	1.3828312018908504	1.383295522129002	1.383381054804451	1.3831617096855295	42.0	255.0	11111110.0	
0.003982500647426885	-5.498219079236379e-06	0.003988147257345588	1.3825936773531051	1.3828288177047752	1.3832958201522614	1.3833792666648945	1.3831611136390107	43.0	255.0	11111110.0	
0.003982716412636081	-5.439608013563098e-06	0.003985763071270355	1.3825883129344358	1.3828237513093653	1.3832901577103327	1.3833736042229658	1.3831566432901197	44.0	255.0	11111110.0	
0.003981369314155746	-5.381047027695624e-06	0.0039812927223792935	1.3825859287483606	1.3828207710767713	1.3832877735242575	1.3833697299205936	1.3831521729412286	45.0	255.0	11111110.0	
0.00398411744610465	-5.322536052443625e-06	0.0039809946991198894	1.3825853327018418	1.3828177908441772	1.3832865814312199	1.3833676437577778	1.3831521729412286	46.0	255.0	11111110.0	
0.003983053463338241	-5.26407501841085e-06	0.00397741842000704	1.3825903990972517	1.3828231552628465	1.3832937339894456	1.3833727101531876	1.3831572393366385	47.0	255.0	11111110.0	
0.0039827758439158365	-5.205663855995757e-06	0.003975332257191212	1.3826133468882258	1.3828446129375236	1.3833142975943444	1.3833932737580865	1.3831792930578344	48.0	255.0	11111110.0	
0.003981829446861865	-5.147302495392147e-06	0.003973544117634787	1.382609770609113	1.3828401425886325	1.3833119134082692	1.3833873132928984	1.3831769088717591	49.0	255.0	11111110.0	
0.003981862254227255	-5.088990866589782e-06	0.003973842140894191	1.3826145389812634	1.3828461030538206	1.3833181718967167	1.383395061897643	1.383183465383466	50.0	255.0	11111110.0	
0.003982507498962588	-5.030728899375024e-06	0.00397592830371002	1.382615731074301	1.3828455070073018	1.3833187679432355	1.3833944658511241	1.3831825713136878	51.0	255.0	11111110.0	
0.003982753303175546	-4.972516523331459e-06	0.003978610513044657	1.3826121547951882	1.3828428247979672	1.383313999571085	1.3833908895720113	1.3831778029415374	52.0	255.0	11111110.0	
0.003982402994791187	-4.914353667840527e-06	0.0039812927223792935	1.3826115587486694	1.3828431228212266	1.3833137015478256	1.383392081665049	1.3831792930578344	53.0	255.0	11111110.0	
0.003980529083783253	-4.85624026208215e-06	0.00398248481541691	1.382594273399624	1.3828267315419593	1.3832952241057426	1.3833736042229658	1.3831599215459731	54.0	255.0	11111110.0	
0.0039810895638827315	-4.798176235035362e-06	0.003985763071270355	1.3826011279345902	1.382833884100185	1.3833020786407089	1.3833816508509698	1.383164987941383	55.0	255.0	11111110.0	
0.003980515348915428	-4.740161515478945e-06	0.003987253187567375	1.3825966575856992	1.382830903867591	1.3832982043383366	1.3833801607346727	1.3831629017785672	56.0	255.0	11111110.0	
0.003982018416836841	-4.682196031992051e-06	0.003989935396902012	1.3826041081671843	1.3828407386351513	1.383305058873303	1.383388505385936	1.3831697563135334	57.0	255.0	11111110.0	
0.00398494076646764	-4.62427971295484e-06	0.003993213652755457	1.3826011279345902	1.3828362682862603	1.3833023766639683	1.383387015269639	1.3831658820111612	58.0	255.0	11111110.0	
0.003984385433646764	-4.566412486549109e-06	0.003992021559717841	1.3825996378182932	1.3828344801467038	1.3833002905011524	1.383387015269639	1.3831670741041988	59.0	255.0	11111110.0	
0.003984327128490225	-4.508594280758923e-06	0.003990233420161416	1.382606790376519	1.3828416327049295	1.3833083371291564	1.383392081665049	1.3831754187554621	60.0	255.0	11111110.0	
0.003983927860821482	-4.4508250233712465e-06	0.003987253187567375	1.3825996378182932	1.3828350761932227	1.3833020786407089	1.3833831409672668	1.3831655839879018	61.0	255.0	11111110.0	
0.003983739625047971	-4.393104641976579e-06	0.00398397493171393	1.3826008299113308	1.3828359702630009	1.3833062509663405	1.383385525153342	1.3831685642204958	62.0	255.0	11111110.0	
0.0039836206790671	-4.3354330639695844e-06	0.003980696675860485	1.3826085785160753	1.3828392485188543	1.3833104232919722	1.38339148561853	1.383173928639165	63.0	255.0	11111110.0	
0.003984834062757415	-4.277810216549727e-06	0.003979206559563465	1.3826181152603763	1.3828484872398958	1.3833208541060513	1.3833998302697934	1.383183465383466	64.0	255.0	11111110.0	
0.003986302082821592	-4.220236026721901e-06	0.003978908536304061	1.382618711306895	1.3828499773561929	1.383319960036273	1.3833998302697934	1.3831858495695413	65.0	255.0	11111110.0	
0.003986073700325704	-4.162710421297068e-06	0.0039780144665258485	1.382615731074301	1.3828466991003394	1.3833175758501979	1.3833974460837182	1.383183465383466	66.0	255.0	11111110.0	
0.003987341785356063	-4.105233326892895e-06	0.003979802606082273	1.3826151350277822	1.3828481892166364	1.3833178738734573	1.3833968500371994	1.3831813792206502	67.0	255.0	11111110.0	
0.003986069066449129	-4.047804669934382e-06	0.003980100629341677	1.3826109627021506	1.3828446129375236	1.3833131055013068	1.3833944658511241	1.3831786970113156	68.0	255.0	11111110.0	
0.0039822099642622365	-3.990424376654499e-06	0.003978312489785253	1.3826005318880714	1.3828341821234444	1.3833020786407089	1.3833807567811915	1.3831688622437552	69.0	255.0	11111110.0	
0.003982245211037605	-3.933092373094827e-06	0.003980696675860485	1.38260619433	1.382838354449076	1.3833071450361187	1.3833876113161578	1.383173928639165	70.0	255.0	11111110.0	
0.003984337923807962	-3.875808585106188e-06	0.003985465048010951	1.3826160290975604	1.3828466991003394	1.3833175758501979	1.383399532246534	1.3831831673602066	71.0	255.0	11111110.0	
0.003982973754711906	-3.818572938349283e-06	0.003986657141048567	1.382608280492816	1.3828395465421137	1.3833089331756752	1.3833908895720113	1.383173928639165	72.0	255.0	11111110.0	
0.003982253802505215	-3.7613853582953326e-06	0.0039878492340861835	1.3825966575856992	1.3828288177047752	1.3832979063150772	1.383382544920748	1.3831614116622701	73.0	255.0	11111110.0	
0.003982067006530431	-3.704245770226709e-06	0.003988743303864396	1.3825874188646576	1.3828216651465495	1.3832865814312199	1.3833727101531876	1.3831521729412286	74.0	255.0	11111110.0	
0.003982482830143975	-3.6471540992375767e-06	0.003989339350383204	1.3825886109576953	1.3828261354954405	1.383290455733592	1.383374498292744	1.3831575373598979	75.0	255.0	11111110.0	
