29.0 29.0 29.0 29.0 29.0 29.0 29.0 29.0 29.0 29.0 29.0 29.030763596410914 29.0 29.0 29.0 29.0 29.0 29.0 29.0 29.0 29.0 29.030763596410914 29.0 29.0 29.0 29.0 29.0 29.0 29.0 29.0 29.0 29.0 29.0 29.0 29.0 29.0 29.0 29.0 29.0 29.0 29.0 29.0 29.0 29.0 29.0 29.030763596410914 29.0 29.030763596410914 29.0 29.0 29.0 29.0 29.0 29.0 29.0 29.0 29.0 29.0 29.0 29.0 29.0 29.0 29.0 29.0 29.0 29.0 29.0 29.0 29.0 29.0 29.0 29.0 29.0 29.0 29.0 29.0 29.0 29.0 29.0 29.0 29.0 29.030763596410914 29.0 29.0 29.0 29.0 29.0 29.0 29.0 29.0 29.0 29.0 29.0 29.0 29.0 29.0 29.0 29.0 29.0 29.0 29.0 29.0 29.0 29.0 29.0 29.0 29.0 29.0 29.0 29.0 29.0 29.0 29.0 29.0 29.0 29.0 29.0 29.0 29.0 29.0 29.0 29.0 29.0 29.0 29.0 29.0 29.0 29.0 29.0 29.0 29.0 29.0 29.0 29.0 29.0 29.0 29.0 29.0 29.0 29.0 29.0 29.0 29.0 29.0 29.0 29.0 29.0 29.0 29.0 29.0 29.0 29.0 29.0 29.0 29.0 29.0 29.0 29.0 29.0 29.0 29.0 29.0 29.0 29.0 29.0 29.0 29.0 29.0 29.0 29.0 29.0 29.0 29.0 29.0 29.0 29.0 29.0 29.0 29.0 29.0 29.0 29.0 29.0 29.0 29.0 29.0 29.0 29.0 29.0 29.0 29.0 29.0 29.0 29.0 29.0 29.0 29.030763596410914 29.0 29.0 29.0 29.0 29.0 29.0 29.0 29.0 29.0 29.0 29.0 29.0 29.0 29.0 29.0 29.0 29.0 29.0 29.0 29.0 29.0 29.0 29.0 29.0 29.0 29.0 29.0 29.0 29.0 29.0 29.0 29.0 29.0 29.0 29.0 29.0 29.0 29.0 29.0 29.0 29.0 29.0 29.0 29.0 29.0 29.0 29.0 29.0 29.0 29.0 29.0 29.0 29.0 29.0 29.0 29.0 29.0 29.0 29.0 29.0 29.0 29.0 29.0 29.0 29.0 29.0 29.0 29.0 29.0 29.0 29.0 29.0 29.0 29.0 29.0 29.0 29.0 29.0 29.0 29.0 29.0 29.0 29.0 29.0 29.0 29.0 29.0 29.0 29.0 29.0 29.0 29.0 29.0 29.0 29.0 29.0 29.0 29.0 29.0 29.0 29.0 29.0 29.0 29.0 29.0 29.0 29.0 29.0 29.0 29.0 29.0 29.0 29.0 29.0 29.0 29.0 29.0 29.0 29.0 29.0 29.030763596410914 29.0 29.0 29.0 29.0 29.0 29.0 29.0 29.0 29.0 29.0 29.0 29.0 29.0 29.0 29.0 29.0 29.0 29.0 29.030763596410914 29.0 29.0 29.0 29.0 29.0 29.0 29.0 29.0 29.0 29.0 29.030763596410914 29.061527192821828 29.09229078923274 29.123054385643655 29.15381798205457 29.215345174876397 29.276872367698225 29.39992675334188 29.522981138985532 29.646035524629188 29.769089910272843 29.98443508514924 30.13825306720381 30.322834645669293 30.47665262772386 30.72276139901117 31.030397363120308 31.06116095953122 31.27650613440762 31.79948727339315 32.47628639443325 33.27613990111701 34.26057498626625 35.30653726423732 36.444790331441126 37.4907526094122 38.475187694561434 39.55191356894342 40.597875846914484 41.67460172129647 42.812854788500275 44.04339864493682 44.90477934444241 46.16608679728987 47.519685039370074 48.780992492217536 50.01153634865409 51.05749862662516 52.288042483061716 53.54934993590917 54.626075810291155 55.76432887749496 56.90258194469877 58.071598608313494 59.425196850393704 60.440395531953854 61.609412195568574 62.80919245559421 63.94744552279802 65.14722578282365 66.3470060428493 67.54678630287492 68.65427577366782 69.97711041933712 71.33070866141732 72.6227797106757 73.94561435634498 75.14539461637062 76.49899285845083 77.88335469694195 79.26771653543307 80.59055118110236 81.85185863394983 82.92858450833181 84.09760117194652 85.26661783556125 86.46639809558688 87.57388756637978 88.55832265152901 89.54275773667825 90.46566562900567 91.35780992492217 92.18842702801683 93.04980772752243 93.75737044497345 94.49569675883538 95.14173228346456 95.72624061527193 96.18769456143563 96.67991210401026 97.07983885735214 97.41823841787217 97.6951107855704 97.94121955685772 98.15656473173411 98.31038271378868 98.46420069584325 98.5872550814869 98.67954587071965 98.77183665995238 98.89489104559604 98.98718183482879 99.11023622047244 99.2332906061161 99.32558139534883 99.38710858817066 99.41787218458158 99.44863578099249 99.44863578099249 99.44863578099249 99.44863578099249 99.44863578099249 99.38710858817066 99.29481779893793 99.11023622047244 98.77183665995238 98.34114631019959 97.60281999633766 96.772202893243 95.81853140450467 94.86485991576635 93.97271561984984 93.11133492034425 92.21919062442777 91.38857352133309 90.5271928218275 89.69657571873282 88.86595861563816 88.00457791613258 87.08167002380517 86.4971616919978 85.63578099249222 84.80516388939753 84.09760117194652 83.23622047244095 82.49789415857902 81.79033144112799 80.8981871452115 79.94451565647316 78.8677897820912 77.85259110053104 76.62204724409449 75.23768540560337 73.88408716352316 72.4074345357993 71.17689067936274 69.85405603369347 68.43893059879143 66.99304156747849 65.57791613257645 64.47042666178355 63.239882805347 62.009338948910454 60.901849478117555 59.886650796557404 58.87145211499725 57.8562534334371 56.841054751876946 55.91814685954953 54.9644753708112 54.01080388207288 52.99560520051273 51.826588536898 50.596044680461446 49.30397363120308 48.04266617835561 46.71983153268632 45.58157846548251 44.135689434169564 42.68980040285662 41.21314777513276 39.982603918696206 38.81358725508149 37.9522065555759 36.96777147042666 36.044863578099246 35.30653726423732 34.84508331807361 34.537447353964474 34.32210217908808 34.137520600622594 33.983702618568024 33.829884636513455 33.73759384728072 33.64530305804798 33.58377586522615 33.522248672404324 33.42995788317158 33.30690349752793 33.18384911188427 33.060794726240616 32.93774034059696 32.78392235854239 32.59934078007691 32.47628639443325 32.29170481596777 32.107123237502286 31.86101446621498 31.676432887749495 31.399560520051274 31.184215345174877 31.12268815235305 31.06116095953122 30.999633766709394 30.907342977476652 30.81505218824391 30.691997802600255 30.599707013367514 30.538179820545686 30.507416224134772 30.445889031312948 30.415125434902034 30.415125434902034 30.38436183849112 30.38436183849112 30.38436183849112 30.38436183849112 30.38436183849112 30.38436183849112 30.38436183849112 30.38436183849112 30.38436183849112 30.38436183849112 30.38436183849112 30.38436183849112 30.38436183849112 30.38436183849112 30.38436183849112 30.38436183849112 30.38436183849112 30.38436183849112 30.38436183849112 30.38436183849112 30.38436183849112 30.445889031312948 30.538179820545686 30.599707013367514 30.691997802600255 30.845815784654825 31.06116095953122 31.338033327229446 31.676432887749495 31.830250869804065 32.107123237502286 32.814685954953305 33.27613990111701 33.95293902215711 35.06042849295001 36.22944515656473 37.459989013001284 38.721296465848745 40.07489470792895 41.64383812488555 43.24354513825307 44.84325215162058 46.350668375755355 47.98113898553378 49.888481963010435 51.76506134407617 53.54934993590917 55.179820545687605 56.90258194469877 58.68687053653177 60.47115912836477 62.22468412378685 63.978209119208934 65.79326130745284 67.57754989928584 69.45412928035158 71.14612708295184 72.89965207837392 74.71470426661784 76.49899285845083 78.31404504669473 80.06757004211681 81.97491301959349 83.66691082219373 85.23585423915033 86.77403405969602 88.25068668741989 89.69657571873282 91.11170115363487 92.37300860648233 93.69584325215162 94.98791430141 96.24922175425746 97.41823841787217 98.71030946713056 99.97161691997803 101.17139718000367 102.24812305438564 103.14026735030214 104.09393883904048 105.01684673136788 105.90899102728437 106.58579014832448 107.2933528657755 107.81633400476102 108.27778795092475 108.55466031862295 108.73924189708843 108.83153268632118 108.86229628273209 108.86229628273209 108.83153268632118 108.83153268632118 108.77000549349935 108.6469511078557 108.4316059329793 108.09320637245925 107.60098882988464 106.95495330525544 106.37044497344809 105.66288225599706 104.98608313495697 104.1862296282732 103.35561252517854 102.52499542208386 101.7251419154001 100.8329976194836 99.91008972715619 99.11023622047244 98.18732832814503 97.32594762863944 96.55685771836659 95.63394982603918 94.80333272294452 93.91118842702802 93.2343893059879 92.34224501007142 91.57315509979856 90.98864676799121 90.5579564182384 90.21955685771836 89.91192089360922 89.72733931514375 89.60428492950008 89.51199414026735 89.48123054385643 89.45046694744552 89.38893975462369 89.32741256180186 89.23512177256913 89.11206738692547 88.95824940487088 88.77366782640541 88.5275590551181 88.18915949459806 87.75846914484526 87.26625160227064 86.62021607764146 85.94341695660134 85.1743270463285 84.43600073246657 83.51309284013917 82.80553012268815 81.8210950375389 80.80589635597875 79.82146127082952 78.8677897820912 77.72953671488739 76.62204724409449 75.29921259842519 74.16095953122138 72.49972532503205 71.36147225782824 69.57718366599524 67.85442226698407 66.53158762131477 64.71653543307087 62.28621131660868 60.932613074528476 59.086797289873644 57.6409082585607 55.61051089544039 53.610877128731005 52.07269730818531 49.82695477018861 47.85808459989013 46.53524995422084 44.75096136238784 43.52041750595129 41.951474088994686 40.72093023255814 39.82878593664164 38.629005676616 37.42922541659037 36.598608313495696 35.24501007141549 34.66050173960813 34.04522981138985 33.73759384728072 33.460721479582496 33.0300311298297 32.93774034059696 32.84544955136422 32.814685954953305 32.814685954953305 32.72239516572056 32.63010437648782 32.53781358725508 32.3532320087896 32.168650430324114 31.922541659036806 31.584142098516754 31.245742537996705 31.030397363120308 30.96887017029848 30.96887017029848 30.96887017029848 30.938106573887566 30.845815784654825 30.753524995422083 30.630470609778428 30.507416224134772 30.47665262772386 30.445889031312948 30.445889031312948 30.445889031312948 30.445889031312948 30.415125434902034 30.415125434902034 30.38436183849112 30.38436183849112 30.38436183849112 30.353598242080206 30.353598242080206 30.353598242080206 30.322834645669293 30.353598242080206 30.322834645669293 30.29207104925838 30.261307452847465 30.169016663614723 30.045962277971068 29.922907892327412 29.83061710309467 29.769089910272843 29.73832631386193 29.707562717451015 29.707562717451015 29.707562717451015 29.73832631386193 29.707562717451015 29.707562717451015 29.707562717451015 29.707562717451015 29.707562717451015 29.707562717451015 29.707562717451015 29.707562717451015 29.707562717451015 29.707562717451015 29.707562717451015 29.707562717451015 29.707562717451015 29.707562717451015 29.707562717451015 29.707562717451015 29.707562717451015 29.707562717451015 29.707562717451015 29.707562717451015 29.707562717451015 29.707562717451015 29.707562717451015 29.707562717451015 29.707562717451015 29.707562717451015 29.707562717451015 29.707562717451015 29.707562717451015 29.707562717451015 29.707562717451015 29.707562717451015 29.707562717451015 29.707562717451015 29.707562717451015 29.707562717451015 29.707562717451015 29.707562717451015 29.707562717451015 29.707562717451015 29.707562717451015 29.707562717451015 29.707562717451015 29.707562717451015 29.707562717451015 29.707562717451015 29.707562717451015 29.707562717451015 29.707562717451015 29.707562717451015 29.707562717451015 29.707562717451015 29.707562717451015 29.707562717451015 29.707562717451015 29.707562717451015 29.707562717451015 29.707562717451015 29.707562717451015 29.707562717451015 29.707562717451015 29.707562717451015 29.707562717451015 29.707562717451015 29.707562717451015 29.707562717451015 29.707562717451015 29.707562717451015 29.707562717451015 29.707562717451015 29.707562717451015 29.707562717451015 29.707562717451015 29.707562717451015 29.707562717451015 29.707562717451015 29.707562717451015 29.707562717451015 29.707562717451015 29.707562717451015 29.707562717451015 29.707562717451015 29.707562717451015 29.707562717451015 29.707562717451015 29.707562717451015 29.707562717451015 29.707562717451015 29.707562717451015 29.707562717451015 29.707562717451015 29.707562717451015 29.707562717451015 29.707562717451015 29.707562717451015 29.707562717451015 29.707562717451015 29.707562717451015 29.707562717451015 29.707562717451015 29.707562717451015 29.707562717451015 29.707562717451015 29.707562717451015 29.707562717451015 29.707562717451015 29.707562717451015 29.707562717451015 29.707562717451015 29.707562717451015 29.707562717451015 29.707562717451015 29.707562717451015 29.707562717451015 29.707562717451015 29.707562717451015 29.707562717451015 29.707562717451015 29.707562717451015 29.707562717451015 29.707562717451015 29.707562717451015 29.707562717451015 29.707562717451015 29.707562717451015 29.707562717451015 29.707562717451015 29.707562717451015 29.707562717451015 29.707562717451015 29.707562717451015 29.707562717451015 29.707562717451015 29.707562717451015 29.707562717451015 29.707562717451015 29.707562717451015 29.707562717451015 29.707562717451015 29.707562717451015 29.707562717451015 29.707562717451015 29.707562717451015 29.707562717451015 29.707562717451015 29.707562717451015 29.707562717451015 29.707562717451015 29.707562717451015 29.707562717451015 29.707562717451015 29.707562717451015 29.707562717451015 29.707562717451015 29.707562717451015 29.707562717451015 29.707562717451015 29.707562717451015 29.707562717451015 29.707562717451015 29.707562717451015 29.707562717451015 29.707562717451015 29.707562717451015 29.707562717451015 29.707562717451015 29.707562717451015 29.707562717451015 29.707562717451015 29.707562717451015 29.707562717451015 29.707562717451015 29.6767991210401 29.707562717451015 29.707562717451015 29.707562717451015 29.707562717451015 29.707562717451015 
