25.0 25.0 24.978026002563634 25.0 25.0 25.0 25.0 25.0 25.0 25.0 25.0 25.0 25.0 25.0 24.978026002563634 24.978026002563634 25.0 25.0 24.978026002563634 24.978026002563634 25.0 25.0 25.0 25.0 25.0 24.978026002563634 25.0 25.0 25.0 24.978026002563634 25.0 25.0 25.0 25.0 25.0 25.0 24.978026002563634 24.978026002563634 24.978026002563634 25.0 25.0 25.0 25.0 25.0 25.0 25.0 24.978026002563634 24.978026002563634 25.0 25.0 24.978026002563634 25.0 25.0 24.978026002563634 24.978026002563634 25.0 24.978026002563634 25.0 24.978026002563634 25.0 25.0 25.0 25.0 25.0 25.0 25.0 25.0 25.0 24.978026002563634 25.0 25.0 24.978026002563634 25.0 25.0 25.0 25.0 25.0 24.978026002563634 25.0 25.0 25.0 24.978026002563634 25.0 25.0 25.0 25.0 25.0 25.0 24.978026002563634 25.0 25.0 25.0 25.0 24.978026002563634 25.0 25.0 25.0 25.0 25.0 25.0 25.0 25.0 25.0 25.0 25.0 25.0 24.978026002563634 25.0 25.0 24.978026002563634 25.0 25.0 24.978026002563634 25.0 25.0 25.0 25.0 25.0 25.0 25.0 24.978026002563634 24.978026002563634 25.0 25.0 25.0 25.0 25.0 25.0 25.0 24.978026002563634 24.978026002563634 24.978026002563634 25.0 25.0 24.978026002563634 24.978026002563634 25.0 25.0 25.0 25.0 25.0 25.0 25.0 25.0 25.0 25.0 25.0 25.0 25.0 25.0 25.0 25.0 25.0 25.0 25.0 24.978026002563634 24.978026002563634 25.0 25.0 25.0 24.978026002563634 25.0 24.978026002563634 25.0 25.0 24.978026002563634 24.978026002563634 24.978026002563634 24.978026002563634 25.0 25.0 25.0 25.0 25.0 24.978026002563634 24.978026002563634 25.0 25.0 24.978026002563634 25.0 25.0 25.0 24.978026002563634 25.0 24.978026002563634 25.0 25.0 25.0 24.978026002563634 25.0 25.0 25.0 24.978026002563634 24.978026002563634 24.978026002563634 25.0 24.978026002563634 24.978026002563634 25.0 25.0 25.0 25.0 24.978026002563634 24.978026002563634 25.0 25.0 25.0 24.978026002563634 25.0 25.0 25.0 25.0 25.0 25.0 25.0 25.0 25.0 25.0 24.978026002563634 24.978026002563634 25.0 25.0 25.0 25.0 24.978026002563634 25.0 24.978026002563634 25.0 25.0 24.978026002563634 25.0 24.978026002563634 25.0 25.0 25.0 25.0 24.978026002563634 25.0 25.0 25.0 24.978026002563634 24.978026002563634 25.0 25.0 24.978026002563634 25.0 25.0 25.0 24.978026002563634 25.0 25.0 25.0 25.0 25.0 25.0 25.0 25.0 24.978026002563634 25.0 24.978026002563634 25.0 25.0 24.978026002563634 25.0 24.978026002563634 25.0 25.0 25.0 25.0 25.0 25.0 25.0 25.0 24.978026002563634 25.0 25.0 24.978026002563634 25.0 24.978026002563634 25.0 24.978026002563634 25.0 24.978026002563634 25.0 25.0 24.978026002563634 25.0 25.0 25.0 25.0 25.0 25.0 25.0 24.978026002563634 25.0 25.0 24.978026002563634 24.978026002563634 25.0 24.978026002563634 25.0 25.0 25.0 25.0 25.0 25.0 25.0 25.0 25.0 25.0 25.0 25.0 24.978026002563634 25.0 25.0 25.0 25.0 25.0 25.0 25.0 25.0 25.0 25.0 25.0 25.0 24.978026002563634 25.0 25.0 25.0 25.0 25.0 25.0 24.978026002563634 25.0 25.0 25.0 25.0 24.978026002563634 24.978026002563634 25.0 25.0 24.978026002563634 25.0 24.978026002563634 25.0 24.978026002563634 25.0 24.978026002563634 25.0 25.0 24.978026002563634 25.0 25.0 25.0 25.0 25.0 25.0 25.0 24.978026002563634 25.0 25.0 25.0 24.978026002563634 25.0 25.0 25.0 25.0 25.0 25.0 24.978026002563634 25.0 24.978026002563634 25.0 25.0 25.0 24.978026002563634 25.0 25.0 24.978026002563634 24.978026002563634 25.0 25.0 25.0 25.0 25.0 24.978026002563634 25.0 24.978026002563634 25.0 25.0 25.0 25.0 25.0 24.978026002563634 25.0 24.978026002563634 25.0 25.0 24.978026002563634 25.0 24.978026002563634 24.978026002563634 25.0 25.0 25.0 24.978026002563634 25.0 24.978026002563634 25.0 25.0 25.0 25.0 25.0 24.978026002563634 25.0 24.978026002563634 24.978026002563634 24.978026002563634 24.978026002563634 25.0 24.978026002563634 25.0 24.978026002563634 25.0 25.0 24.978026002563634 25.0 25.0 24.978026002563634 25.0 25.0 25.0 25.0 25.0 25.0 25.0 25.0 25.0 25.0 25.0 24.978026002563634 24.978026002563634 25.0 25.0 24.978026002563634 24.978026002563634 25.0 25.0 25.0 24.978026002563634 25.0 24.978026002563634 24.978026002563634 25.0 24.978026002563634 25.0 25.0 24.978026002563634 24.978026002563634 25.0 25.0 25.0 25.0 25.0 24.978026002563634 25.0 25.0 25.0 25.0 25.0 25.0 25.0 25.0 25.0 24.978026002563634 24.978026002563634 25.0 25.0 25.0 25.0 25.0 25.0 24.978026002563634 25.0 25.0 25.0 25.0 25.0 25.0 25.0 25.0 25.0 24.978026002563634 24.978026002563634 24.978026002563634 25.0 24.978026002563634 25.0 25.0 25.0 25.0 25.0 25.0 25.0 25.0 25.0 25.0 25.0 25.0 24.978026002563634 25.0 25.0 25.0 25.0 25.0 25.0 25.0 25.0 25.0 25.0 25.0 24.978026002563634 25.0 25.0 24.978026002563634 24.978026002563634 25.0 25.0 25.0 25.0 25.0 25.0 25.0 25.0 25.0 24.978026002563634 25.0 25.0 25.0 24.978026002563634 25.0 25.0 25.0 25.0 25.021973997436366 25.021973997436366 25.043947994872735 25.043947994872735 25.043947994872735 25.043947994872735 25.0659219923091 25.0659219923091 25.0659219923091 25.08789598974547 25.109869987181835 25.109869987181835 25.1318439846182 25.1318439846182 25.1318439846182 25.15381798205457 25.15381798205457 25.15381798205457 25.175791979490935 25.175791979490935 25.175791979490935 25.175791979490935 25.175791979490935 25.175791979490935 25.197765976927304 25.263687969236404 25.28566196667277 25.30763596410914 25.329609961545504 25.329609961545504 25.329609961545504 25.35158395898187 25.35158395898187 25.37355795641824 25.395531953854604 25.417505951290973 25.461453946163708 25.527375938472808 25.593297930781908 25.637245925654643 25.72514191540011 25.813037905145578 25.878959897454678 25.966855887200147 26.054751876945616 26.14264786669108 26.208569859000182 26.274491851309286 26.36238784105475 26.42830983336385 26.51620582310932 26.60410181285479 26.713971800036624 26.867789782091194 27.02160776414576 27.285295733382164 27.570957700054933 27.87859366416407 28.25215162058231 28.64768357443692 29.109137520600623 29.54861746932796 29.9880974180553 30.42757736678264 30.889031312946347 31.37245925654642 31.833913202710125 32.33931514374657 32.84471708478301 33.350119025819446 33.877494964292254 34.38289690532869 34.88829884636513 35.39370078740157 35.94305072331075 36.470426661783556 36.997802600256364 37.52517853872917 38.03058047976561 38.53598242080205 39.04138436183849 39.546786302874935 40.030214246475005 40.55759018494781 41.06299212598425 41.56839406702069 42.0957700054935 42.62314594396631 43.172495879875484 43.721845815784654 44.24922175425746 44.77659769273027 45.30397363120308 45.76542757736678 46.248855520966856 46.66636147225783 47.039919428676065 47.43545138253067 47.74308734663981 48.02874931331258 48.31441127998535 48.55612525178539 48.77586522614906 48.97363120307636 49.14942318256729 49.25929316974913 49.369163156930966 49.45705914667643 49.52298113898553 49.63285112616737 49.742721113349205 49.83061710309467 49.91851309284014 50.006409082585606 50.094305072331075 50.160227064640175 50.226149056949275 50.270097051822006 50.314045046694744 50.35799304156748 50.40194103644021 50.46786302874931 50.511811023622045 50.577733015931145 50.62168101080388 50.68760300311298 50.709577000549345 50.75352499542208 50.77549899285845 50.79747299029482 50.79747299029482 50.79747299029482 50.79747299029482 50.79747299029482 50.79747299029482 50.79747299029482 50.79747299029482 50.79747299029482 50.79747299029482 50.79747299029482 50.79747299029482 50.79747299029482 50.79747299029482 50.79747299029482 50.79747299029482 50.81944698773118 50.84142098516755 50.88536898004028 50.92931697491302 50.95129097234938 50.95129097234938 50.97326496978575 50.95129097234938 50.95129097234938 50.95129097234938 50.90734297747665 50.88536898004028 50.81944698773118 50.79747299029482 50.77549899285845 50.79747299029482 50.79747299029482 50.81944698773118 50.84142098516755 50.90734297747665 50.92931697491302 50.97326496978575 51.03918696209485 51.083134956967584 51.10510895440396 51.12708295184032 51.149056949276684 51.12708295184032 51.12708295184032 51.149056949276684 51.149056949276684 51.149056949276684 51.149056949276684 51.149056949276684 51.149056949276684 51.149056949276684 51.149056949276684 51.149056949276684 51.149056949276684 51.17103094671306 51.19300494414942 51.21497894158579 51.23695293902216 51.25892693645852 51.30287493133126 51.30287493133126 51.32484892876762 51.32484892876762 51.34682292620399 51.36879692364036 51.39077092107672 51.41274491851309 51.43471891594946 51.43471891594946 51.45669291338582 51.4786669108222 51.4786669108222 51.50064090825856 51.50064090825856 51.52261490569492 51.50064090825856 51.50064090825856 51.52261490569492 51.52261490569492 51.52261490569492 51.52261490569492 51.50064090825856 51.52261490569492 51.50064090825856 51.50064090825856 51.50064090825856 51.50064090825856 51.50064090825856 51.50064090825856 51.50064090825856 51.50064090825856 51.4786669108222 51.4786669108222 51.45669291338582 51.45669291338582 51.45669291338582 51.4786669108222 51.4786669108222 51.4786669108222 51.50064090825856 51.50064090825856 51.56656290056766 51.58853689800403 51.58853689800403 51.58853689800403 51.58853689800403 51.58853689800403 51.58853689800403 51.58853689800403 51.58853689800403 51.58853689800403 51.56656290056766 51.58853689800403 51.56656290056766 51.56656290056766 51.5445889031313 51.52261490569492 51.52261490569492 51.52261490569492 51.52261490569492 51.52261490569492 51.52261490569492 51.5445889031313 51.5445889031313 51.56656290056766 51.58853689800403 51.58853689800403 51.56656290056766 51.58853689800403 51.56656290056766 51.56656290056766 51.5445889031313 51.56656290056766 51.52261490569492 51.52261490569492 51.50064090825856 51.50064090825856 51.50064090825856 51.4786669108222 51.4786669108222 51.4786669108222 51.4786669108222 51.45669291338582 51.4786669108222 51.4786669108222 51.4786669108222 51.4786669108222 51.4786669108222 51.4786669108222 51.4786669108222 51.4786669108222 51.4786669108222 51.4786669108222 51.45669291338582 51.4786669108222 51.4786669108222 51.4786669108222 51.4786669108222 51.4786669108222 51.4786669108222 51.4786669108222 51.4786669108222 51.4786669108222 51.50064090825856 51.4786669108222 51.4786669108222 51.4786669108222 51.4786669108222 51.4786669108222 51.4786669108222 51.4786669108222 51.4786669108222 51.45669291338582 51.41274491851309 51.39077092107672 51.36879692364036 51.34682292620399 51.32484892876762 51.34682292620399 51.34682292620399 51.34682292620399 51.34682292620399 51.34682292620399 51.34682292620399 51.39077092107672 51.39077092107672 51.39077092107672 51.39077092107672 51.39077092107672 51.39077092107672 51.39077092107672 51.39077092107672 51.36879692364036 51.39077092107672 51.36879692364036 51.36879692364036 51.34682292620399 51.34682292620399 51.34682292620399 51.34682292620399 51.34682292620399 51.34682292620399 51.34682292620399 51.34682292620399 51.34682292620399 51.32484892876762 51.34682292620399 51.34682292620399 51.34682292620399 51.34682292620399 51.34682292620399 51.34682292620399 51.34682292620399 51.34682292620399 51.34682292620399 51.34682292620399 51.32484892876762 51.32484892876762 51.32484892876762 51.34682292620399 51.32484892876762 51.34682292620399 51.32484892876762 51.32484892876762 51.32484892876762 51.30287493133126 51.30287493133126 51.30287493133126 51.30287493133126 51.30287493133126 51.30287493133126 51.30287493133126 51.30287493133126 51.30287493133126 51.30287493133126 51.30287493133126 51.30287493133126 51.30287493133126 51.30287493133126 51.30287493133126 51.30287493133126 51.30287493133126 51.30287493133126 51.30287493133126 51.30287493133126 51.30287493133126 51.30287493133126 51.30287493133126 51.30287493133126 51.30287493133126 51.30287493133126 51.30287493133126 51.30287493133126 51.30287493133126 51.30287493133126 51.30287493133126 51.30287493133126 51.30287493133126 51.30287493133126 51.30287493133126 51.30287493133126 51.30287493133126 51.30287493133126 51.25892693645852 51.23695293902216 51.21497894158579 51.149056949276684 51.083134956967584 50.95129097234938 50.79747299029482 50.68760300311298 50.511811023622045 50.336019044131106 50.160227064640175 49.808643105658305 49.610877128731005 49.2812671671855 48.92968320820363 48.68796923640359 48.31441127998535 47.89690532869437 47.61124336202161 47.17176341329427 46.73228346456693 46.44662149789416 45.853323567112255 45.67753158762132 45.10620765427578 44.820545687603 44.51290972349386 44.09540377220289 43.80974180553012 43.260391869620946 42.776963926020876 42.51327595678447 42.0298480131844 41.70023805163889 41.23878410547519 40.75535616187511 40.447720197765975 39.964292254165905 39.612708295184035 39.15125434902033 38.68980040285662 38.40413843618385 37.98663248489288 37.61307452847464 37.393334554110965 37.041750595129095 36.822010620765425 36.492400659219925 36.118842702801686 35.72331074894708 35.39370078740157 34.99816883354697 34.69053286943783 34.09723493865592 33.81157297198315 33.372093023255815 32.95458707196484 32.646951107855706 32.29536714887384 31.87786119758286 31.59219923091009 31.174693279619117 30.911005310382713 30.51547335652811 30.14191540010987 29.900201428309835 29.570591466764327 29.262955502655192 28.955319538546053 28.735579564182384 28.49386559238235 28.230177623145945 28.05438564365501 27.87859366416407 27.592931697491302 27.483061710309467 27.417139718000367 27.329243728254898 27.263321735945798 27.219373741073063 27.17542574620033 27.153451748763963 27.10950375389123 27.065555759018494 27.02160776414576 26.97765976927303 26.933711774400294 26.88976377952756 26.845815784654825 26.757919794909355 26.73594579747299 26.648049807727524 26.58212781541842 26.472257828236586 26.38436183849112 26.318439846182017 26.23054385643655 26.186595861563816 26.14264786669108 26.120673869254716 26.07672587438198 25.988829884636512 25.966855887200147 25.922907892327412 25.878959897454678 25.856985900018312 25.835011902581943 25.813037905145578 25.769089910272843 25.72514191540011 25.703167917963743 25.637245925654643 25.615271928218274 25.593297930781908 25.593297930781908 25.571323933345543 25.549349935909174 25.527375938472808 25.50540194103644 25.483427943600073 25.461453946163708 25.43947994872734 25.417505951290973 25.395531953854604 25.37355795641824 25.35158395898187 25.329609961545504 25.329609961545504 25.30763596410914 25.28566196667277 25.28566196667277 25.263687969236404 25.263687969236404 25.263687969236404 25.241713971800035 25.241713971800035 25.21973997436367 25.197765976927304 25.197765976927304 25.197765976927304 25.175791979490935 25.175791979490935 25.15381798205457 25.15381798205457 25.15381798205457 25.1318439846182 25.1318439846182 25.109869987181835 25.109869987181835 25.109869987181835 25.08789598974547 25.08789598974547 25.0659219923091 25.0659219923091 25.0659219923091 25.0659219923091 25.0659219923091 25.043947994872735 25.043947994872735 25.043947994872735 25.0659219923091 25.043947994872735 25.043947994872735 25.043947994872735 25.021973997436366 25.043947994872735 25.021973997436366 25.021973997436366 25.021973997436366 25.021973997436366 25.021973997436366 25.021973997436366 25.021973997436366 25.021973997436366 25.021973997436366 25.0 25.0 25.0 25.0 25.0 25.0 25.0 25.0 24.978026002563634 25.0 25.0 24.978026002563634 24.978026002563634 24.978026002563634 24.978026002563634 24.978026002563634 24.978026002563634 24.978026002563634 24.978026002563634 24.978026002563634 24.978026002563634 24.956052005127265 24.978026002563634 24.978026002563634 24.956052005127265 24.956052005127265 24.956052005127265 24.956052005127265 24.956052005127265 24.956052005127265 24.956052005127265 24.956052005127265 24.956052005127265 24.956052005127265 24.956052005127265 24.956052005127265 24.956052005127265 24.956052005127265 24.956052005127265 24.956052005127265 24.956052005127265 24.956052005127265 24.956052005127265 24.956052005127265 24.956052005127265 24.956052005127265 24.956052005127265 24.956052005127265 24.9340780076909 24.9340780076909 24.9340780076909 24.9340780076909 24.956052005127265 24.956052005127265 24.9340780076909 24.9340780076909 24.9340780076909 24.9340780076909 24.9340780076909 24.9340780076909 24.9340780076909 24.9340780076909 24.9340780076909 24.9340780076909 24.9340780076909 24.9340780076909 24.9340780076909 24.9340780076909 24.9340780076909 24.9340780076909 24.9340780076909 24.9340780076909 24.956052005127265 24.9340780076909 24.9340780076909 24.9340780076909 24.9340780076909 24.9340780076909 24.9340780076909 24.9340780076909 24.9340780076909 24.9340780076909 24.9340780076909 24.9340780076909 24.9340780076909 24.9340780076909 24.9340780076909 24.9340780076909 24.9340780076909 24.9340780076909 24.9340780076909 24.9340780076909 24.9340780076909 24.9340780076909 24.9340780076909 24.9340780076909 24.9340780076909 24.9340780076909 24.9340780076909 24.9340780076909 24.9340780076909 24.9340780076909 24.9340780076909 24.9340780076909 24.9340780076909 24.9340780076909 24.9340780076909 24.9340780076909 24.9340780076909 24.9340780076909 24.9340780076909 24.9340780076909 24.9340780076909 24.9340780076909 24.9340780076909 24.9340780076909 24.9340780076909 24.9340780076909 24.9340780076909 24.9340780076909 24.9340780076909 24.9340780076909 24.9340780076909 24.9340780076909 24.9340780076909 24.9340780076909 24.9340780076909 24.956052005127265 24.956052005127265 24.978026002563634 24.978026002563634 25.0 25.0 25.021973997436366 25.021973997436366 25.043947994872735 25.043947994872735 25.043947994872735 25.0659219923091 25.0659219923091 25.08789598974547 25.109869987181835 25.109869987181835 25.1318439846182 25.15381798205457 25.175791979490935 25.21973997436367 25.241713971800035 25.35158395898187 25.461453946163708 25.549349935909174 25.703167917963743 25.813037905145578 25.922907892327412 26.164621864127447 26.29646584874565 26.472257828236586 26.648049807727524 26.779893792345725 26.999633766709394 27.285295733382164 27.570957700054933 27.90056766160044 28.18622962827321 28.55978758469145 29.153085515473357 29.284929500091557 29.878227430873466 30.07599340780077 30.537447353964474 31.042849295000916 31.35048525911005 31.833913202710125 32.5151071232375 32.866691082219376 33.591832997619484 33.92144295916499 34.31697491301959 34.93224684123787 35.32777879509247 35.94305072331075 36.558322651529025 36.975828602819995 37.635048525911 38.09650247207471 38.75572239516572 39.4369163156931 39.920344259293174 40.93114814136605 41.45852407983885 42.31550997985717 42.90880791063908 43.787767808093754 44.3590917414393 45.21607764145761 45.80937557223952 46.86412744918513 47.4134773850943 48.09467130562168 48.73191723127633 49.12744918513093 49.676799121040105 50.160227064640175 50.46786302874931 50.81944698773118 51.12708295184032 51.34682292620399 51.4786669108222 51.56656290056766 51.6764328877495 51.72038088262223 51.7423548800586 51.76432887749496 51.76432887749496 51.76432887749496 51.76432887749496 51.76432887749496 51.76432887749496 51.78630287493133 51.85222486724043 52.006042849295 52.11591283647684 52.18183482878594 52.2697308185314 52.31367881340414 52.3356528108405 52.3356528108405 52.3356528108405 52.3356528108405 52.3356528108405 52.3356528108405 52.31367881340414 52.31367881340414 52.2697308185314 52.24775682109504 52.22578282365867 52.2038088262223 52.22578282365867 52.22578282365867 52.22578282365867 52.22578282365867 52.22578282365867 52.22578282365867 52.22578282365867 52.22578282365867 52.22578282365867 52.22578282365867 52.22578282365867 52.22578282365867 52.22578282365867 52.22578282365867 52.2038088262223 52.15986083134957 52.1378868339132 52.1378868339132 52.1378868339132 52.1378868339132 52.15986083134957 52.15986083134957 52.18183482878594 52.2038088262223 52.22578282365867 52.22578282365867 52.22578282365867 52.22578282365867 52.22578282365867 52.22578282365867 52.2038088262223 52.15986083134957 52.11591283647684 52.04999084416774 52.006042849295 51.98406885185864 51.91814685954954 51.85222486724043 51.8082768723677 51.7423548800586 51.69840688518586 51.65445889031313 51.58853689800403 51.5445889031313 51.43471891594946 51.36879692364036 51.32484892876762 51.28090093389489 51.25892693645852 51.21497894158579 51.21497894158579 51.19300494414942 51.21497894158579 51.19300494414942 51.19300494414942 51.19300494414942 51.19300494414942 51.19300494414942 51.19300494414942 51.17103094671306 51.17103094671306 51.17103094671306 51.149056949276684 51.17103094671306 51.149056949276684 51.149056949276684 51.149056949276684 51.12708295184032 51.12708295184032 51.10510895440396 51.083134956967584 51.06116095953122 51.03918696209485 50.97326496978575 50.95129097234938 50.90734297747665 50.90734297747665 50.86339498260392 50.86339498260392 50.84142098516755 50.81944698773118 50.81944698773118 50.81944698773118 50.81944698773118 50.79747299029482 50.77549899285845 50.77549899285845 50.77549899285845 50.77549899285845 50.77549899285845 50.77549899285845 50.77549899285845 50.77549899285845 50.77549899285845 50.75352499542208 50.75352499542208 50.75352499542208 50.75352499542208 50.75352499542208 50.75352499542208 50.75352499542208 50.73155099798572 50.73155099798572 50.68760300311298 50.68760300311298 50.643655008240245 50.643655008240245 50.643655008240245 50.643655008240245 50.62168101080388 50.62168101080388 50.599707013367514 50.599707013367514 50.577733015931145 50.577733015931145 50.55575901849478 50.55575901849478 50.55575901849478 50.533785021058414 50.511811023622045 50.511811023622045 50.48983702618568 50.46786302874931 50.48983702618568 50.48983702618568 50.48983702618568 50.48983702618568 50.48983702618568 50.48983702618568 50.48983702618568 50.48983702618568 50.48983702618568 50.48983702618568 50.48983702618568 50.48983702618568 50.48983702618568 50.46786302874931 50.46786302874931 50.48983702618568 50.46786302874931 50.445889031312944 50.42391503387658 50.40194103644021 50.379967039003844 50.379967039003844 50.336019044131106 50.336019044131106 50.336019044131106 50.314045046694744 50.314045046694744 50.314045046694744 50.314045046694744 50.314045046694744 50.29207104925838 50.314045046694744 50.314045046694744 50.314045046694744 50.29207104925838 50.29207104925838 50.270097051822006 50.270097051822006 50.248123054385644 50.248123054385644 50.226149056949275 50.226149056949275 50.204175059512906 50.204175059512906 50.182201062076544 50.182201062076544 50.182201062076544 50.160227064640175 50.160227064640175 50.160227064640175 50.160227064640175 50.182201062076544 50.182201062076544 50.160227064640175 50.160227064640175 50.182201062076544 50.182201062076544 50.160227064640175 50.160227064640175 50.160227064640175 50.160227064640175 50.138253067203806 50.138253067203806 50.138253067203806 50.138253067203806 50.138253067203806 50.116279069767444 50.116279069767444 50.094305072331075 50.072331074894706 50.028383080021975 50.006409082585606 49.940487090276505 49.874565097967405 49.808643105658305 49.654825123603736 49.588903131294636 49.45705914667643 49.25929316974913 49.12744918513093 48.90770921076726 48.62204724409449 48.33638527742171 48.00677531587621 47.74308734663981 47.457425379967034 46.995971433803334 46.66636147225783 46.02911554660319 45.54568760300312 45.26002563633034 44.79857169016664 44.4909357260575 44.139351767075624 43.414209851675515 43.194469877311846 42.71104193371177 42.44735396447537 42.1616919978026 41.76616004394799 41.37062809009339 41.12891411829335 40.75535616187511 40.447720197765975 40.096136238784105 39.722578282365866 39.32704632851126 38.95348837209302 38.71177440029299 38.49203442592932 38.16242446438381 37.8328145028383 37.59110053103827 37.28346456692913 36.953854605383626 36.602270646401756 36.338582677165356 36.052920710492586 35.59146676432888 35.32777879509247 34.93224684123787 34.69053286943783 34.31697491301959 33.96539095403772 33.74565097967405 33.39406702069218 33.086431056583045 32.866691082219376 32.581029115546606 32.40523713605567 32.03167917963743 31.833913202710125 31.50430324116462 31.24061527192822 30.911005310382713 30.537447353964474 30.185863394982604 29.9221754257462 29.526643471891596 29.109137520600623 28.84544955136422 28.47189159494598 28.076359641091376 27.834645669291337 27.68082768723677 27.592931697491302 27.483061710309467 27.395165720564 27.351217725691264 27.285295733382164 27.241347738509432 27.197399743636698 27.131477751327594 27.087529756454863 26.97765976927303 26.911737776963925 26.867789782091194 26.779893792345725 26.713971800036624 26.648049807727524 26.58212781541842 26.538179820545686 26.472257828236586 26.406335835927486 26.36238784105475 26.274491851309286 26.186595861563816 26.14264786669108 26.054751876945616 26.01080388207288 25.922907892327412 25.813037905145578 25.747115912836477 25.703167917963743 25.65921992309101 25.593297930781908 25.549349935909174 25.50540194103644 25.461453946163708 25.395531953854604 25.35158395898187 25.263687969236404 25.241713971800035 25.241713971800035 25.197765976927304 25.175791979490935 25.175791979490935 25.15381798205457 25.15381798205457 25.1318439846182 25.1318439846182 25.109869987181835 25.109869987181835 25.109869987181835 25.109869987181835 25.08789598974547 25.08789598974547 25.0659219923091 25.0659219923091 25.0659219923091 25.0659219923091 25.043947994872735 25.043947994872735 25.043947994872735 25.043947994872735 25.021973997436366 25.021973997436366 25.021973997436366 25.0 25.0 25.0 25.021973997436366 25.021973997436366 25.021973997436366 25.0 25.021973997436366 25.0 25.021973997436366 25.0 25.0 25.0 25.0 25.0 25.0 25.0 25.021973997436366 25.021973997436366 25.0 25.0 25.0 25.0 25.0 25.0 25.0 25.0 25.0 25.0 25.0 25.0 25.0 25.0 25.0 25.0 25.0 25.0 25.0 25.0 25.0 25.0 25.0 25.021973997436366 25.0 25.0 25.021973997436366 25.0 25.021973997436366 25.021973997436366 25.0 25.021973997436366 25.0 25.0 25.021973997436366 25.021973997436366 25.0 25.0 25.021973997436366 25.0 25.0 25.0 25.0 25.0 25.021973997436366 25.0 25.0 25.0 25.0 25.0 25.021973997436366 25.0 25.0 25.021973997436366 25.0 25.0 25.0 25.0 25.0 25.0 25.0 25.0 25.0 25.0 25.021973997436366 25.0 25.0 25.0 25.0 25.021973997436366 25.0 25.0 25.0 25.0 25.021973997436366 25.021973997436366 25.0 25.0 25.0 25.0 25.0 25.021973997436366 25.0 25.0 25.0 25.0 25.0 25.0 25.0 25.0 25.0 25.0 25.021973997436366 25.0 25.0 25.0 25.0 25.0 25.0 25.0 25.0 25.0 25.0 25.0 25.0 25.0 25.0 25.0 25.0 25.0 25.0 25.0 25.0 25.0 25.0 25.0 25.0 25.0 25.0 25.0 25.0 25.0 25.0 25.0 25.0 25.0 25.0 25.0 25.0 25.021973997436366 25.021973997436366 25.0 25.021973997436366 25.0 25.0 25.021973997436366 25.021973997436366 25.021973997436366 25.021973997436366 25.021973997436366 25.021973997436366 25.021973997436366 25.021973997436366 25.021973997436366 25.043947994872735 25.043947994872735 25.043947994872735 25.043947994872735 25.0659219923091 25.08789598974547 25.08789598974547 25.109869987181835 25.109869987181835 25.1318439846182 25.15381798205457 25.175791979490935 25.197765976927304 25.241713971800035 25.329609961545504 25.417505951290973 25.483427943600073 25.681193920527377 25.791063907709212 25.988829884636512 26.186595861563816 26.340413843618386 26.60410181285479 26.73594579747299 26.88976377952756 27.065555759018494 27.241347738509432 27.548983702618568 27.922541659036806 28.362021607764145 28.77952755905512 29.131111518036988 29.438747482146127 29.878227430873466 30.185863394982604 30.779161325764512 31.15271928218275 31.41640725141915 31.81193920527376 32.07562717451016 32.5151071232375 32.82274308734664 33.350119025819446 33.92144295916499 34.55868888481963 35.08606482329244 35.76725874381981 36.316608679728986 37.1735945797473 37.96465848745651 38.57993041567478 39.458890313129466 40.315876213147774 40.90917414392968 41.89800402856619 42.40340596960264 43.216443874748215 44.05145577733016 44.6227797106757 45.41384361838491 46.358725508148694 46.79820545687603 47.43545138253067 48.02874931331258 48.40230726973082 48.92968320820363 49.237319172312766 49.676799121040105 50.094305072331075 50.35799304156748 50.665629005676614 50.84142098516755 51.03918696209485 51.21497894158579 51.30287493133126 51.43471891594946 51.5445889031313 51.6105108954404 51.6764328877495 51.7423548800586 51.78630287493133 51.8082768723677 51.83025086980406 51.85222486724043 51.8741988646768 51.85222486724043 51.8741988646768 51.8741988646768 51.8741988646768 51.85222486724043 51.85222486724043 51.83025086980406 51.78630287493133 51.76432887749496 51.69840688518586 51.6764328877495 51.65445889031313 51.63248489287676 51.65445889031313 51.63248489287676 51.63248489287676 51.63248489287676 51.63248489287676 51.6105108954404 51.6105108954404 51.6105108954404 51.63248489287676 51.63248489287676 51.6105108954404 51.58853689800403 51.5445889031313 51.50064090825856 51.45669291338582 51.43471891594946 51.39077092107672 51.36879692364036 51.36879692364036 51.34682292620399 51.34682292620399 51.32484892876762 51.34682292620399 51.32484892876762 51.30287493133126 51.30287493133126 51.30287493133126 51.25892693645852 51.25892693645852 51.25892693645852 51.25892693645852 51.28090093389489 51.25892693645852 51.25892693645852 51.25892693645852 51.25892693645852 51.25892693645852 51.25892693645852 51.25892693645852 51.25892693645852 51.21497894158579 51.19300494414942 51.149056949276684 51.10510895440396 51.03918696209485 50.99523896722212 50.95129097234938 50.92931697491302 50.90734297747665 50.88536898004028 50.88536898004028 50.88536898004028 50.88536898004028 50.88536898004028 50.88536898004028 50.90734297747665 50.90734297747665 50.88536898004028 50.88536898004028 50.86339498260392 50.86339498260392 50.86339498260392 50.84142098516755 50.84142098516755 50.84142098516755 50.84142098516755 50.84142098516755 50.84142098516755 50.84142098516755 50.84142098516755 50.81944698773118 50.81944698773118 50.79747299029482 50.79747299029482 50.79747299029482 50.77549899285845 50.79747299029482 50.79747299029482 50.79747299029482 50.79747299029482 50.79747299029482 50.79747299029482 50.81944698773118 50.81944698773118 50.81944698773118 50.81944698773118 50.81944698773118 50.81944698773118 50.81944698773118 50.81944698773118 50.81944698773118 50.79747299029482 50.79747299029482 50.77549899285845 50.75352499542208 50.75352499542208 50.75352499542208 50.75352499542208 50.77549899285845 50.77549899285845 50.79747299029482 50.79747299029482 50.79747299029482 50.79747299029482 50.79747299029482 50.79747299029482 50.77549899285845 50.77549899285845 50.77549899285845 50.77549899285845 50.73155099798572 50.709577000549345 50.709577000549345 50.68760300311298 50.68760300311298 50.68760300311298 50.709577000549345 50.709577000549345 50.709577000549345 50.709577000549345 50.709577000549345 50.709577000549345 50.709577000549345 50.73155099798572 50.73155099798572 50.709577000549345 50.73155099798572 50.73155099798572 50.73155099798572 50.73155099798572 50.73155099798572 50.73155099798572 50.73155099798572 50.73155099798572 50.73155099798572 50.709577000549345 50.709577000549345 50.709577000549345 50.709577000549345 50.709577000549345 50.709577000549345 50.709577000549345 50.709577000549345 50.68760300311298 50.68760300311298 50.68760300311298 50.709577000549345 50.68760300311298 50.68760300311298 50.68760300311298 50.68760300311298 50.68760300311298 50.68760300311298 50.68760300311298 50.709577000549345 50.709577000549345 50.68760300311298 50.68760300311298 50.68760300311298 50.68760300311298 50.68760300311298 50.665629005676614 50.665629005676614 50.643655008240245 50.62168101080388 50.577733015931145 50.533785021058414 50.511811023622045 50.48983702618568 50.46786302874931 50.445889031312944 50.42391503387658 50.40194103644021 50.379967039003844 50.35799304156748 50.35799304156748 50.35799304156748 50.336019044131106 50.314045046694744 50.29207104925838 50.270097051822006 50.248123054385644 50.204175059512906 50.160227064640175 50.138253067203806 50.138253067203806 50.116279069767444 50.094305072331075 50.094305072331075 50.072331074894706 50.050357077458344 50.028383080021975 50.006409082585606 50.006409082585606 49.984435085149244 49.984435085149244 49.962461087712875 49.962461087712875 49.940487090276505 49.962461087712875 49.962461087712875 49.962461087712875 49.962461087712875 49.962461087712875 49.962461087712875 49.940487090276505 49.940487090276505 49.91851309284014 49.89653909540377 49.89653909540377 49.874565097967405 49.83061710309467 49.808643105658305 49.742721113349205 49.676799121040105 49.63285112616737 49.52298113898553 49.43508514924007 49.303241164621866 49.12744918513093 48.99560520051273 48.75389122871269 48.46822926203992 48.27046328511261 47.83098333638527 47.58926936458524 47.3475553927852 46.93004944149423 46.64438747482146 46.182933528657756 45.74345357993042 45.10620765427578 44.6227797106757 44.46896172862113 44.16132576451199 43.721845815784654 43.414209851675515 42.71104193371177 42.40340596960264 42.13971800036623 41.81010803882073 41.56839406702069 41.17286211316609 40.75535616187511 40.469694195202344 40.074162241347736 39.656656290056766 39.34902032594763 38.97546236952939 38.55795641823842 38.27229445156565 37.96465848745651 37.7009705182201 37.3713605566746 37.129646584874564 36.822010620765425 36.426478666910825 36.20673869254715 35.89910272843802 35.74528474638345 35.54751876945615 35.23988280534701 34.62461087712873 34.55868888481963 34.27302691814686 34.05328694378319 33.723676982237684 33.372093023255815 33.152353048892145 32.778795092473906 32.55905511811024 32.185497161692 31.87786119758286 31.548251236037355 31.24061527192822 31.042849295000916 30.845083318073613 30.559421351400843 30.273759384728073 30.054019410364404 29.61453946163706 29.394799487273392 29.043215528291523 28.84544955136422 28.62570957700055 28.230177623145945 27.922541659036806 27.790697674418606 27.702801684673137 27.636879692364037 27.548983702618568 27.483061710309467 27.439113715436733 27.351217725691264 27.329243728254898 27.285295733382164 27.241347738509432 27.219373741073063 27.17542574620033 27.10950375389123 27.04358176158213 26.95568577183666 26.88976377952756 26.779893792345725 26.648049807727524 26.560153817982055 26.45028383080022 26.38436183849112 26.318439846182017 26.186595861563816 26.120673869254716 26.032777879509247 25.966855887200147 25.922907892327412 25.900933894891047 25.856985900018312 25.813037905145578 25.769089910272843 25.72514191540011 25.681193920527377 25.615271928218274 25.571323933345543 25.527375938472808 25.50540194103644 25.461453946163708 25.43947994872734 25.417505951290973 25.37355795641824 25.35158395898187 25.329609961545504 25.30763596410914 25.30763596410914 25.30763596410914 25.28566196667277 25.28566196667277 25.28566196667277 25.263687969236404 25.263687969236404 25.241713971800035 25.241713971800035 25.241713971800035 25.21973997436367 25.21973997436367 25.21973997436367 25.21973997436367 25.197765976927304 25.197765976927304 25.197765976927304 25.197765976927304 25.197765976927304 25.175791979490935 25.175791979490935 25.175791979490935 25.15381798205457 25.15381798205457 25.15381798205457 25.1318439846182 25.1318439846182 25.1318439846182 25.109869987181835 25.1318439846182 25.1318439846182 25.109869987181835 25.109869987181835 25.109869987181835 25.109869987181835 25.109869987181835 25.109869987181835 25.109869987181835 25.109869987181835 25.08789598974547 25.109869987181835 25.109869987181835 25.109869987181835 25.109869987181835 25.109869987181835 25.109869987181835 25.109869987181835 25.109869987181835 25.109869987181835 25.08789598974547 25.109869987181835 25.109869987181835 25.109869987181835 25.08789598974547 25.08789598974547 25.109869987181835 25.109869987181835 25.109869987181835 25.109869987181835 25.109869987181835 25.08789598974547 25.08789598974547 25.08789598974547 25.08789598974547 25.08789598974547 25.08789598974547 25.08789598974547 25.08789598974547 25.08789598974547 25.08789598974547 25.08789598974547 25.08789598974547 25.08789598974547 25.08789598974547 25.08789598974547 25.08789598974547 25.08789598974547 25.08789598974547 25.08789598974547 25.0659219923091 25.0659219923091 25.0659219923091 25.0659219923091 25.0659219923091 25.0659219923091 25.0659219923091 25.0659219923091 25.0659219923091 25.0659219923091 25.0659219923091 25.0659219923091 25.0659219923091 25.0659219923091 25.0659219923091 25.0659219923091 25.0659219923091 25.0659219923091 25.0659219923091 25.0659219923091 25.0659219923091 25.0659219923091 25.0659219923091 25.0659219923091 25.0659219923091 25.0659219923091 25.0659219923091 25.0659219923091 25.0659219923091 25.0659219923091 25.0659219923091 25.0659219923091 25.043947994872735 25.0659219923091 25.043947994872735 25.0659219923091 25.0659219923091 25.0659219923091 25.043947994872735 25.043947994872735 25.0659219923091 25.043947994872735 25.043947994872735 25.043947994872735 25.043947994872735 25.043947994872735 25.043947994872735 25.043947994872735 25.043947994872735 25.0659219923091 25.043947994872735 25.043947994872735 25.043947994872735 25.0659219923091 25.0659219923091 25.043947994872735 25.043947994872735 25.043947994872735 25.043947994872735 25.043947994872735 25.043947994872735 25.0659219923091 25.043947994872735 25.043947994872735 25.043947994872735 25.0659219923091 25.043947994872735 25.043947994872735 25.043947994872735 25.043947994872735 25.043947994872735 25.043947994872735 25.043947994872735 25.043947994872735 25.043947994872735 25.043947994872735 25.043947994872735 25.043947994872735 25.043947994872735 25.043947994872735 25.043947994872735 25.043947994872735 25.043947994872735 25.043947994872735 25.043947994872735 25.043947994872735 25.043947994872735 25.043947994872735 25.043947994872735 25.043947994872735 25.043947994872735 25.043947994872735 25.043947994872735 25.043947994872735 25.043947994872735 25.043947994872735 25.043947994872735 25.043947994872735 25.043947994872735 25.043947994872735 25.043947994872735 25.043947994872735 25.043947994872735 25.043947994872735 25.043947994872735 25.043947994872735 25.043947994872735 25.043947994872735 25.021973997436366 25.043947994872735 25.043947994872735 25.043947994872735 25.043947994872735 25.043947994872735 25.043947994872735 25.043947994872735 25.043947994872735 25.043947994872735 25.043947994872735 25.021973997436366 25.021973997436366 25.021973997436366 25.043947994872735 25.043947994872735 25.043947994872735 25.021973997436366 25.043947994872735 25.021973997436366 25.021973997436366 25.021973997436366 25.021973997436366 25.043947994872735 25.021973997436366 25.021973997436366 25.043947994872735 25.043947994872735 25.043947994872735 25.021973997436366 25.021973997436366 25.021973997436366 25.043947994872735 25.021973997436366 25.021973997436366 25.043947994872735 25.021973997436366 25.043947994872735 25.021973997436366 25.021973997436366 25.021973997436366 25.043947994872735 25.043947994872735 25.043947994872735 25.043947994872735 25.043947994872735 25.0659219923091 25.0659219923091 25.08789598974547 25.109869987181835 25.1318439846182 25.175791979490935 25.21973997436367 25.28566196667277 25.37355795641824 25.461453946163708 25.681193920527377 25.791063907709212 25.900933894891047 26.07672587438198 26.274491851309286 26.406335835927486 26.626075810291155 26.757919794909355 26.933711774400294 27.065555759018494 27.241347738509432 27.592931697491302 27.768723676982237 27.988463651345906 28.27412561801868 28.49386559238235 28.801501556491484 29.043215528291523 29.438747482146127 29.790331441127996 30.054019410364404 30.42757736678264 30.954953305255447 31.08679728987365 31.59219923091009 31.833913202710125 32.14154916681926 32.581029115546606 32.97656106940121 33.459989013001284 33.89946896172862 34.58066288225599 34.75645486174693 35.15198681560154 35.65738875663798 36.20673869254715 36.58029664896539 37.1076725874382 37.65702252334737 38.00860648232924 38.73374839772936 38.97546236952939 39.41494231825673 39.876396264420436 40.206006225965936 40.71140816700238 41.17286211316609 41.67826405420253 42.18366599523897 42.51327595678447 42.864859915766345 43.392235854239146 43.74381981322102 44.44698773118476 44.79857169016664 45.28199963376671 45.76542757736678 46.117011536348656 46.534517487639626 46.93004944149423 47.215711408167 47.61124336202161 47.85295733382164 48.22651529023988 48.66599523896723 48.88573521333089 49.08350119025819 49.3471891594946 49.52298113898553 49.76469511078557 49.91851309284014 50.160227064640175 50.314045046694744 50.40194103644021 50.511811023622045 50.55575901849478 50.599707013367514 50.643655008240245 50.643655008240245 50.643655008240245 50.643655008240245 50.643655008240245 50.643655008240245 50.62168101080388 50.62168101080388 50.62168101080388 50.62168101080388 50.62168101080388 50.62168101080388 50.599707013367514 50.599707013367514 50.599707013367514 50.577733015931145 50.577733015931145 50.55575901849478 50.533785021058414 50.511811023622045 50.48983702618568 50.46786302874931 50.46786302874931 50.46786302874931 50.46786302874931 50.445889031312944 50.42391503387658 50.35799304156748 50.336019044131106 50.270097051822006 50.226149056949275 50.160227064640175 50.094305072331075 50.050357077458344 50.006409082585606 49.962461087712875 49.940487090276505 49.91851309284014 49.89653909540377 49.852591100531036 49.808643105658305 49.786669108221936 49.742721113349205 49.720747115912836 49.69877311847647 49.676799121040105 49.654825123603736 49.610877128731005 49.56692913385827 49.52298113898553 49.479033144112805 49.43508514924007 49.4131111518037 49.39113715436733 49.369163156930966 49.32521516205823 49.303241164621866 49.2812671671855 49.237319172312766 49.171397180003666 49.12744918513093 49.105475187694566 49.08350119025819 49.06152719282183 49.01757919794909 48.97363120307636 48.92968320820363 48.88573521333089 48.84178721845816 48.79783922358543 48.77586522614906 48.77586522614906 48.73191723127633 48.73191723127633 48.70994323383995 48.73191723127633 48.70994323383995 48.73191723127633 48.70994323383995 48.70994323383995 48.73191723127633 48.73191723127633 48.75389122871269 48.77586522614906 48.79783922358543 48.79783922358543 48.79783922358543 48.79783922358543 48.79783922358543 48.77586522614906 48.77586522614906 48.77586522614906 48.77586522614906 48.77586522614906 48.77586522614906 48.77586522614906 48.75389122871269 48.75389122871269 48.73191723127633 48.70994323383995 48.68796923640359 48.66599523896723 48.66599523896723 48.66599523896723 48.66599523896723 48.64402124153085 48.64402124153085 48.62204724409449 48.62204724409449 48.62204724409449 48.62204724409449 48.64402124153085 48.64402124153085 48.64402124153085 48.64402124153085 48.64402124153085 48.64402124153085 48.64402124153085 48.64402124153085 48.64402124153085 48.64402124153085 48.64402124153085 48.62204724409449 48.64402124153085 48.64402124153085 48.62204724409449 48.64402124153085 48.64402124153085 48.62204724409449 48.62204724409449 48.62204724409449 48.62204724409449 48.62204724409449 48.55612525178539 48.55612525178539 48.49020325947629 48.46822926203992 48.42428126716719 48.38033327229445 48.35835927485809 48.31441127998535 48.27046328511261 48.24848928767625 48.22651529023988 48.22651529023988 48.20454129280351 48.20454129280351 48.20454129280351 48.18256729536715 48.18256729536715 48.20454129280351 48.20454129280351 48.20454129280351 48.20454129280351 48.20454129280351 48.20454129280351 48.20454129280351 48.20454129280351 48.18256729536715 48.18256729536715 48.18256729536715 48.18256729536715 48.18256729536715 48.18256729536715 48.18256729536715 48.18256729536715 48.18256729536715 48.16059329793078 48.16059329793078 48.16059329793078 48.16059329793078 48.18256729536715 48.18256729536715 48.16059329793078 48.16059329793078 48.16059329793078 48.16059329793078 48.18256729536715 48.18256729536715 48.18256729536715 48.18256729536715 48.20454129280351 48.18256729536715 48.18256729536715 48.18256729536715 48.16059329793078 48.13861930049441 48.11664530305805 48.07269730818531 48.05072331074895 48.05072331074895 48.00677531587621 48.00677531587621 47.98480131843985 47.94085332356711 47.91887932613075 47.89690532869437 47.85295733382164 47.83098333638527 47.78703534151254 47.78703534151254 47.78703534151254 47.76506134407617 47.74308734663981 47.72111334920344 47.67716535433071 47.65519135689434 47.61124336202161 47.58926936458524 47.54532136971251 47.50137337483977 47.457425379967034 47.4134773850943 47.391503387657934 47.2816334004761 47.17176341329427 47.039919428676065 46.820179454312395 46.600439479948726 46.402673503021425 46.117011536348656 45.89727156198498 45.47976561069402 45.12818165171214 44.8864676799121 44.6227797106757 44.2931697491302 43.91961179271196 43.54605383629372 43.304339864493684 42.930781908075446 42.55722395165721 42.33748397729354 41.9639260208753 41.61234206189343 41.32668009522065 40.93114814136605 40.68943416956601 40.315876213147774 39.920344259293174 39.656656290056766 39.107306354147596 38.84361838491119 38.55795641823842 38.14045046694744 37.87676249771104 37.327412561801864 37.08569859000183 36.73411463101996 36.360556674601725 36.14081670023805 35.78923274125618 35.43764878227431 35.19593481047427 34.86632484892877 34.53671488738326 34.31697491301959 33.96539095403772 33.61380699505585 33.39406702069218 33.064457059146676 32.712873100164806 32.49313312580114 32.03167917963743 31.921809192455594 31.614173228346456 31.30653726423732 31.108771287310017 30.823109320637247 30.537447353964474 30.29573338216444 30.032045412928035 29.8562534334371 29.63651345907343 29.54861746932796 29.240981505218826 28.955319538546053 28.735579564182384 28.40596960263688 28.03241164621864 27.90056766160044 27.702801684673137 27.614905694927668 27.527009705182202 27.417139718000367 27.351217725691264 27.263321735945798 27.17542574620033 27.131477751327594 27.087529756454863 27.04358176158213 26.999633766709394 26.95568577183666 26.933711774400294 26.88976377952756 26.845815784654825 26.82384178721846 26.757919794909355 26.713971800036624 26.626075810291155 26.538179820545686 26.472257828236586 26.340413843618386 26.23054385643655 26.14264786669108 26.032777879509247 25.900933894891047 25.835011902581943 25.72514191540011 25.681193920527377 25.615271928218274 25.549349935909174 25.549349935909174 25.527375938472808 25.50540194103644 25.483427943600073 25.461453946163708 25.43947994872734 25.395531953854604 25.37355795641824 25.35158395898187 25.30763596410914 25.28566196667277 25.263687969236404 25.263687969236404 25.241713971800035 25.241713971800035 25.241713971800035 25.21973997436367 25.197765976927304 25.197765976927304 25.175791979490935 25.15381798205457 25.15381798205457 25.1318439846182 25.1318439846182 25.1318439846182 25.109869987181835 25.109869987181835 25.08789598974547 25.08789598974547 25.08789598974547 25.08789598974547 25.08789598974547 25.0659219923091 25.0659219923091 25.0659219923091 25.0659219923091 25.0659219923091 25.0659219923091 25.0659219923091 25.0659219923091 25.0659219923091 25.0659219923091 25.0659219923091 25.0659219923091 25.0659219923091 25.0659219923091 25.043947994872735 25.043947994872735 25.043947994872735 25.043947994872735 25.043947994872735 25.043947994872735 25.043947994872735 25.043947994872735 25.043947994872735 25.043947994872735 25.043947994872735 25.021973997436366 25.043947994872735 25.021973997436366 25.043947994872735 25.021973997436366 25.021973997436366 25.021973997436366 25.043947994872735 25.043947994872735 25.021973997436366 25.021973997436366 25.021973997436366 25.021973997436366 25.021973997436366 25.021973997436366 25.021973997436366 25.021973997436366 25.021973997436366 25.021973997436366 25.021973997436366 25.021973997436366 25.021973997436366 25.021973997436366 25.021973997436366 25.021973997436366 25.021973997436366 25.021973997436366 25.021973997436366 25.021973997436366 25.021973997436366 25.0 25.021973997436366 25.0 25.0 25.0 25.0 25.0 25.0 25.0 25.0 25.0 25.0 25.0 25.0 25.0 25.0 25.0 25.0 25.0 25.0 25.0 25.0 25.0 25.0 25.0 25.0 25.0 25.0 25.0 25.0 25.0 25.0 25.0 25.0 25.0 25.0 25.0 25.0 25.0 25.0 25.0 25.0 25.0 25.0 25.0 25.0 25.0 25.0 25.0 25.0 24.978026002563634 25.0 25.0 25.0 25.0 25.0 25.0 25.0 25.0 25.0 25.0 24.978026002563634 24.978026002563634 25.0 25.0 24.978026002563634 24.978026002563634 25.0 25.0 24.978026002563634 24.978026002563634 25.0 24.978026002563634 24.978026002563634 25.0 24.978026002563634 24.978026002563634 24.978026002563634 24.978026002563634 24.978026002563634 25.0 24.978026002563634 24.978026002563634 24.978026002563634 24.978026002563634 24.978026002563634 24.978026002563634 24.978026002563634 24.978026002563634 24.978026002563634 24.978026002563634 24.978026002563634 24.978026002563634 24.978026002563634 24.978026002563634 24.978026002563634 24.978026002563634 24.978026002563634 24.978026002563634 25.0 24.978026002563634 24.978026002563634 24.978026002563634 24.978026002563634 24.978026002563634 25.0 24.978026002563634 24.978026002563634 24.978026002563634 24.978026002563634 24.978026002563634 24.978026002563634 24.978026002563634 24.978026002563634 25.0 25.0 24.978026002563634 24.978026002563634 25.0 24.978026002563634 24.978026002563634 24.978026002563634 24.978026002563634 24.978026002563634 25.0 25.0 24.978026002563634 25.0 25.0 25.0 25.0 24.978026002563634 24.978026002563634 24.978026002563634 25.0 24.978026002563634 24.978026002563634 25.0 25.0 25.0 25.0 24.978026002563634 25.0 24.978026002563634 25.0 25.0 25.0 25.0 25.0 25.0 25.0 25.0 25.0 24.978026002563634 25.0 25.0 24.978026002563634 25.0 25.0 25.0 25.0 25.0 25.0 25.0 25.0 25.0 25.0 25.0 25.0 25.0 25.0 25.0 25.0 25.0 25.021973997436366 25.0 25.0 25.0 25.0 25.0 25.0 25.0 25.021973997436366 25.021973997436366 25.021973997436366 25.021973997436366 25.043947994872735 25.043947994872735 25.0659219923091 25.0659219923091 25.08789598974547 25.08789598974547 25.109869987181835 25.109869987181835 25.109869987181835 25.1318439846182 25.1318439846182 25.1318439846182 25.15381798205457 25.15381798205457 25.175791979490935 25.21973997436367 25.241713971800035 25.30763596410914 25.35158395898187 25.461453946163708 25.637245925654643 25.72514191540011 25.900933894891047 26.01080388207288 26.14264786669108 26.318439846182017 26.45028383080022 26.73594579747299 26.933711774400294 27.131477751327594 27.527009705182202 27.768723676982237 28.010437648782275 28.362021607764145 28.581761582127815 28.889397546236953 29.175059512909723 29.350851492400658 29.63651345907343 29.900201428309835 30.119941402673504 30.44955136421901 30.713239333455412 31.108771287310017 31.548251236037355 32.03167917963743 32.53708112067387 32.88866507965574 33.240249038637614 33.789598974546784 34.33894891045596 34.73448086431057 35.50357077458341 35.921076725874386 36.492400659219925 36.73411463101996 37.5032045412928 38.03058047976561 38.42611243362022 38.97546236952939 39.722578282365866 39.898370261856805 40.447720197765975 40.82127815418421 41.37062809009339 41.91997802600257 42.31550997985717 42.88683391320271 43.45815784654825 43.87566379783922 44.3590917414393 44.8864676799121 45.21607764145761 45.69950558505768 46.182933528657756 46.64438747482146 47.061893426112434 47.325581395348834 47.69913935176707 47.91887932613075 48.27046328511261 48.57809924922175 48.79783922358543 49.105475187694566 49.39113715436733 49.56692913385827 49.874565097967405 50.028383080021975 50.160227064640175 50.29207104925838 50.379967039003844 50.48983702618568 50.599707013367514 50.62168101080388 50.643655008240245 50.665629005676614 50.665629005676614 50.665629005676614 50.665629005676614 50.665629005676614 50.665629005676614 50.665629005676614 50.665629005676614 50.643655008240245 50.643655008240245 50.643655008240245 50.643655008240245 50.62168101080388 50.599707013367514 50.577733015931145 50.48983702618568 50.42391503387658 50.379967039003844 50.29207104925838 50.204175059512906 50.094305072331075 50.028383080021975 49.89653909540377 49.808643105658305 49.76469511078557 49.69877311847647 49.654825123603736 49.654825123603736 49.610877128731005 49.610877128731005 49.63285112616737 49.63285112616737 49.63285112616737 49.63285112616737 49.588903131294636 49.588903131294636 49.588903131294636 49.56692913385827 49.56692913385827 49.56692913385827 49.588903131294636 49.56692913385827 49.588903131294636 49.588903131294636 49.610877128731005 49.610877128731005 49.588903131294636 49.588903131294636 49.544955136421905 49.50100714154917 49.479033144112805 49.43508514924007 49.369163156930966 49.32521516205823 49.32521516205823 49.2812671671855 49.237319172312766 49.19337117744003 49.171397180003666 49.14942318256729 49.12744918513093 49.12744918513093 49.12744918513093 49.12744918513093 49.12744918513093 49.12744918513093 49.12744918513093 49.12744918513093 49.12744918513093 49.14942318256729 49.14942318256729 49.14942318256729 49.14942318256729 49.171397180003666 49.171397180003666 49.171397180003666 49.19337117744003 49.171397180003666 49.171397180003666 49.171397180003666 49.171397180003666 49.171397180003666 49.171397180003666 49.14942318256729 49.14942318256729 49.12744918513093 49.12744918513093 49.105475187694566 49.105475187694566 49.08350119025819 49.105475187694566 49.08350119025819 49.08350119025819 49.06152719282183 49.06152719282183 49.03955319538546 49.03955319538546 49.03955319538546 49.01757919794909 49.01757919794909 49.01757919794909 48.99560520051273 48.99560520051273 48.97363120307636 48.97363120307636 48.97363120307636 48.97363120307636 48.97363120307636 48.97363120307636 48.97363120307636 48.97363120307636 48.97363120307636 48.97363120307636 48.97363120307636 48.97363120307636 48.97363120307636 48.97363120307636 48.99560520051273 48.97363120307636 48.97363120307636 48.97363120307636 48.97363120307636 48.97363120307636 48.97363120307636 48.95165720563999 48.95165720563999 48.95165720563999 48.97363120307636 48.97363120307636 48.95165720563999 48.97363120307636 48.95165720563999 48.95165720563999 48.95165720563999 48.95165720563999 48.95165720563999 48.95165720563999 48.95165720563999 48.97363120307636 48.95165720563999 48.95165720563999 48.92968320820363 48.90770921076726 48.88573521333089 48.86376121589453 48.84178721845816 48.81981322102179 48.75389122871269 48.68796923640359 48.66599523896723 48.62204724409449 48.57809924922175 48.55612525178539 48.53415125434902 48.53415125434902 48.53415125434902 48.53415125434902 48.53415125434902 48.53415125434902 48.53415125434902 48.55612525178539 48.55612525178539 48.55612525178539 48.57809924922175 48.57809924922175 48.57809924922175 48.57809924922175 48.55612525178539 48.57809924922175 48.57809924922175 48.57809924922175 48.57809924922175 48.55612525178539 48.57809924922175 48.57809924922175 48.57809924922175 48.57809924922175 48.55612525178539 48.55612525178539 48.53415125434902 48.53415125434902 48.53415125434902 48.53415125434902 48.51217725691265 48.51217725691265 48.49020325947629 48.46822926203992 48.46822926203992 48.46822926203992 48.46822926203992 48.46822926203992 48.46822926203992 48.46822926203992 48.46822926203992 48.46822926203992 48.46822926203992 48.46822926203992 48.46822926203992 48.49020325947629 48.49020325947629 48.49020325947629 48.49020325947629 48.49020325947629 48.49020325947629 48.51217725691265 48.51217725691265 48.51217725691265 48.51217725691265 48.51217725691265 48.49020325947629 48.49020325947629 48.49020325947629 48.49020325947629 48.49020325947629 48.49020325947629 48.49020325947629 48.46822926203992 48.42428126716719 48.38033327229445 48.29243728254899 48.24848928767625 48.18256729536715 48.09467130562168 48.02874931331258 47.91887932613075 47.72111334920344 47.61124336202161 47.43545138253067 47.2816334004761 47.10584142098517 46.842153451748764 46.64438747482146 46.182933528657756 45.78740157480315 45.50173960813038 45.06225965940304 44.7546236952939 44.271195751693824 43.80974180553012 43.502105841420985 43.062625892693646 42.60117194652994 42.31550997985717 41.89800402856619 41.50247207471159 41.23878410547519 40.88720014649331 40.535616187511444 40.315876213147774 40.008240249038636 39.678630287493135 39.370994323384 39.15125434902033 38.95348837209302 38.66782640542025 38.36019044131112 38.05255447720198 37.72294451565647 37.48123054385644 37.15162058231093 36.909906610510895 36.558322651529025 36.20673869254715 35.986998718183486 35.63541475920161 35.41567478483794 35.08606482329244 34.7784288591833 34.60263687969236 34.31697491301959 34.09723493865592 33.943416956601354 33.723676982237684 33.459989013001284 33.284197033510345 32.91063907709211 32.734847097601175 32.53708112067387 32.2514191540011 32.00970518220106 31.72404321552829 31.548251236037355 31.30653726423732 31.042849295000916 30.845083318073613 30.603369346273574 30.383629371909905 30.20783739241897 29.900201428309835 29.724409448818896 29.48269547701886 29.219007507782457 29.043215528291523 28.77952755905512 28.515839589818714 28.34004761032778 28.09833363852774 28.010437648782275 27.90056766160044 27.834645669291337 27.768723676982237 27.702801684673137 27.614905694927668 27.570957700054933 27.483061710309467 27.417139718000367 27.373191723127633 27.307269730818533 27.285295733382164 27.241347738509432 27.197399743636698 27.17542574620033 27.153451748763963 27.131477751327594 27.087529756454863 27.02160776414576 26.999633766709394 26.933711774400294 26.911737776963925 26.867789782091194 26.82384178721846 26.757919794909355 26.713971800036624 26.626075810291155 26.58212781541842 26.494231825672955 26.45028383080022 26.318439846182017 26.23054385643655 26.164621864127447 26.07672587438198 25.988829884636512 25.944881889763778 25.856985900018312 25.835011902581943 25.791063907709212 25.769089910272843 25.769089910272843 25.769089910272843 25.72514191540011 25.703167917963743 25.637245925654643 25.615271928218274 25.571323933345543 25.549349935909174 25.527375938472808 25.50540194103644 25.461453946163708 25.43947994872734 25.417505951290973 25.395531953854604 25.37355795641824 25.35158395898187 25.329609961545504 25.30763596410914 25.30763596410914 25.28566196667277 25.28566196667277 25.263687969236404 25.263687969236404 25.263687969236404 25.241713971800035 25.241713971800035 25.21973997436367 25.197765976927304 25.197765976927304 25.175791979490935 25.175791979490935 25.175791979490935 25.15381798205457 25.15381798205457 25.15381798205457 25.1318439846182 25.1318439846182 25.1318439846182 25.1318439846182 25.1318439846182 25.1318439846182 25.1318439846182 25.109869987181835 25.109869987181835 25.109869987181835 25.109869987181835 25.109869987181835 25.109869987181835 25.109869987181835 25.109869987181835 25.109869987181835 25.109869987181835 25.109869987181835 25.109869987181835 25.109869987181835 25.109869987181835 25.109869987181835 25.109869987181835 25.109869987181835 25.109869987181835 25.109869987181835 25.109869987181835 25.109869987181835 25.109869987181835 25.109869987181835 25.109869987181835 25.109869987181835 25.109869987181835 25.109869987181835 25.109869987181835 25.109869987181835 25.109869987181835 25.08789598974547 25.08789598974547 25.109869987181835 25.08789598974547 25.08789598974547 25.08789598974547 25.08789598974547 25.08789598974547 25.08789598974547 25.08789598974547 25.08789598974547 25.08789598974547 25.08789598974547 25.08789598974547 25.08789598974547 25.08789598974547 25.08789598974547 25.109869987181835 25.08789598974547 25.08789598974547 25.109869987181835 25.109869987181835 25.109869987181835 25.109869987181835 25.109869987181835 25.1318439846182 25.1318439846182 25.1318439846182 25.15381798205457 25.175791979490935 25.197765976927304 25.241713971800035 25.28566196667277 25.35158395898187 25.37355795641824 25.461453946163708 25.571323933345543 25.637245925654643 25.72514191540011 25.813037905145578 25.900933894891047 26.032777879509247 26.098699871818347 26.23054385643655 26.36238784105475 26.472257828236586 26.58212781541842 26.648049807727524 26.779893792345725 26.88976377952756 26.97765976927303 27.10950375389123 27.285295733382164 27.395165720564 27.614905694927668 27.790697674418606 28.12030763596411 28.449917597509614 28.669657571873284 29.043215528291523 29.41677348470976 29.680461453946165 30.07599340780077 30.405603369346274 30.845083318073613 31.328511261673686 31.68009522065556 32.33931514374657 32.69089910272844 33.086431056583045 33.701702984801315 34.22907892327412 34.6465848745651 35.23988280534701 35.83318073612892 36.44845266434719 37.063724592565464 37.48123054385644 38.07452847463834 38.51400842336568 39.173228346456696 39.8324482695477 40.29390221571141 40.97509613623878 41.63431605932979 42.0957700054935 42.75498992858451 43.194469877311846 43.787767808093754 44.38106573887566 44.77659769273027 45.30397363120308 45.985167551730456 46.358725508148694 46.688335469694195 47.039919428676065 47.43545138253067 47.87493133125801 48.33638527742171 48.79783922358543 49.105475187694566 49.588903131294636 50.050357077458344 50.336019044131106 50.79747299029482 51.19300494414942 51.50064090825856 51.85222486724043 52.0719648416041 52.37960080571324 52.68723676982238 52.81908075444058 52.906976744186046 53.03882072880425 53.126716718549716 53.192638710858816 53.280534700604285 53.324482695477016 53.368430690349754 53.390404687786116 53.412378685222485 53.456326680095216 53.478300677531585 53.566196667277055 53.588170664713424 53.632118659586155 53.654092657022524 53.654092657022524 53.654092657022524 53.654092657022524 53.67606665445889 53.654092657022524 53.654092657022524 53.654092657022524 53.654092657022524 53.654092657022524 53.654092657022524 53.654092657022524 53.654092657022524 53.632118659586155 53.632118659586155 53.61014466214979 53.61014466214979 53.61014466214979 53.61014466214979 53.61014466214979 53.61014466214979 53.61014466214979 53.61014466214979 53.61014466214979 53.632118659586155 53.61014466214979 53.632118659586155 53.632118659586155 53.632118659586155 53.632118659586155 53.632118659586155 53.632118659586155 53.632118659586155 53.632118659586155 53.632118659586155 53.632118659586155 53.632118659586155 53.632118659586155 53.632118659586155 53.632118659586155 53.61014466214979 53.61014466214979 53.61014466214979 53.61014466214979 53.61014466214979 53.61014466214979 53.61014466214979 53.588170664713424 53.566196667277055 53.566196667277055 53.52224867240432 53.500274674967955 53.478300677531585 53.456326680095216 53.456326680095216 53.412378685222485 53.390404687786116 53.368430690349754 53.368430690349754 53.368430690349754 53.346456692913385 53.368430690349754 53.368430690349754 53.368430690349754 53.368430690349754 53.368430690349754 53.368430690349754 53.368430690349754 53.368430690349754 53.368430690349754 53.368430690349754 53.368430690349754 53.368430690349754 53.346456692913385 53.324482695477016 53.302508698040654 53.258560703167916 53.214612708295185 53.192638710858816 53.170664713422454 53.170664713422454 53.170664713422454 53.170664713422454 53.170664713422454 53.170664713422454 53.170664713422454 53.170664713422454 53.170664713422454 53.170664713422454 53.170664713422454 53.170664713422454 53.170664713422454 53.170664713422454 53.170664713422454 53.170664713422454 53.170664713422454 53.170664713422454 53.14869071598608 53.126716718549716 53.126716718549716 53.104742721113354 53.060794726240616 53.03882072880425 52.97289873649515 52.95092473905878 52.88500274674968 52.841054751876946 52.81908075444058 52.81908075444058 52.775132759567846 52.775132759567846 52.75315876213148 52.731184764695115 52.731184764695115 52.70921076725874 52.70921076725874 52.68723676982238 52.68723676982238 52.68723676982238 52.66526277238601 52.64328877494964 52.64328877494964 52.62131477751328 52.57736678264054 52.55539278520418 52.55539278520418 52.53341878776781 52.53341878776781 52.53341878776781 52.53341878776781 52.53341878776781 52.53341878776781 52.53341878776781 52.53341878776781 52.53341878776781 52.53341878776781 52.53341878776781 52.53341878776781 52.53341878776781 52.53341878776781 52.53341878776781 52.53341878776781 52.53341878776781 52.53341878776781 52.53341878776781 52.55539278520418 52.53341878776781 52.55539278520418 52.55539278520418 52.55539278520418 52.55539278520418 52.55539278520418 52.55539278520418 52.55539278520418 52.55539278520418 52.55539278520418 52.53341878776781 52.53341878776781 52.53341878776781 52.53341878776781 52.53341878776781 52.53341878776781 52.51144479033144 52.51144479033144 52.48947079289508 52.48947079289508 52.46749679545871 52.46749679545871 52.46749679545871 52.46749679545871 52.44552279802234 52.44552279802234 52.44552279802234 52.423548800585976 52.423548800585976 52.40157480314961 52.40157480314961 52.37960080571324 52.37960080571324 52.37960080571324 52.357626808276876 52.3356528108405 52.31367881340414 52.24775682109504 52.2038088262223 52.0719648416041 51.9401208569859 51.83025086980406 51.5445889031313 51.36879692364036 51.19300494414942 50.92931697491302 50.709577000549345 50.379967039003844 49.874565097967405 49.588903131294636 49.171397180003666 48.84178721845816 48.53415125434902 48.05072331074895 47.50137337483977 46.952023438930595 46.380699505585056 45.985167551730456 45.41384361838491 45.04028566196667 44.44698773118476 43.897637795275585 43.52407983885735 42.97472990294818 42.293535982420806 42.07379600805713 41.59036806445706 41.10694012085699 40.79930415674785 40.27192821827504 39.942318256729536 39.4369163156931 39.15125434902033 38.55795641823842 38.11847646951108 37.81084050540194 37.52517853872917 37.15162058231093 36.712140633583594 36.426478666910825 36.03094671305622 35.67936275407435 35.32777879509247 35.08606482329244 34.73448086431057 34.40487090276506 34.03131294634682 33.789598974546784 33.54788500274675 33.218275041201245 32.866691082219376 32.646951107855706 32.29536714887384 31.96575718732833 31.72404321552829 31.24061527192822 30.998901300128182 30.757187328328143 30.273759384728073 29.878227430873466 29.658487456509796 29.394799487273392 29.043215528291523 28.69163156930965 28.47189159494598 28.230177623145945 28.12030763596411 28.05438564365501 27.944515656473172 27.87859366416407 27.834645669291337 27.790697674418606 27.768723676982237 27.724775682109502 27.658853689800402 27.614905694927668 27.505035707745833 27.417139718000367 27.351217725691264 27.219373741073063 27.10950375389123 26.95568577183666 26.82384178721846 26.73594579747299 26.58212781541842 26.45028383080022 26.36238784105475 26.23054385643655 26.14264786669108 25.988829884636512 25.944881889763778 25.900933894891047 25.835011902581943 25.791063907709212 25.747115912836477 25.703167917963743 25.681193920527377 25.593297930781908 25.549349935909174 25.527375938472808 25.483427943600073 25.461453946163708 25.43947994872734 25.417505951290973 25.417505951290973 25.395531953854604 25.35158395898187 25.329609961545504 25.30763596410914 25.28566196667277 25.263687969236404 25.263687969236404 25.241713971800035 25.21973997436367 25.197765976927304 25.175791979490935 25.175791979490935 25.15381798205457 25.15381798205457 25.15381798205457 25.15381798205457 25.15381798205457 25.1318439846182 25.1318439846182 25.1318439846182 25.1318439846182 25.1318439846182 25.109869987181835 25.109869987181835 25.109869987181835 25.109869987181835 25.109869987181835 25.08789598974547 25.08789598974547 25.08789598974547 25.08789598974547 25.08789598974547 25.08789598974547 25.08789598974547 25.0659219923091 25.08789598974547 25.0659219923091 25.0659219923091 25.0659219923091 25.0659219923091 25.0659219923091 25.043947994872735 25.0659219923091 25.043947994872735 25.043947994872735 25.021973997436366 25.021973997436366 25.021973997436366 25.043947994872735 25.043947994872735 25.043947994872735 25.043947994872735 25.043947994872735 25.043947994872735 25.043947994872735 25.043947994872735 25.043947994872735 25.043947994872735 25.043947994872735 25.043947994872735 25.043947994872735 25.043947994872735 25.043947994872735 25.043947994872735 25.043947994872735 25.043947994872735 25.043947994872735 25.043947994872735 25.021973997436366 25.043947994872735 25.043947994872735 25.043947994872735 25.043947994872735 25.043947994872735 25.043947994872735 25.043947994872735 25.043947994872735 25.043947994872735 25.043947994872735 25.043947994872735 25.043947994872735 25.043947994872735 25.043947994872735 25.043947994872735 25.043947994872735 25.043947994872735 25.043947994872735 25.043947994872735 25.043947994872735 25.043947994872735 25.043947994872735 25.043947994872735 25.043947994872735 25.0659219923091 25.043947994872735 25.043947994872735 25.043947994872735 25.043947994872735 25.043947994872735 25.043947994872735 25.0659219923091 25.0659219923091 25.043947994872735 25.0659219923091 25.0659219923091 25.0659219923091 25.043947994872735 25.0659219923091 25.0659219923091 25.0659219923091 25.0659219923091 25.0659219923091 25.0659219923091 25.0659219923091 25.0659219923091 25.0659219923091 25.0659219923091 25.0659219923091 25.0659219923091 25.0659219923091 25.0659219923091 25.0659219923091 25.0659219923091 25.0659219923091 25.0659219923091 25.08789598974547 25.0659219923091 25.0659219923091 25.0659219923091 25.0659219923091 25.0659219923091 25.0659219923091 25.0659219923091 25.0659219923091 25.0659219923091 25.0659219923091 25.08789598974547 25.0659219923091 25.08789598974547 25.08789598974547 25.08789598974547 25.0659219923091 25.0659219923091 25.0659219923091 25.0659219923091 25.08789598974547 25.08789598974547 25.08789598974547 25.08789598974547 25.0659219923091 25.08789598974547 25.08789598974547 25.08789598974547 25.08789598974547 25.08789598974547 25.08789598974547 25.08789598974547 25.08789598974547 25.08789598974547 25.08789598974547 25.08789598974547 25.08789598974547 25.08789598974547 25.08789598974547 25.08789598974547 25.08789598974547 25.08789598974547 25.08789598974547 25.08789598974547 25.08789598974547 25.08789598974547 25.08789598974547 25.08789598974547 25.08789598974547 25.08789598974547 25.0659219923091 25.08789598974547 25.08789598974547 25.08789598974547 25.08789598974547 25.08789598974547 25.08789598974547 25.08789598974547 25.08789598974547 25.08789598974547 25.08789598974547 25.0659219923091 25.08789598974547 25.08789598974547 25.08789598974547 25.08789598974547 25.08789598974547 25.08789598974547 25.08789598974547 25.08789598974547 25.08789598974547 25.08789598974547 25.08789598974547 25.08789598974547 25.08789598974547 25.08789598974547 25.08789598974547 25.08789598974547 25.08789598974547 25.08789598974547 25.08789598974547 25.08789598974547 25.08789598974547 25.08789598974547 25.08789598974547 25.08789598974547 25.08789598974547 25.08789598974547 25.08789598974547 25.08789598974547 25.08789598974547 25.08789598974547 25.08789598974547 25.08789598974547 25.08789598974547 25.08789598974547 25.109869987181835 25.08789598974547 25.109869987181835 25.109869987181835 25.109869987181835 25.109869987181835 25.109869987181835 25.109869987181835 25.109869987181835 25.109869987181835 25.109869987181835 25.109869987181835 25.109869987181835 25.109869987181835 25.1318439846182 25.1318439846182 25.15381798205457 25.15381798205457 25.15381798205457 25.15381798205457 25.15381798205457 25.175791979490935 25.175791979490935 25.21973997436367 25.241713971800035 25.28566196667277 25.395531953854604 25.461453946163708 25.527375938472808 25.703167917963743 25.791063907709212 25.878959897454678 26.098699871818347 26.208569859000182 26.340413843618386 26.45028383080022 26.60410181285479 26.73594579747299 26.845815784654825 26.97765976927303 27.153451748763963 27.263321735945798 27.505035707745833 27.724775682109502 28.03241164621864 28.515839589818714 28.71360556674602 29.065189525727888 29.570591466764327 29.8562534334371 30.51547335652811 30.86705731550998 31.196667277055482 31.921809192455594 32.27339315143747 32.800769089910276 33.32814502838308 33.723676982237684 34.207104925837754 34.60263687969236 35.34975279252884 35.72331074894708 36.09686870536532 36.646218641274494 37.195568577183664 37.74491851309284 38.14045046694744 38.42611243362022 38.93151437465666 39.4369163156931 39.788500274674966 40.27192821827504 40.77733015931148 41.26075810291155 41.74418604651163 41.94195202343893 42.38143197216627 42.996703900384546 43.326313861930046 43.765793810657385 44.09540377220289 44.5568577183666 45.0183116645303 45.34792162607581 45.72147958249405 46.33675151071232 46.688335469694195 47.23768540560337 47.58926936458524 48.07269730818531 48.70994323383995 48.99560520051273 49.237319172312766 49.52298113898553 49.69877311847647 49.91851309284014 50.094305072331075 50.248123054385644 50.40194103644021 50.48983702618568 50.62168101080388 50.709577000549345 50.84142098516755 50.92931697491302 50.99523896722212 51.083134956967584 51.17103094671306 51.21497894158579 51.25892693645852 51.28090093389489 51.28090093389489 51.28090093389489 51.28090093389489 51.28090093389489 51.28090093389489 51.28090093389489 51.25892693645852 51.25892693645852 51.25892693645852 51.25892693645852 51.25892693645852 51.23695293902216 51.19300494414942 51.17103094671306 51.149056949276684 51.149056949276684 51.12708295184032 51.12708295184032 51.12708295184032 51.10510895440396 51.10510895440396 51.083134956967584 51.06116095953122 51.06116095953122 51.03918696209485 51.01721296465848 51.01721296465848 50.97326496978575 50.92931697491302 50.90734297747665 50.86339498260392 50.86339498260392 50.84142098516755 50.81944698773118 50.81944698773118 50.81944698773118 50.81944698773118 50.84142098516755 50.84142098516755 50.81944698773118 50.81944698773118 50.81944698773118 50.81944698773118 50.81944698773118 50.81944698773118 50.81944698773118 50.81944698773118 50.81944698773118 50.81944698773118 50.81944698773118 50.81944698773118 50.81944698773118 50.81944698773118 50.81944698773118 50.81944698773118 50.81944698773118 50.81944698773118 50.81944698773118 50.79747299029482 50.77549899285845 50.73155099798572 50.709577000549345 50.665629005676614 50.643655008240245 50.599707013367514 50.55575901849478 50.533785021058414 50.48983702618568 50.445889031312944 50.42391503387658 50.379967039003844 50.379967039003844 50.35799304156748 50.336019044131106 50.35799304156748 50.336019044131106 50.336019044131106 50.336019044131106 50.336019044131106 50.336019044131106 50.336019044131106 50.336019044131106 50.314045046694744 50.29207104925838 50.270097051822006 50.248123054385644 50.226149056949275 50.204175059512906 50.204175059512906 50.226149056949275 50.226149056949275 50.226149056949275 50.226149056949275 50.204175059512906 50.226149056949275 50.226149056949275 50.226149056949275 50.226149056949275 50.226149056949275 50.226149056949275 50.226149056949275 50.226149056949275 50.226149056949275 50.226149056949275 50.204175059512906 50.226149056949275 50.204175059512906 50.204175059512906 50.204175059512906 50.160227064640175 50.182201062076544 50.160227064640175 50.138253067203806 50.138253067203806 50.116279069767444 50.116279069767444 50.094305072331075 50.072331074894706 50.072331074894706 50.072331074894706 50.050357077458344 50.050357077458344 50.050357077458344 50.028383080021975 50.028383080021975 50.006409082585606 49.984435085149244 49.962461087712875 49.940487090276505 49.91851309284014 49.874565097967405 49.874565097967405 49.852591100531036 49.83061710309467 49.83061710309467 49.83061710309467 49.83061710309467 49.83061710309467 49.808643105658305 49.808643105658305 49.83061710309467 49.808643105658305 49.83061710309467 49.83061710309467 49.83061710309467 49.83061710309467 49.83061710309467 49.808643105658305 49.83061710309467 49.83061710309467 49.808643105658305 49.83061710309467 49.83061710309467 49.83061710309467 49.808643105658305 49.808643105658305 49.786669108221936 49.76469511078557 49.76469511078557 49.76469511078557 49.720747115912836 49.69877311847647 49.676799121040105 49.654825123603736 49.63285112616737 49.588903131294636 49.56692913385827 49.544955136421905 49.52298113898553 49.52298113898553 49.50100714154917 49.479033144112805 49.45705914667643 49.43508514924007 49.43508514924007 49.4131111518037 49.39113715436733 49.369163156930966 49.369163156930966 49.3471891594946 49.3471891594946 49.3471891594946 49.32521516205823 49.32521516205823 49.32521516205823 49.32521516205823 49.32521516205823 49.32521516205823 49.32521516205823 49.32521516205823 49.32521516205823 49.32521516205823 49.32521516205823 49.32521516205823 49.32521516205823 49.32521516205823 49.32521516205823 49.32521516205823 49.303241164621866 49.32521516205823 49.32521516205823 49.32521516205823 49.32521516205823 49.32521516205823 49.32521516205823 49.32521516205823 49.32521516205823 49.32521516205823 49.32521516205823 49.32521516205823 49.32521516205823 49.32521516205823 49.32521516205823 49.32521516205823 49.32521516205823 49.32521516205823 49.32521516205823 49.32521516205823 49.32521516205823 49.32521516205823 49.32521516205823 49.32521516205823 49.32521516205823 49.3471891594946 49.3471891594946 49.369163156930966 49.39113715436733 49.39113715436733 49.4131111518037 49.43508514924007 49.43508514924007 49.43508514924007 49.45705914667643 49.45705914667643 49.43508514924007 49.43508514924007 49.45705914667643 49.45705914667643 49.45705914667643 49.45705914667643 49.479033144112805 49.50100714154917 49.50100714154917 49.50100714154917 49.52298113898553 49.50100714154917 49.50100714154917 49.50100714154917 49.479033144112805 49.45705914667643 49.303241164621866 49.105475187694566 48.95165720563999 48.66599523896723 48.44625526460355 48.00677531587621 47.65519135689434 47.523347372276135 47.1497894158579 46.79820545687603 46.534517487639626 46.182933528657756 45.80937557223952 45.43581761582128 45.06225965940304 44.79857169016664 44.4250137337484 44.18329976194836 43.765793810657385 43.392235854239146 43.08459989013001 42.64511994140267 42.20563999267533 41.89800402856619 41.41457608496612 41.10694012085699 40.68943416956601 40.206006225965936 39.898370261856805 39.305072331074896 38.88756637978392 38.60190441311115 38.20637245925654 38.00860648232924 37.67899652078374 37.3054385643655 36.909906610510895 36.536348654092656 36.118842702801686 35.85515473356528 35.48159677714705 35.23988280534701 34.86632484892877 34.49276689251053 34.22907892327412 33.83354696941952 33.438015015564915 33.174327046328514 32.62497711041934 32.33931514374657 32.0536531770738 31.636147225782825 31.37245925654642 30.998901300128182 30.537447353964474 30.273759384728073 29.878227430873466 29.76835744369163 29.570591466764327 29.306903497527927 29.153085515473357 28.823475553927853 28.62570957700055 28.515839589818714 28.427943600073245 28.38399560520051 28.296099615455045 28.25215162058231 28.208203625709576 28.09833363852774 28.010437648782275 27.944515656473172 27.834645669291337 27.74674967954587 27.68082768723677 27.548983702618568 27.461087712873102 27.329243728254898 27.241347738509432 27.087529756454863 26.88976377952756 26.80186778978209 26.713971800036624 26.58212781541842 26.51620582310932 26.42830983336385 26.36238784105475 26.29646584874565 26.23054385643655 26.208569859000182 26.164621864127447 26.120673869254716 26.098699871818347 26.054751876945616 26.01080388207288 25.944881889763778 25.878959897454678 25.835011902581943 25.769089910272843 25.681193920527377 25.637245925654643 25.571323933345543 25.549349935909174 25.527375938472808 25.527375938472808 25.50540194103644 25.50540194103644 25.50540194103644 25.50540194103644 25.483427943600073 25.461453946163708 25.43947994872734 25.417505951290973 25.37355795641824 25.329609961545504 25.30763596410914 25.263687969236404 25.263687969236404 25.241713971800035 25.21973997436367 25.197765976927304 25.197765976927304 25.197765976927304 25.197765976927304 25.197765976927304 25.197765976927304 25.175791979490935 25.175791979490935 25.175791979490935 25.175791979490935 25.15381798205457 25.15381798205457 25.15381798205457 25.15381798205457 25.15381798205457 25.175791979490935 25.175791979490935 25.175791979490935 25.175791979490935 25.175791979490935 25.175791979490935 25.175791979490935 25.175791979490935 25.175791979490935 25.15381798205457 25.175791979490935 25.175791979490935 25.175791979490935 25.15381798205457 25.15381798205457 25.175791979490935 25.175791979490935 25.175791979490935 25.175791979490935 25.175791979490935 25.175791979490935 25.175791979490935 25.175791979490935 25.175791979490935 25.175791979490935 25.197765976927304 25.175791979490935 25.197765976927304 25.197765976927304 25.197765976927304 25.175791979490935 25.197765976927304 25.197765976927304 25.197765976927304 25.197765976927304 25.197765976927304 25.175791979490935 25.175791979490935 25.197765976927304 25.197765976927304 25.175791979490935 25.197765976927304 25.197765976927304 25.197765976927304 25.197765976927304 25.197765976927304 25.197765976927304 25.197765976927304 25.197765976927304 25.197765976927304 25.197765976927304 25.197765976927304 25.197765976927304 25.197765976927304 25.197765976927304 25.197765976927304 25.197765976927304 25.197765976927304 25.197765976927304 25.197765976927304 25.197765976927304 25.197765976927304 25.197765976927304 25.197765976927304 25.197765976927304 25.197765976927304 25.197765976927304 25.197765976927304 25.197765976927304 25.197765976927304 25.197765976927304 25.197765976927304 25.197765976927304 25.197765976927304 25.175791979490935 25.197765976927304 25.197765976927304 25.197765976927304 25.197765976927304 25.197765976927304 25.197765976927304 25.197765976927304 25.175791979490935 25.197765976927304 25.197765976927304 25.197765976927304 25.197765976927304 25.197765976927304 25.197765976927304 25.197765976927304 25.197765976927304 25.197765976927304 25.197765976927304 25.197765976927304 25.197765976927304 25.197765976927304 25.197765976927304 25.197765976927304 25.197765976927304 25.197765976927304 25.197765976927304 25.197765976927304 25.197765976927304 25.197765976927304 25.197765976927304 25.197765976927304 25.197765976927304 25.197765976927304 25.197765976927304 25.197765976927304 25.197765976927304 25.197765976927304 25.197765976927304 25.197765976927304 25.197765976927304 25.197765976927304 25.197765976927304 25.197765976927304 25.197765976927304 25.197765976927304 25.197765976927304 25.197765976927304 25.197765976927304 25.197765976927304 25.197765976927304 25.197765976927304 25.197765976927304 25.197765976927304 25.21973997436367 25.197765976927304 25.197765976927304 25.197765976927304 25.197765976927304 25.197765976927304 25.197765976927304 25.197765976927304 25.197765976927304 25.197765976927304 25.197765976927304 25.197765976927304 25.197765976927304 25.197765976927304 25.197765976927304 25.21973997436367 25.197765976927304 25.197765976927304 25.197765976927304 25.197765976927304 25.21973997436367 25.197765976927304 25.197765976927304 25.197765976927304 25.197765976927304 25.197765976927304 25.197765976927304 25.197765976927304 25.197765976927304 25.197765976927304 25.197765976927304 25.197765976927304 25.197765976927304 25.197765976927304 25.197765976927304 25.197765976927304 25.197765976927304 25.197765976927304 25.197765976927304 25.21973997436367 25.197765976927304 25.197765976927304 25.197765976927304 25.197765976927304 25.197765976927304 25.197765976927304 25.197765976927304 25.197765976927304 25.21973997436367 25.197765976927304 25.197765976927304 25.197765976927304 25.21973997436367 25.197765976927304 25.21973997436367 25.197765976927304 25.21973997436367 25.197765976927304 25.21973997436367 25.197765976927304 25.21973997436367 25.21973997436367 25.21973997436367 25.21973997436367 25.21973997436367 25.21973997436367 25.21973997436367 25.21973997436367 25.21973997436367 25.241713971800035 25.241713971800035 25.263687969236404 25.263687969236404 25.28566196667277 25.30763596410914 25.329609961545504 25.37355795641824 25.461453946163708 25.571323933345543 25.637245925654643 25.769089910272843 25.856985900018312 26.032777879509247 26.14264786669108 26.340413843618386 26.60410181285479 26.73594579747299 26.97765976927303 27.131477751327594 27.548983702618568 27.658853689800402 28.076359641091376 28.55978758469145 29.065189525727888 29.438747482146127 29.966123420618935 30.383629371909905 30.757187328328143 31.37245925654642 31.74601721296466 32.27339315143747 32.97656106940121 33.174327046328514 34.18513092840139 34.49276689251053 34.86632484892877 35.26185680278337 35.65738875663798 36.052920710492586 36.58029664896539 37.2395165720564 37.87676249771104 38.31624244643838 38.75572239516572 39.458890313129466 39.8324482695477 40.447720197765975 41.21681010803882 41.83208203625709 42.2276139901117 42.62314594396631 43.172495879875484 43.74381981322102 44.11737776963926 44.66672770554844 45.19410364402124 45.52371360556674 46.00714154916682 46.33675151071232 46.79820545687603 47.23768540560337 47.47939937740341 47.91887932613075 48.07269730818531 48.24848928767625 48.51217725691265 48.62204724409449 48.77586522614906 48.92968320820363 49.105475187694566 49.237319172312766 49.3471891594946 49.4131111518037 49.45705914667643 49.479033144112805 49.479033144112805 49.479033144112805 49.45705914667643 49.45705914667643 49.45705914667643 49.45705914667643 49.45705914667643 49.43508514924007 49.43508514924007 49.43508514924007 49.43508514924007 49.45705914667643 49.43508514924007 49.43508514924007 49.45705914667643 49.45705914667643 49.45705914667643 49.45705914667643 49.45705914667643 49.45705914667643 49.45705914667643 49.43508514924007 49.43508514924007 49.43508514924007 49.45705914667643 49.43508514924007 49.45705914667643 49.43508514924007 49.45705914667643 49.45705914667643 49.43508514924007 49.43508514924007 49.43508514924007 49.43508514924007 49.4131111518037 49.39113715436733 49.369163156930966 49.3471891594946 49.2812671671855 49.2812671671855 49.237319172312766 49.237319172312766 49.19337117744003 49.19337117744003 49.171397180003666 49.14942318256729 49.12744918513093 49.105475187694566 49.105475187694566 49.08350119025819 49.08350119025819 49.08350119025819 49.08350119025819 49.08350119025819 49.08350119025819 49.08350119025819 49.08350119025819 49.08350119025819 49.08350119025819 49.08350119025819 49.08350119025819 49.08350119025819 49.08350119025819 49.08350119025819 49.08350119025819 49.105475187694566 49.105475187694566 49.105475187694566 49.105475187694566 49.105475187694566 49.105475187694566 49.105475187694566 49.12744918513093 49.12744918513093 49.12744918513093 49.12744918513093 49.12744918513093 49.12744918513093 49.12744918513093 49.12744918513093 49.12744918513093 49.12744918513093 49.12744918513093 49.12744918513093 49.12744918513093 49.105475187694566 49.12744918513093 49.12744918513093 49.12744918513093 49.12744918513093 49.12744918513093 49.12744918513093 49.12744918513093 49.12744918513093 49.12744918513093 49.12744918513093 49.12744918513093 49.12744918513093 49.105475187694566 49.12744918513093 49.12744918513093 49.105475187694566 49.105475187694566 49.08350119025819 49.06152719282183 49.06152719282183 49.06152719282183 49.06152719282183 49.06152719282183 49.06152719282183 49.06152719282183 49.06152719282183 49.03955319538546 49.01757919794909 48.99560520051273 48.97363120307636 48.97363120307636 48.95165720563999 48.95165720563999 48.92968320820363 48.92968320820363 48.90770921076726 48.90770921076726 48.90770921076726 48.92968320820363 48.92968320820363 48.92968320820363 48.92968320820363 48.92968320820363 48.95165720563999 48.92968320820363 48.95165720563999 48.95165720563999 48.95165720563999 48.95165720563999 48.95165720563999 48.95165720563999 48.97363120307636 48.97363120307636 48.97363120307636 48.97363120307636 48.97363120307636 48.97363120307636 48.97363120307636 48.97363120307636 48.97363120307636 48.97363120307636 48.95165720563999 48.97363120307636 48.95165720563999 48.95165720563999 48.95165720563999 48.95165720563999 48.95165720563999 48.95165720563999 48.95165720563999 48.97363120307636 48.95165720563999 48.95165720563999 48.95165720563999 48.95165720563999 48.95165720563999 48.95165720563999 48.95165720563999 48.95165720563999 48.95165720563999 48.92968320820363 48.92968320820363 48.92968320820363 48.92968320820363 48.90770921076726 48.90770921076726 48.88573521333089 48.90770921076726 48.88573521333089 48.88573521333089 48.88573521333089 48.88573521333089 48.88573521333089 48.88573521333089 48.86376121589453 48.86376121589453 48.84178721845816 48.84178721845816 48.84178721845816 48.81981322102179 48.77586522614906 48.73191723127633 48.70994323383995 48.68796923640359 48.68796923640359 48.66599523896723 48.66599523896723 48.64402124153085 48.62204724409449 48.60007324665812 48.60007324665812 48.57809924922175 48.57809924922175 48.57809924922175 48.57809924922175 48.57809924922175 48.57809924922175 48.57809924922175 48.57809924922175 48.57809924922175 48.55612525178539 48.53415125434902 48.51217725691265 48.46822926203992 48.40230726973082 48.29243728254899 48.20454129280351 48.02874931331258 47.91887932613075 47.67716535433071 47.30360739791247 47.083867423548796 46.842153451748764 46.600439479948726 46.27082951840322 45.74345357993042 45.43581761582128 44.9523896722212 44.46896172862113 44.11737776963926 43.61197582860282 43.326313861930046 42.776963926020876 42.293535982420806 41.94195202343893 41.52444607214796 41.084966123420614 40.645486174693275 40.227980223402305 39.920344259293174 39.678630287493135 39.28309833363853 39.01941036440212 38.64585240798389 38.18439846182018 37.94268449002014 37.59110053103827 37.3713605566746 37.1735945797473 36.756088628456325 36.536348654092656 36.20673869254715 35.87712873100165 35.65738875663798 35.32777879509247 35.10803882072881 34.75645486174693 34.42684490020143 34.16315693096502 33.83354696941952 33.48196301043765 33.240249038637614 32.82274308734664 32.62497711041934 32.42721113349204 32.14154916681926 31.94378318989196 31.68009522065556 31.328511261673686 31.174693279619117 30.932979307819082 30.757187328328143 30.58139534883721 30.317707379600805 30.07599340780077 29.812305438564366 29.54861746932796 29.328877494964292 29.021241530855153 28.801501556491484 28.449917597509614 28.09833363852774 27.96648965390954 27.856619666727706 27.768723676982237 27.636879692364037 27.548983702618568 27.439113715436733 27.395165720564 27.307269730818533 27.241347738509432 27.153451748763963 27.10950375389123 27.04358176158213 26.933711774400294 26.845815784654825 26.80186778978209 26.713971800036624 26.626075810291155 26.51620582310932 26.45028383080022 26.340413843618386 26.252517853872916 26.164621864127447 26.07672587438198 25.966855887200147 25.900933894891047 25.791063907709212 25.72514191540011 25.615271928218274 25.549349935909174 25.527375938472808 25.50540194103644 25.483427943600073 25.461453946163708 25.417505951290973 25.395531953854604 25.395531953854604 25.37355795641824 25.37355795641824 25.329609961545504 25.30763596410914 25.28566196667277 25.263687969236404 25.263687969236404 25.241713971800035 25.21973997436367 25.21973997436367 25.21973997436367 25.197765976927304 25.175791979490935 25.175791979490935 25.175791979490935 25.175791979490935 25.15381798205457 25.15381798205457 25.1318439846182 25.1318439846182 25.1318439846182 25.1318439846182 25.109869987181835 25.109869987181835 25.109869987181835 25.109869987181835 25.109869987181835 25.109869987181835 25.109869987181835 25.109869987181835 25.08789598974547 25.08789598974547 25.08789598974547 25.08789598974547 25.08789598974547 25.08789598974547 25.08789598974547 25.08789598974547 25.08789598974547 25.0659219923091 25.08789598974547 25.08789598974547 25.0659219923091 25.08789598974547 25.08789598974547 25.08789598974547 25.08789598974547 25.08789598974547 25.08789598974547 25.08789598974547 25.08789598974547 25.08789598974547 25.08789598974547 25.08789598974547 25.08789598974547 25.08789598974547 25.08789598974547 25.08789598974547 25.08789598974547 25.08789598974547 25.08789598974547 25.08789598974547 25.08789598974547 25.08789598974547 25.08789598974547 25.08789598974547 25.109869987181835 25.08789598974547 25.08789598974547 25.109869987181835 25.08789598974547 25.08789598974547 25.08789598974547 25.08789598974547 25.08789598974547 25.08789598974547 25.08789598974547 25.08789598974547 25.08789598974547 25.08789598974547 25.08789598974547 25.08789598974547 25.08789598974547 25.08789598974547 25.109869987181835 25.109869987181835 25.08789598974547 25.08789598974547 25.109869987181835 25.109869987181835 25.109869987181835 25.08789598974547 25.109869987181835 25.08789598974547 25.109869987181835 25.109869987181835 25.109869987181835 25.109869987181835 25.109869987181835 25.109869987181835 25.109869987181835 25.109869987181835 25.109869987181835 25.109869987181835 25.109869987181835 25.109869987181835 25.109869987181835 25.109869987181835 25.109869987181835 25.109869987181835 25.109869987181835 25.109869987181835 25.109869987181835 25.109869987181835 25.109869987181835 25.109869987181835 25.109869987181835 25.109869987181835 25.109869987181835 25.109869987181835 25.109869987181835 25.109869987181835 25.109869987181835 25.109869987181835 25.109869987181835 25.109869987181835 25.109869987181835 25.109869987181835 25.1318439846182 25.109869987181835 25.109869987181835 25.109869987181835 25.1318439846182 25.109869987181835 25.109869987181835 25.109869987181835 25.109869987181835 25.1318439846182 25.109869987181835 25.1318439846182 25.109869987181835 25.109869987181835 25.1318439846182 25.109869987181835 25.109869987181835 25.1318439846182 25.109869987181835 25.109869987181835 25.1318439846182 25.1318439846182 25.1318439846182 25.109869987181835 25.1318439846182 25.1318439846182 25.1318439846182 25.1318439846182 25.1318439846182 25.1318439846182 25.1318439846182 25.109869987181835 25.1318439846182 25.1318439846182 25.1318439846182 25.1318439846182 25.1318439846182 25.1318439846182 25.1318439846182 25.1318439846182 25.1318439846182 25.109869987181835 25.1318439846182 25.1318439846182 25.1318439846182 25.109869987181835 25.1318439846182 25.1318439846182 25.1318439846182 25.1318439846182 25.1318439846182 25.1318439846182 25.1318439846182 25.1318439846182 25.1318439846182 25.1318439846182 25.1318439846182 25.1318439846182 25.15381798205457 25.15381798205457 25.15381798205457 25.15381798205457 25.15381798205457 25.175791979490935 25.175791979490935 25.175791979490935 25.175791979490935 25.175791979490935 25.197765976927304 25.197765976927304 25.21973997436367 25.263687969236404 25.28566196667277 25.417505951290973 25.527375938472808 25.615271928218274 25.747115912836477 25.835011902581943 25.944881889763778 26.098699871818347 26.252517853872916 26.42830983336385 26.51620582310932 26.691997802600255 26.867789782091194 26.97765976927303 27.219373741073063 27.527009705182202 27.74674967954587 28.076359641091376 28.296099615455045 28.669657571873284 29.19703351034609 29.460721479582496 29.70243545138253 30.07599340780077 30.317707379600805 30.845083318073613 31.130745284746382 31.482329243728255 31.89983519501923 32.16352316425563 32.49313312580114 32.88866507965574 33.240249038637614 33.789598974546784 34.03131294634682 34.36092290789233 34.80040285661967 35.10803882072881 35.67936275407435 35.96502472074712 36.272660684856255 36.712140633583594 37.019776597692726 37.48123054385644 38.09650247207471 38.40413843618385 38.88756637978392 39.21717634132943 39.722578282365866 40.052188243911374 40.381798205456874 40.99707013367515 41.45852407983885 41.74418604651163 42.18366599523897 42.62314594396631 42.90880791063908 43.326313861930046 43.61197582860282 44.02948177989379 44.40303973631203 44.66672770554844 45.15015564914851 45.45779161325764 45.56766160043948 45.853323567112255 46.00714154916682 46.248855520966856 46.468595495330526 46.64438747482146 46.79820545687603 46.908075444057864 46.995971433803334 47.1497894158579 47.215711408167 47.2816334004761 47.325581395348834 47.3475553927852 47.36952939022157 47.36952939022157 47.391503387657934 47.391503387657934 47.36952939022157 47.391503387657934 47.36952939022157 47.36952939022157 47.3475553927852 47.3475553927852 47.30360739791247 47.259659403039734 47.215711408167 47.17176341329427 47.127815418421534 47.127815418421534 47.10584142098517 47.083867423548796 47.061893426112434 47.017945431239696 47.017945431239696 46.973997436366965 46.93004944149423 46.908075444057864 46.86412744918513 46.86412744918513 46.842153451748764 46.820179454312395 46.820179454312395 46.820179454312395 46.79820545687603 46.79820545687603 46.79820545687603 46.776231459439664 46.776231459439664 46.776231459439664 46.776231459439664 46.754257462003295 46.754257462003295 46.754257462003295 46.73228346456693 46.73228346456693 46.688335469694195 46.66636147225783 46.64438747482146 46.622413477385095 46.64438747482146 46.622413477385095 46.622413477385095 46.64438747482146 46.64438747482146 46.622413477385095 46.622413477385095 46.622413477385095 46.622413477385095 46.622413477385095 46.622413477385095 46.622413477385095 46.622413477385095 46.622413477385095 46.600439479948726 46.534517487639626 46.51254349020326 46.490569492766895 46.44662149789416 46.424647500457795 46.380699505585056 46.380699505585056 46.33675151071232 46.314777513275956 46.27082951840322 46.22688152353049 46.20490752609412 46.182933528657756 46.13898553378502 46.117011536348656 46.09503753891229 46.07306354147592 46.07306354147592 46.02911554660319 45.985167551730456 46.00714154916682 45.985167551730456 45.985167551730456 45.985167551730456 45.985167551730456 46.00714154916682 46.00714154916682 46.00714154916682 46.00714154916682 46.02911554660319 46.02911554660319 46.02911554660319 46.02911554660319 46.02911554660319 46.02911554660319 46.02911554660319 46.02911554660319 46.02911554660319 46.02911554660319 46.02911554660319 46.02911554660319 46.02911554660319 46.02911554660319 46.051089544039556 46.051089544039556 46.02911554660319 46.051089544039556 46.051089544039556 46.051089544039556 46.051089544039556 46.051089544039556 46.051089544039556 46.051089544039556 46.051089544039556 46.051089544039556 46.051089544039556 46.051089544039556 46.051089544039556 46.051089544039556 46.051089544039556 46.051089544039556 46.051089544039556 46.051089544039556 46.051089544039556 46.02911554660319 46.051089544039556 46.051089544039556 46.02911554660319 46.02911554660319 46.02911554660319 46.02911554660319 46.02911554660319 46.02911554660319 46.02911554660319 46.02911554660319 46.02911554660319 46.02911554660319 46.00714154916682 46.00714154916682 46.00714154916682 45.985167551730456 45.985167551730456 45.96319355429409 45.94121955685772 45.96319355429409 45.96319355429409 45.96319355429409 45.96319355429409 45.96319355429409 45.96319355429409 45.96319355429409 45.96319355429409 45.96319355429409 45.96319355429409 45.96319355429409 45.96319355429409 45.96319355429409 45.96319355429409 45.94121955685772 45.919245559421356 45.89727156198498 45.89727156198498 45.853323567112255 45.853323567112255 45.78740157480315 45.76542757736678 45.74345357993042 45.74345357993042 45.74345357993042 45.74345357993042 45.74345357993042 45.72147958249405 45.74345357993042 45.74345357993042 45.74345357993042 45.74345357993042 45.74345357993042 45.74345357993042 45.74345357993042 45.74345357993042 45.74345357993042 45.74345357993042 45.74345357993042 45.74345357993042 45.76542757736678 45.78740157480315 45.80937557223952 45.83134956967588 45.87529756454862 45.89727156198498 45.919245559421356 45.94121955685772 45.985167551730456 46.00714154916682 46.02911554660319 46.051089544039556 46.051089544039556 46.07306354147592 46.09503753891229 46.117011536348656 46.117011536348656 46.13898553378502 46.13898553378502 46.16095953122139 46.20490752609412 46.20490752609412 46.20490752609412 46.22688152353049 46.248855520966856 46.27082951840322 46.248855520966856 46.248855520966856 46.248855520966856 46.248855520966856 46.248855520966856 46.22688152353049 46.16095953122139 46.117011536348656 46.07306354147592 45.919245559421356 45.80937557223952 45.67753158762132 45.39186962094854 45.19410364402124 44.86449368247574 44.51290972349386 44.205273759384724 43.831715802966485 43.370261856802784 43.040651895257284 42.49130195934811 42.0957700054935 41.56839406702069 40.953122138802414 40.49166819263871 39.678630287493135 39.48086431056583 38.93151437465666 38.36019044131112 37.98663248489288 37.2395165720564 36.690166636147225 36.360556674601725 36.052920710492586 35.72331074894708 35.32777879509247 34.80040285661967 34.55868888481963 34.207104925837754 33.877494964292254 33.657754989928584 33.39406702069218 33.240249038637614 33.04248306171031 32.866691082219376 32.712873100164806 32.55905511811024 32.3832631386193 32.22944515656473 32.0536531770738 31.921809192455594 31.78996520783739 31.59219923091009 31.41640725141915 31.174693279619117 30.845083318073613 30.51547335652811 30.36165537447354 30.163889397546235 29.9880974180553 29.70243545138253 29.460721479582496 29.219007507782457 29.021241530855153 28.801501556491484 28.669657571873284 28.515839589818714 28.31807361289141 28.18622962827321 28.142281633400476 28.076359641091376 28.03241164621864 27.988463651345906 27.944515656473172 27.922541659036806 27.90056766160044 27.856619666727706 27.81267167185497 27.768723676982237 27.724775682109502 27.636879692364037 27.592931697491302 27.548983702618568 27.483061710309467 27.395165720564 27.307269730818533 27.219373741073063 27.153451748763963 27.065555759018494 26.933711774400294 26.867789782091194 26.757919794909355 26.648049807727524 26.58212781541842 26.494231825672955 26.42830983336385 26.340413843618386 26.252517853872916 26.208569859000182 26.164621864127447 26.14264786669108 26.098699871818347 26.054751876945616 26.032777879509247 26.01080388207288 25.966855887200147 25.944881889763778 25.900933894891047 25.835011902581943 25.813037905145578 25.769089910272843 25.747115912836477 25.703167917963743 25.65921992309101 25.637245925654643 25.615271928218274 25.571323933345543 25.549349935909174 25.50540194103644 25.483427943600073 25.43947994872734 25.43947994872734 25.417505951290973 25.395531953854604 25.35158395898187 25.329609961545504 25.30763596410914 25.28566196667277 25.28566196667277 25.28566196667277 25.263687969236404 25.241713971800035 25.241713971800035 25.21973997436367 25.21973997436367 25.21973997436367 25.197765976927304 25.197765976927304 25.197765976927304 25.197765976927304 25.175791979490935 25.175791979490935 25.175791979490935 25.175791979490935 25.175791979490935 25.15381798205457 25.15381798205457 25.15381798205457 25.15381798205457 25.15381798205457 25.15381798205457 25.15381798205457 25.1318439846182 25.1318439846182 25.1318439846182 25.1318439846182 25.1318439846182 25.1318439846182 25.1318439846182 25.109869987181835 25.1318439846182 25.1318439846182 25.109869987181835 25.109869987181835 25.109869987181835 25.109869987181835 25.109869987181835 25.109869987181835 25.109869987181835 25.109869987181835 25.109869987181835 25.109869987181835 25.109869987181835 25.109869987181835 25.109869987181835 25.109869987181835 25.109869987181835 25.109869987181835 25.109869987181835 25.109869987181835 25.08789598974547 25.109869987181835 25.109869987181835 25.08789598974547 25.08789598974547 25.08789598974547 25.08789598974547 25.08789598974547 25.08789598974547 25.08789598974547 25.08789598974547 25.08789598974547 25.08789598974547 25.08789598974547 25.0659219923091 25.0659219923091 25.0659219923091 25.0659219923091 25.08789598974547 25.0659219923091 25.08789598974547 25.0659219923091 25.0659219923091 25.0659219923091 25.0659219923091 25.0659219923091 25.0659219923091 25.0659219923091 25.0659219923091 25.0659219923091 25.0659219923091 25.0659219923091 25.0659219923091 25.0659219923091 25.0659219923091 25.0659219923091 25.0659219923091 25.0659219923091 25.0659219923091 25.0659219923091 25.0659219923091 25.0659219923091 25.0659219923091 25.043947994872735 25.043947994872735 25.043947994872735 25.0659219923091 25.043947994872735 25.043947994872735 25.043947994872735 25.043947994872735 25.043947994872735 25.043947994872735 25.043947994872735 25.043947994872735 25.043947994872735 25.043947994872735 25.043947994872735 25.043947994872735 25.043947994872735 25.043947994872735 25.043947994872735 25.043947994872735 25.043947994872735 25.043947994872735 25.043947994872735 25.021973997436366 25.043947994872735 25.043947994872735 25.043947994872735 25.043947994872735 25.043947994872735 25.043947994872735 25.043947994872735 25.043947994872735 25.043947994872735 25.043947994872735 25.043947994872735 25.043947994872735 25.043947994872735 25.043947994872735 25.043947994872735 25.043947994872735 25.043947994872735 25.043947994872735 25.021973997436366 25.043947994872735 25.043947994872735 25.021973997436366 25.021973997436366 25.043947994872735 25.021973997436366 25.043947994872735 25.021973997436366 25.021973997436366 25.021973997436366 25.021973997436366 25.021973997436366 25.021973997436366 25.021973997436366 25.021973997436366 25.021973997436366 25.021973997436366 25.021973997436366 25.021973997436366 25.021973997436366 25.021973997436366 25.021973997436366 25.021973997436366 25.021973997436366 25.021973997436366 25.021973997436366 25.021973997436366 25.021973997436366 25.021973997436366 25.021973997436366 25.021973997436366 25.043947994872735 25.043947994872735 25.0659219923091 25.0659219923091 25.0659219923091 25.0659219923091 25.0659219923091 25.0659219923091 25.08789598974547 25.1318439846182 25.15381798205457 25.175791979490935 25.28566196667277 25.37355795641824 25.461453946163708 25.637245925654643 25.72514191540011 25.900933894891047 26.054751876945616 26.164621864127447 26.318439846182017 26.42830983336385 26.58212781541842 26.73594579747299 26.845815784654825 27.04358176158213 27.153451748763963 27.351217725691264 27.527009705182202 27.724775682109502 28.03241164621864 28.362021607764145 28.55978758469145 29.043215528291523 29.219007507782457 29.570591466764327 29.812305438564366 30.14191540010987 30.42757736678264 30.911005310382713 31.196667277055482 31.65812122321919 31.987731184764694 32.5151071232375 33.064457059146676 33.635780992492215 34.03131294634682 34.60263687969236 34.99816883354697 35.54751876945615 35.921076725874386 36.668192638710856 37.195568577183664 37.59110053103827 37.94268449002014 38.40413843618385 38.75572239516572 39.28309833363853 39.788500274674966 40.315876213147774 40.84325215162058 41.19483611060245 41.74418604651163 42.27156198498443 42.60117194652994 43.08459989013001 43.414209851675515 43.897637795275585 44.2931697491302 44.5568577183666 45.04028566196667 45.23805163889398 45.43581761582128 45.65555759018495 45.78740157480315 45.94121955685772 46.07306354147592 46.117011536348656 46.13898553378502 46.16095953122139 46.16095953122139 46.16095953122139 46.13898553378502 46.16095953122139 46.182933528657756 46.182933528657756 46.182933528657756 46.182933528657756 46.182933528657756 46.182933528657756 46.182933528657756 46.16095953122139 46.182933528657756 46.182933528657756 46.182933528657756 46.182933528657756 46.16095953122139 46.16095953122139 46.16095953122139 46.16095953122139 46.16095953122139 46.16095953122139 46.16095953122139 46.16095953122139 46.182933528657756 46.182933528657756 46.182933528657756 46.20490752609412 46.22688152353049 46.22688152353049 46.22688152353049 46.248855520966856 46.248855520966856 46.22688152353049 46.22688152353049 46.22688152353049 46.20490752609412 46.20490752609412 46.182933528657756 46.182933528657756 46.16095953122139 46.16095953122139 46.182933528657756 46.182933528657756 46.182933528657756 46.182933528657756 46.182933528657756 46.16095953122139 46.16095953122139 46.13898553378502 46.13898553378502 46.117011536348656 46.117011536348656 46.117011536348656 46.117011536348656 46.117011536348656 46.117011536348656 46.117011536348656 46.117011536348656 46.117011536348656 46.117011536348656 46.117011536348656 46.117011536348656 46.117011536348656 46.117011536348656 46.117011536348656 46.117011536348656 46.117011536348656 46.117011536348656 46.117011536348656 46.13898553378502 46.13898553378502 46.13898553378502 46.13898553378502 46.16095953122139 46.13898553378502 46.13898553378502 46.16095953122139 46.13898553378502 46.13898553378502 46.13898553378502 46.117011536348656 46.09503753891229 46.09503753891229 46.07306354147592 46.051089544039556 46.02911554660319 46.02911554660319 46.00714154916682 45.985167551730456 45.96319355429409 45.94121955685772 45.919245559421356 45.89727156198498 45.87529756454862 45.87529756454862 45.87529756454862 45.89727156198498 45.89727156198498 45.89727156198498 45.89727156198498 45.89727156198498 45.89727156198498 45.919245559421356 45.919245559421356 45.919245559421356 45.919245559421356 45.919245559421356 45.919245559421356 45.919245559421356 45.919245559421356 45.919245559421356 45.919245559421356 45.919245559421356 45.89727156198498 45.89727156198498 45.89727156198498 45.87529756454862 45.853323567112255 45.853323567112255 45.87529756454862 45.87529756454862 45.89727156198498 45.89727156198498 45.89727156198498 45.919245559421356 45.919245559421356 45.919245559421356 45.919245559421356 45.919245559421356 45.919245559421356 45.94121955685772 45.94121955685772 45.94121955685772 45.919245559421356 45.919245559421356 45.919245559421356 45.919245559421356 45.919245559421356 45.919245559421356 45.919245559421356 45.89727156198498 45.89727156198498 45.89727156198498 45.87529756454862 45.89727156198498 45.87529756454862 45.87529756454862 45.87529756454862 45.87529756454862 45.87529756454862 45.87529756454862 45.87529756454862 45.87529756454862 45.87529756454862 45.87529756454862 45.87529756454862 45.87529756454862 45.87529756454862 45.87529756454862 45.87529756454862 45.87529756454862 45.853323567112255 45.853323567112255 45.83134956967588 45.83134956967588 45.80937557223952 45.80937557223952 45.80937557223952 45.80937557223952 45.80937557223952 45.80937557223952 45.80937557223952 45.83134956967588 45.83134956967588 45.853323567112255 45.853323567112255 45.87529756454862 45.87529756454862 45.87529756454862 45.87529756454862 45.87529756454862 45.89727156198498 45.89727156198498 45.87529756454862 45.87529756454862 45.89727156198498 45.89727156198498 45.89727156198498 45.87529756454862 45.89727156198498 45.89727156198498 45.89727156198498 45.87529756454862 45.89727156198498 45.89727156198498 45.89727156198498 45.89727156198498 45.89727156198498 45.87529756454862 45.89727156198498 45.89727156198498 45.89727156198498 45.89727156198498 45.89727156198498 45.89727156198498 45.919245559421356 45.919245559421356 45.919245559421356 45.919245559421356 45.94121955685772 45.94121955685772 45.94121955685772 45.96319355429409 45.96319355429409 45.985167551730456 45.985167551730456 45.985167551730456 45.985167551730456 45.985167551730456 45.96319355429409 45.96319355429409 45.94121955685772 45.89727156198498 45.78740157480315 45.69950558505768 45.58963559787585 45.50173960813038 45.39186962094854 45.17212964658488 45.04028566196667 44.93041567478484 44.64475370811206 44.4909357260575 44.24922175425746 43.98553378502106 43.80974180553012 43.502105841420985 43.304339864493684 42.996703900384546 42.68906793627541 42.44735396447537 42.13971800036623 41.78813404138436 41.52444607214796 41.15088811572972 40.84325215162058 40.33785021058414 40.074162241347736 39.810474272111335 39.34902032594763 39.12928035158396 38.90954037722029 38.49203442592932 38.31624244643838 38.00860648232924 37.7668925105292 37.5691265336019 37.28346456692913 37.1735945797473 36.80003662332906 36.492400659219925 36.272660684856255 35.96502472074712 35.63541475920161 35.28383080021974 35.08606482329244 34.88829884636513 34.62461087712873 34.36092290789233 34.16315693096502 33.83354696941952 33.591832997619484 33.416041018128546 33.130379051455776 33.04248306171031 32.66892510529207 32.4491851309284 32.27339315143747 32.03167917963743 31.81193920527376 31.65812122321919 31.43838124885552 31.21864127449185 31.08679728987365 30.86705731550998 30.669291338582678 30.537447353964474 30.317707379600805 30.163889397546235 29.900201428309835 29.680461453946165 29.54861746932796 29.394799487273392 29.240981505218826 28.999267533418788 28.69163156930965 28.53781358725508 28.31807361289141 28.16425563083684 28.010437648782275 27.90056766160044 27.81267167185497 27.768723676982237 27.724775682109502 27.702801684673137 27.658853689800402 27.636879692364037 27.570957700054933 27.527009705182202 27.483061710309467 27.417139718000367 27.329243728254898 27.285295733382164 27.17542574620033 27.10950375389123 27.04358176158213 26.933711774400294 26.88976377952756 26.779893792345725 26.713971800036624 26.626075810291155 26.560153817982055 26.51620582310932 26.472257828236586 26.406335835927486 26.38436183849112 26.340413843618386 26.29646584874565 26.252517853872916 26.208569859000182 26.164621864127447 26.120673869254716 26.098699871818347 26.07672587438198 26.032777879509247 25.988829884636512 25.944881889763778 25.922907892327412 25.922907892327412 25.922907892327412 25.900933894891047 25.856985900018312 25.813037905145578 25.769089910272843 25.72514191540011 25.65921992309101 25.637245925654643 25.571323933345543 25.527375938472808 25.483427943600073 25.461453946163708 25.461453946163708 25.417505951290973 25.395531953854604 25.37355795641824 25.35158395898187 25.329609961545504 25.329609961545504 25.30763596410914 25.30763596410914 25.28566196667277 25.263687969236404 25.263687969236404 25.263687969236404 25.263687969236404 25.241713971800035 25.241713971800035 25.21973997436367 25.21973997436367 25.21973997436367 25.197765976927304 25.197765976927304 25.175791979490935 25.175791979490935 25.175791979490935 25.175791979490935 25.15381798205457 25.15381798205457 25.15381798205457 25.1318439846182 25.15381798205457 25.1318439846182 25.1318439846182 25.1318439846182 25.1318439846182 25.1318439846182 25.1318439846182 25.109869987181835 25.1318439846182 25.109869987181835 25.109869987181835 25.109869987181835 25.109869987181835 25.109869987181835 25.109869987181835 25.109869987181835 25.109869987181835 25.109869987181835 25.109869987181835 25.109869987181835 25.109869987181835 25.109869987181835 25.109869987181835 25.109869987181835 25.109869987181835 25.109869987181835 25.08789598974547 25.109869987181835 25.08789598974547 25.08789598974547 25.08789598974547 25.08789598974547 25.109869987181835 25.109869987181835 25.08789598974547 25.08789598974547 25.08789598974547 25.08789598974547 25.08789598974547 25.08789598974547 25.08789598974547 25.08789598974547 25.08789598974547 25.08789598974547 25.08789598974547 25.08789598974547 25.08789598974547 25.08789598974547 25.08789598974547 25.08789598974547 25.08789598974547 25.08789598974547 25.08789598974547 25.08789598974547 25.08789598974547 25.08789598974547 25.0659219923091 25.0659219923091 25.0659219923091 25.0659219923091 25.0659219923091 25.0659219923091 25.0659219923091 25.0659219923091 25.0659219923091 25.0659219923091 25.0659219923091 25.0659219923091 25.0659219923091 25.0659219923091 25.0659219923091 25.0659219923091 25.043947994872735 25.043947994872735 25.043947994872735 25.043947994872735 25.043947994872735 25.043947994872735 25.043947994872735 25.043947994872735 25.043947994872735 25.043947994872735 25.043947994872735 25.043947994872735 25.043947994872735 25.043947994872735 25.043947994872735 25.021973997436366 25.021973997436366 25.021973997436366 25.021973997436366 25.021973997436366 25.021973997436366 25.021973997436366 25.021973997436366 25.021973997436366 25.021973997436366 25.021973997436366 25.021973997436366 25.021973997436366 25.021973997436366 25.021973997436366 25.021973997436366 25.021973997436366 25.021973997436366 25.021973997436366 25.021973997436366 25.021973997436366 25.0 25.021973997436366 25.021973997436366 25.0 25.021973997436366 25.021973997436366 25.021973997436366 25.0 25.021973997436366 25.0 25.0 25.0 25.0 25.0 25.0 25.0 25.0 25.0 25.0 25.0 25.0 25.0 25.0 25.0 25.0 25.0 25.0 25.0 25.0 24.978026002563634 24.978026002563634 24.978026002563634 24.978026002563634 25.0 24.978026002563634 24.978026002563634 25.0 25.0 24.978026002563634 24.978026002563634 24.978026002563634 24.978026002563634 25.0 25.0 24.978026002563634 25.0 24.978026002563634 24.978026002563634 25.0 24.978026002563634 25.0 24.978026002563634 25.0 24.978026002563634 25.0 24.978026002563634 25.0 25.0 25.0 25.0 24.978026002563634 25.0 24.978026002563634 24.978026002563634 24.978026002563634 25.0 24.978026002563634 24.978026002563634 24.978026002563634 24.978026002563634 24.978026002563634 24.978026002563634 24.978026002563634 24.978026002563634 24.956052005127265 24.978026002563634 24.978026002563634 24.956052005127265 24.978026002563634 24.956052005127265 24.978026002563634 24.956052005127265 24.978026002563634 24.978026002563634 24.978026002563634 24.956052005127265 24.978026002563634 24.978026002563634 24.978026002563634 24.978026002563634 24.978026002563634 24.978026002563634 24.978026002563634 24.978026002563634 24.978026002563634 24.978026002563634 24.978026002563634 24.978026002563634 25.021973997436366 25.021973997436366 25.021973997436366 25.043947994872735 25.0659219923091 25.0659219923091 25.109869987181835 25.1318439846182 25.241713971800035 25.263687969236404 25.395531953854604 25.50540194103644 25.593297930781908 25.747115912836477 25.900933894891047 26.01080388207288 26.164621864127447 26.274491851309286 26.406335835927486 26.51620582310932 26.58212781541842 26.73594579747299 26.779893792345725 26.845815784654825 26.95568577183666 27.02160776414576 27.131477751327594 27.263321735945798 27.351217725691264 27.461087712873102 27.548983702618568 27.658853689800402 27.834645669291337 28.03241164621864 28.27412561801868 28.53781358725508 28.71360556674602 28.999267533418788 29.175059512909723 29.526643471891596 29.944149423182566 30.20783739241897 30.647317341146312 31.130745284746382 31.46035524629189 32.00970518220106 32.42721113349204 32.95458707196484 33.525911005310384 33.89946896172862 34.49276689251053 34.93224684123787 35.59146676432888 35.921076725874386 36.250686687419886 36.58029664896539 37.2395165720564 37.5691265336019 38.05255447720198 38.53598242080205 38.88756637978392 39.32704632851126 39.6346822926204 40.074162241347736 40.513642190075075 40.82127815418421 41.19483611060245 41.54642006958433 41.78813404138436 42.0957700054935 42.293535982420806 42.60117194652994 42.88683391320271 43.150521882439115 43.436183849111885 43.74381981322102 43.941585790148324 44.24922175425746 44.44698773118476 44.64475370811206 45.06225965940304 45.28199963376671 45.58963559787585 45.89727156198498 46.117011536348656 46.402673503021425 46.57846548251236 46.820179454312395 47.039919428676065 47.1497894158579 47.3475553927852 47.457425379967034 47.523347372276135 47.65519135689434 47.69913935176707 47.78703534151254 47.94085332356711 47.98480131843985 48.09467130562168 48.16059329793078 48.24848928767625 48.33638527742171 48.38033327229445 48.44625526460355 48.46822926203992 48.49020325947629 48.49020325947629 48.49020325947629 48.49020325947629 48.49020325947629 48.46822926203992 48.42428126716719 48.35835927485809 48.31441127998535 48.29243728254899 48.27046328511261 48.27046328511261 48.27046328511261 48.29243728254899 48.27046328511261 48.27046328511261 48.27046328511261 48.29243728254899 48.29243728254899 48.29243728254899 48.29243728254899 48.29243728254899 48.29243728254899 48.27046328511261 48.24848928767625 48.22651529023988 48.22651529023988 48.22651529023988 48.20454129280351 48.20454129280351 48.20454129280351 48.20454129280351 48.20454129280351 48.20454129280351 48.20454129280351 48.18256729536715 48.18256729536715 48.16059329793078 48.16059329793078 48.16059329793078 48.16059329793078 48.16059329793078 48.16059329793078 48.16059329793078 48.16059329793078 48.16059329793078 48.16059329793078 48.18256729536715 48.18256729536715 48.18256729536715 48.20454129280351 48.20454129280351 48.20454129280351 48.20454129280351 48.20454129280351 48.20454129280351 48.20454129280351 48.20454129280351 48.20454129280351 48.20454129280351 48.20454129280351 48.20454129280351 48.20454129280351 48.20454129280351 48.20454129280351 48.18256729536715 48.18256729536715 48.18256729536715 48.18256729536715 48.18256729536715 48.16059329793078 48.13861930049441 48.11664530305805 48.07269730818531 48.05072331074895 48.02874931331258 48.00677531587621 47.96282732100348 47.96282732100348 47.94085332356711 47.89690532869437 47.87493133125801 47.85295733382164 47.83098333638527 47.80900933894891 47.80900933894891 47.80900933894891 47.80900933894891 47.78703534151254 