25.0 25.0 25.0 25.0 25.0 25.0 25.0 25.0 25.0 25.0 25.0 25.0 25.0 25.0 25.0 25.0 25.0 25.0 25.0 25.0 25.0 25.0 25.0 25.0 25.0 25.0 25.0 25.0 25.0 25.0 25.0 25.0 25.0 25.0 25.0 25.0 25.0 25.0 25.0 24.978026002563634 25.0 25.0 25.0 25.0 25.0 25.0 25.0 25.0 25.0 25.0 25.0 25.0 25.0 25.0 25.0 25.0 24.978026002563634 25.0 25.0 25.0 25.0 25.0 25.0 25.0 25.0 25.0 25.0 25.0 25.0 25.0 25.0 25.0 25.0 25.0 25.0 25.0 25.0 25.0 25.0 25.0 25.0 25.0 25.0 25.0 25.0 25.0 25.0 25.0 25.0 25.0 25.0 25.0 25.0 25.0 25.0 25.0 25.0 25.0 25.0 25.0 25.0 25.0 25.0 25.0 25.0 25.0 25.0 25.0 25.0 25.0 25.0 25.0 25.0 25.0 25.0 25.0 25.0 25.0 25.0 25.0 25.0 25.0 25.0 25.0 25.0 25.0 25.0 25.0 25.0 25.0 25.0 25.0 25.0 25.0 25.0 25.0 25.0 25.0 25.0 25.0 25.0 25.0 25.0 25.0 25.0 25.0 25.0 25.0 25.0 25.0 25.0 25.0 25.0 25.0 25.0 25.0 25.0 25.0 25.0 25.0 25.0 25.0 25.0 25.0 25.0 25.0 25.0 25.0 25.0 25.0 25.0 25.0 25.0 25.0 25.0 25.0 25.0 25.0 25.0 25.0 25.0 25.0 25.0 25.0 25.0 25.0 25.0 25.0 25.0 25.0 25.0 25.0 24.978026002563634 25.0 25.0 25.0 25.0 25.0 25.0 25.0 25.0 25.0 25.0 25.0 25.0 25.0 25.0 25.0 25.0 25.0 25.0 25.0 25.0 25.0 25.0 25.0 25.0 25.0 25.0 25.0 25.0 25.0 25.0 25.0 25.0 25.0 25.0 25.0 25.0 25.0 25.0 25.0 25.0 25.0 25.0 25.0 25.0 25.0 25.0 25.0 25.0 25.0 25.0 25.0 25.0 25.0 25.0 25.0 25.0 25.0 25.0 25.0 25.0 25.0 25.0 25.0 25.0 25.0 25.0 25.0 25.0 25.0 25.0 25.0 25.0 25.0 25.0 25.0 25.0 25.0 25.0 25.0 25.0 25.0 25.0 25.0 25.0 25.0 25.0 25.0 25.0 25.0 25.0 25.0 25.0 25.0 25.0 25.0 25.0 25.0 25.0 25.0 25.0 25.0 25.0 25.0 25.0 25.0 25.0 25.0 25.0 25.0 25.0 25.0 25.0 25.0 25.0 25.0 25.0 25.0 25.0 25.0 25.0 25.0 25.0 25.0 25.0 25.0 25.0 25.0 25.0 24.978026002563634 25.0 25.0 25.0 25.0 25.0 25.0 25.0 25.0 25.0 25.0 25.0 25.0 25.0 25.0 25.0 25.0 25.0 25.0 25.0 25.0 25.0 25.0 25.0 25.0 25.0 25.0 25.0 25.0 25.0 25.0 25.0 25.0 25.0 25.0 25.0 25.0 25.0 25.0 25.0 25.0 25.0 25.0 25.0 25.0 25.0 25.0 25.0 25.0 25.0 25.0 25.0 25.0 25.0 25.0 25.0 25.0 25.0 25.0 25.0 25.0 25.0 25.0 25.0 25.0 25.0 25.0 25.0 25.0 25.0 25.0 25.0 25.0 25.0 25.0 25.0 24.978026002563634 25.0 25.0 25.0 25.0 25.0 25.0 25.0 25.0 25.0 25.0 25.0 25.0 25.0 25.0 25.0 25.0 25.0 25.0 25.0 25.0 25.0 25.0 25.0 25.0 25.0 25.0 25.0 25.0 25.0 25.0 25.0 25.0 25.0 25.0 25.0 25.0 25.0 25.0 25.0 25.0 25.0 25.0 25.0 25.0 25.0 25.0 25.0 25.0 25.0 25.0 25.0 25.0 25.0 25.0 25.0 25.0 25.0 25.0 25.0 25.0 25.0 25.0 25.0 25.0 25.0 25.0 25.0 25.0 25.0 25.0 25.0 25.0 25.0 25.0 25.0 25.0 25.0 25.0 25.0 25.0 25.0 25.0 25.0 25.0 25.0 25.0 25.0 25.0 25.0 25.0 25.0 25.0 25.0 25.0 25.0 25.0 25.0 25.0 25.0 25.0 25.0 25.0 25.0 25.0 25.0 25.0 25.0 25.0 25.0 25.0 25.0 25.0 25.0 25.0 25.0 25.0 25.0 25.0 25.0 25.0 25.0 25.0 25.0 25.0 25.0 25.0 25.0 25.0 25.0 25.0 25.0 25.0 25.0 25.0 25.0 25.0 25.0 25.0 25.0 25.0 25.0 25.0 25.0 25.0 25.0 25.021973997436366 25.021973997436366 25.021973997436366 25.021973997436366 25.043947994872735 25.043947994872735 25.043947994872735 25.043947994872735 25.08789598974547 25.1318439846182 25.1318439846182 25.15381798205457 25.15381798205457 25.1318439846182 25.15381798205457 25.15381798205457 25.1318439846182 25.1318439846182 25.15381798205457 25.15381798205457 25.15381798205457 25.197765976927304 25.241713971800035 25.28566196667277 25.329609961545504 25.37355795641824 25.43947994872734 25.50540194103644 25.571323933345543 25.637245925654643 25.72514191540011 25.791063907709212 25.900933894891047 26.01080388207288 26.07672587438198 25.944881889763778 26.186595861563816 26.252517853872916 26.340413843618386 26.406335835927486 26.494231825672955 26.60410181285479 26.691997802600255 26.80186778978209 26.933711774400294 27.10950375389123 27.373191723127633 27.724775682109502 28.12030763596411 28.53781358725508 28.955319538546053 29.41677348470976 29.834279436000735 30.29573338216444 30.691265336019043 31.08679728987365 31.46035524629189 31.87786119758286 32.27339315143747 32.69089910272844 33.130379051455776 33.54788500274675 33.98736495147409 34.42684490020143 34.86632484892877 35.30580479765611 35.72331074894708 36.184764695110786 36.646218641274494 37.15162058231093 37.635048525911 38.18439846182018 38.71177440029299 39.26112433620216 39.788500274674966 40.29390221571141 40.77733015931148 41.23878410547519 41.67826405420253 42.0957700054935 42.53524995422084 42.930781908075446 43.348287859366415 43.787767808093754 44.22724775682109 44.66672770554844 45.12818165171214 45.58963559787585 46.051089544039556 46.51254349020326 46.995971433803334 47.47939937740341 47.91887932613075 48.33638527742171 48.77586522614906 49.19337117744003 49.588903131294636 49.984435085149244 50.336019044131106 50.643655008240245 50.90734297747665 51.12708295184032 51.34682292620399 51.4786669108222 51.56656290056766 51.65445889031313 51.72038088262223 51.7423548800586 51.76432887749496 51.78630287493133 51.8082768723677 51.83025086980406 51.83025086980406 51.83025086980406 51.85222486724043 51.83025086980406 51.85222486724043 51.85222486724043 51.83025086980406 51.83025086980406 51.83025086980406 51.83025086980406 51.83025086980406 51.83025086980406 51.83025086980406 51.83025086980406 51.83025086980406 51.8082768723677 51.83025086980406 51.91814685954954 52.006042849295 52.04999084416774 52.0719648416041 52.0719648416041 52.0719648416041 52.0719648416041 52.0719648416041 52.0719648416041 52.0719648416041 52.0719648416041 52.0719648416041 52.09393883904047 52.0719648416041 52.0719648416041 52.0719648416041 52.09393883904047 52.09393883904047 52.0719648416041 52.0719648416041 52.0719648416041 52.04999084416774 52.04999084416774 52.04999084416774 52.04999084416774 52.04999084416774 52.04999084416774 52.04999084416774 52.02801684673137 52.006042849295 52.006042849295 52.006042849295 52.006042849295 51.98406885185864 51.98406885185864 51.9401208569859 51.91814685954954 51.8741988646768 51.83025086980406 51.76432887749496 51.69840688518586 51.56656290056766 51.41274491851309 51.25892693645852 51.19300494414942 51.12708295184032 51.06116095953122 50.99523896722212 50.95129097234938 50.95129097234938 50.92931697491302 50.92931697491302 50.92931697491302 50.92931697491302 50.95129097234938 50.97326496978575 50.95129097234938 50.97326496978575 50.95129097234938 50.95129097234938 50.92931697491302 50.92931697491302 50.90734297747665 50.84142098516755 50.81944698773118 50.79747299029482 50.77549899285845 50.79747299029482 50.77549899285845 50.77549899285845 50.77549899285845 50.77549899285845 50.77549899285845 50.77549899285845 50.79747299029482 50.77549899285845 50.77549899285845 50.77549899285845 50.77549899285845 50.77549899285845 50.73155099798572 50.73155099798572 50.709577000549345 50.68760300311298 50.68760300311298 50.68760300311298 50.68760300311298 50.68760300311298 50.68760300311298 50.68760300311298 50.68760300311298 50.68760300311298 50.68760300311298 50.68760300311298 50.68760300311298 50.68760300311298 50.68760300311298 50.68760300311298 50.665629005676614 50.665629005676614 50.62168101080388 50.577733015931145 50.55575901849478 50.511811023622045 50.511811023622045 50.511811023622045 50.48983702618568 50.511811023622045 50.48983702618568 50.511811023622045 50.511811023622045 50.55575901849478 50.55575901849478 50.533785021058414 50.511811023622045 50.511811023622045 50.511811023622045 50.511811023622045 50.48983702618568 50.48983702618568 50.46786302874931 50.445889031312944 50.445889031312944 50.42391503387658 50.42391503387658 50.40194103644021 50.40194103644021 50.40194103644021 50.40194103644021 50.40194103644021 50.40194103644021 50.40194103644021 50.40194103644021 50.379967039003844 50.336019044131106 50.270097051822006 50.226149056949275 50.182201062076544 50.138253067203806 50.116279069767444 50.116279069767444 50.116279069767444 50.116279069767444 50.094305072331075 50.094305072331075 50.116279069767444 50.094305072331075 50.072331074894706 50.050357077458344 50.072331074894706 50.050357077458344 50.050357077458344 50.028383080021975 50.028383080021975 50.028383080021975 50.028383080021975 50.028383080021975 50.028383080021975 50.028383080021975 50.006409082585606 50.028383080021975 50.028383080021975 50.006409082585606 50.028383080021975 50.028383080021975 49.984435085149244 49.962461087712875 49.91851309284014 49.89653909540377 49.89653909540377 49.874565097967405 49.852591100531036 49.83061710309467 49.83061710309467 49.808643105658305 49.808643105658305 49.808643105658305 49.808643105658305 49.786669108221936 49.786669108221936 49.786669108221936 49.786669108221936 49.786669108221936 49.786669108221936 49.786669108221936 49.808643105658305 49.786669108221936 49.808643105658305 49.786669108221936 49.786669108221936 49.786669108221936 49.786669108221936 49.786669108221936 49.786669108221936 49.786669108221936 49.808643105658305 49.808643105658305 49.786669108221936 49.808643105658305 49.76469511078557 49.742721113349205 49.69877311847647 49.676799121040105 49.676799121040105 49.676799121040105 49.676799121040105 49.676799121040105 49.654825123603736 49.676799121040105 49.676799121040105 49.676799121040105 49.676799121040105 49.654825123603736 49.63285112616737 49.610877128731005 49.544955136421905 49.50100714154917 49.43508514924007 49.369163156930966 49.3471891594946 49.303241164621866 49.25929316974913 49.237319172312766 49.171397180003666 49.14942318256729 49.08350119025819 49.01757919794909 48.95165720563999 48.86376121589453 48.79783922358543 48.68796923640359 48.49020325947629 48.42428126716719 48.27046328511261 48.02874931331258 47.89690532869437 47.76506134407617 47.58926936458524 47.325581395348834 47.017945431239696 46.86412744918513 46.51254349020326 46.380699505585056 46.248855520966856 46.07306354147592 45.94121955685772 45.65555759018495 45.34792162607581 45.12818165171214 44.79857169016664 44.57883171580296 44.271195751693824 43.87566379783922 43.633949826039185 43.370261856802784 43.062625892693646 42.733015931148145 42.46932796191174 42.1616919978026 41.70023805163889 41.26075810291155 40.97509613623878 40.55759018494781 39.986266251602274 39.7006042849295 39.28309833363853 38.95348837209302 38.53598242080205 38.16242446438381 37.7668925105292 37.54715253616554 37.261490569492764 37.063724592565464 36.80003662332906 36.602270646401756 36.316608679728986 36.03094671305622 35.70133675151071 35.34975279252884 35.06409082585607 34.69053286943783 34.25105292071049 33.92144295916499 33.54788500274675 33.108405054019414 32.778795092473906 32.2514191540011 31.59219923091009 31.24061527192822 30.779161325764512 30.42757736678264 29.9221754257462 29.41677348470976 29.043215528291523 28.581761582127815 28.076359641091376 27.768723676982237 27.658853689800402 27.570957700054933 27.395165720564 27.307269730818533 27.263321735945798 27.153451748763963 27.10950375389123 26.999633766709394 26.867789782091194 26.82384178721846 26.73594579747299 26.60410181285479 26.560153817982055 26.494231825672955 26.42830983336385 26.252517853872916 26.120673869254716 25.988829884636512 25.791063907709212 25.615271928218274 25.50540194103644 25.483427943600073 25.461453946163708 25.395531953854604 25.28566196667277 25.241713971800035 25.15381798205457 25.109869987181835 25.109869987181835 25.1318439846182 25.15381798205457 25.197765976927304 25.21973997436367 25.241713971800035 25.241713971800035 25.263687969236404 25.263687969236404 25.263687969236404 25.30763596410914 25.30763596410914 25.35158395898187 25.461453946163708 25.50540194103644 25.593297930781908 25.637245925654643 25.65921992309101 25.65921992309101 25.65921992309101 25.637245925654643 25.637245925654643 25.637245925654643 25.615271928218274 25.615271928218274 25.615271928218274 25.615271928218274 25.615271928218274 25.593297930781908 25.615271928218274 25.593297930781908 25.593297930781908 25.593297930781908 25.593297930781908 25.571323933345543 25.593297930781908 25.571323933345543 25.571323933345543 25.571323933345543 25.571323933345543 25.571323933345543 25.571323933345543 25.571323933345543 25.571323933345543 25.571323933345543 25.571323933345543 25.571323933345543 25.571323933345543 25.571323933345543 25.571323933345543 25.571323933345543 25.571323933345543 25.571323933345543 25.549349935909174 25.549349935909174 25.549349935909174 25.549349935909174 25.549349935909174 25.549349935909174 25.549349935909174 25.549349935909174 25.549349935909174 25.549349935909174 25.549349935909174 25.549349935909174 25.549349935909174 25.549349935909174 25.549349935909174 25.549349935909174 25.549349935909174 25.549349935909174 25.527375938472808 25.527375938472808 25.549349935909174 25.549349935909174 25.527375938472808 25.527375938472808 25.527375938472808 25.549349935909174 25.549349935909174 25.527375938472808 25.527375938472808 25.527375938472808 25.527375938472808 25.527375938472808 25.527375938472808 25.527375938472808 25.527375938472808 25.527375938472808 25.527375938472808 25.527375938472808 25.527375938472808 25.527375938472808 25.527375938472808 25.527375938472808 25.527375938472808 25.527375938472808 25.527375938472808 25.527375938472808 25.527375938472808 25.50540194103644 25.527375938472808 25.50540194103644 25.50540194103644 25.527375938472808 25.50540194103644 25.50540194103644 25.50540194103644 25.50540194103644 25.50540194103644 25.50540194103644 25.50540194103644 25.50540194103644 25.50540194103644 25.50540194103644 25.50540194103644 25.50540194103644 25.50540194103644 25.50540194103644 25.50540194103644 25.483427943600073 25.50540194103644 25.50540194103644 25.50540194103644 25.50540194103644 25.483427943600073 25.50540194103644 25.50540194103644 25.50540194103644 25.50540194103644 25.483427943600073 25.483427943600073 25.483427943600073 25.483427943600073 25.483427943600073 25.483427943600073 25.483427943600073 25.483427943600073 25.483427943600073 25.50540194103644 25.483427943600073 25.50540194103644 25.483427943600073 25.483427943600073 25.483427943600073 25.483427943600073 25.483427943600073 25.483427943600073 25.483427943600073 25.483427943600073 25.483427943600073 25.483427943600073 25.483427943600073 25.483427943600073 25.483427943600073 25.483427943600073 25.483427943600073 25.483427943600073 25.483427943600073 25.483427943600073 25.483427943600073 25.483427943600073 25.483427943600073 25.483427943600073 25.483427943600073 25.483427943600073 25.483427943600073 25.483427943600073 25.483427943600073 25.483427943600073 25.483427943600073 25.483427943600073 25.483427943600073 25.483427943600073 25.483427943600073 25.483427943600073 25.483427943600073 25.483427943600073 25.483427943600073 25.483427943600073 25.483427943600073 25.483427943600073 25.483427943600073 25.483427943600073 25.483427943600073 25.483427943600073 25.483427943600073 25.483427943600073 25.483427943600073 25.483427943600073 25.461453946163708 25.483427943600073 25.483427943600073 25.483427943600073 25.483427943600073 25.483427943600073 25.483427943600073 25.483427943600073 25.483427943600073 25.483427943600073 25.483427943600073 25.483427943600073 25.483427943600073 25.483427943600073 25.50540194103644 25.483427943600073 25.50540194103644 25.50540194103644 25.50540194103644 25.50540194103644 25.50540194103644 25.50540194103644 25.527375938472808 25.527375938472808 25.527375938472808 25.549349935909174 25.549349935909174 25.571323933345543 25.593297930781908 25.637245925654643 25.65921992309101 25.703167917963743 25.703167917963743 25.747115912836477 25.769089910272843 25.769089910272843 25.791063907709212 25.835011902581943 25.856985900018312 25.900933894891047 25.944881889763778 25.988829884636512 25.988829884636512 25.856985900018312 25.571323933345543 25.527375938472808 25.549349935909174 25.615271928218274 25.72514191540011 25.835011902581943 25.922907892327412 26.032777879509247 26.23054385643655 26.472257828236586 26.691997802600255 26.999633766709394 27.219373741073063 27.570957700054933 27.922541659036806 28.25215162058231 28.47189159494598 28.77952755905512 28.999267533418788 29.328877494964292 29.570591466764327 29.9221754257462 30.36165537447354 30.559421351400843 30.823109320637247 31.130745284746382 31.328511261673686 31.74601721296466 32.03167917963743 32.4491851309284 32.88866507965574 33.174327046328514 33.591832997619484 34.03131294634682 34.33894891045596 34.73448086431057 35.06409082585607 35.56949276689251 36.052920710492586 36.558322651529025 37.041750595129095 37.52517853872917 37.8328145028383 38.16242446438381 38.51400842336568 39.04138436183849 39.810474272111335 40.206006225965936 40.77733015931148 41.17286211316609 41.72221204907526 42.11774400292987 42.68906793627541 43.282365867057315 43.897637795275585 44.31514374656656 44.9523896722212 45.36989562351218 46.20490752609412 46.556491485075995 46.93004944149423 47.43545138253067 47.85295733382164 48.16059329793078 48.55612525178539 48.90770921076726 49.237319172312766 49.4131111518037 49.588903131294636 49.808643105658305 49.962461087712875 50.138253067203806 50.204175059512906 50.270097051822006 50.336019044131106 50.379967039003844 50.445889031312944 50.46786302874931 50.511811023622045 50.511811023622045 50.511811023622045 50.511811023622045 50.46786302874931 50.46786302874931 50.445889031312944 50.42391503387658 50.42391503387658 50.42391503387658 50.42391503387658 50.42391503387658 50.42391503387658 50.42391503387658 50.445889031312944 50.42391503387658 50.42391503387658 50.42391503387658 50.42391503387658 50.40194103644021 50.42391503387658 50.42391503387658 50.42391503387658 50.42391503387658 50.42391503387658 50.42391503387658 50.40194103644021 50.379967039003844 50.35799304156748 50.336019044131106 50.314045046694744 50.270097051822006 50.248123054385644 50.226149056949275 50.204175059512906 50.204175059512906 50.182201062076544 50.116279069767444 50.116279069767444 50.072331074894706 50.028383080021975 49.984435085149244 49.940487090276505 49.91851309284014 49.89653909540377 49.874565097967405 49.874565097967405 49.83061710309467 49.808643105658305 49.76469511078557 49.76469511078557 49.76469511078557 49.76469511078557 49.76469511078557 49.76469511078557 49.76469511078557 49.742721113349205 49.720747115912836 49.69877311847647 49.720747115912836 49.69877311847647 49.69877311847647 49.676799121040105 49.654825123603736 49.63285112616737 49.610877128731005 49.588903131294636 49.588903131294636 49.588903131294636 49.588903131294636 49.544955136421905 49.52298113898553 49.479033144112805 49.39113715436733 49.303241164621866 49.25929316974913 49.171397180003666 49.14942318256729 49.14942318256729 49.12744918513093 49.12744918513093 49.12744918513093 49.08350119025819 49.03955319538546 48.99560520051273 48.99560520051273 48.99560520051273 48.99560520051273 48.97363120307636 48.99560520051273 48.99560520051273 48.99560520051273 48.99560520051273 48.97363120307636 48.88573521333089 48.77586522614906 48.73191723127633 48.57809924922175 48.46822926203992 48.38033327229445 48.27046328511261 48.13861930049441 48.02874931331258 47.98480131843985 47.96282732100348 47.91887932613075 47.89690532869437 47.87493133125801 47.87493133125801 47.87493133125801 47.87493133125801 47.87493133125801 47.83098333638527 47.87493133125801 47.87493133125801 47.83098333638527 47.78703534151254 47.76506134407617 47.67716535433071 47.61124336202161 47.58926936458524 47.54532136971251 47.523347372276135 47.50137337483977 47.50137337483977 47.47939937740341 47.457425379967034 47.457425379967034 47.457425379967034 47.43545138253067 47.43545138253067 47.43545138253067 47.43545138253067 47.43545138253067 47.47939937740341 47.457425379967034 47.43545138253067 47.4134773850943 47.4134773850943 47.391503387657934 47.36952939022157 47.391503387657934 47.3475553927852 47.36952939022157 47.391503387657934 47.36952939022157 47.3475553927852 47.3475553927852 47.3475553927852 47.325581395348834 47.30360739791247 47.30360739791247 47.259659403039734 47.259659403039734 47.259659403039734 47.23768540560337 47.23768540560337 47.215711408167 47.193737410730634 47.193737410730634 47.193737410730634 47.193737410730634 47.193737410730634 47.17176341329427 47.17176341329427 47.127815418421534 47.10584142098517 47.10584142098517 47.10584142098517 47.083867423548796 47.039919428676065 47.039919428676065 47.017945431239696 46.995971433803334 46.995971433803334 46.995971433803334 46.995971433803334 46.973997436366965 46.973997436366965 46.973997436366965 46.952023438930595 46.952023438930595 46.952023438930595 46.952023438930595 46.973997436366965 46.952023438930595 46.908075444057864 46.886101446621495 46.86412744918513 46.842153451748764 46.820179454312395 46.820179454312395 46.776231459439664 46.79820545687603 46.79820545687603 46.776231459439664 46.754257462003295 46.754257462003295 46.688335469694195 46.622413477385095 46.600439479948726 46.556491485075995 46.468595495330526 46.380699505585056 46.292803515839594 46.22688152353049 46.117011536348656 45.96319355429409 45.853323567112255 45.65555759018495 45.36989562351218 45.0842336568394 44.51290972349386 44.22724775682109 43.831715802966485 43.502105841420985 43.128547885002746 42.95275590551181 42.776963926020876 42.53524995422084 42.1616919978026 41.89800402856619 41.56839406702069 41.28273210034792 40.84325215162058 40.381798205456874 40.052188243911374 39.48086431056583 39.21717634132943 38.95348837209302 38.36019044131112 38.11847646951108 37.89873649514741 37.7009705182201 37.52517853872917 37.3054385643655 37.019776597692726 36.690166636147225 36.492400659219925 36.316608679728986 35.96502472074712 35.83318073612892 35.65738875663798 35.37172678996521 35.17396081303791 35.0421168284197 34.8443508514924 34.7125068668742 34.42684490020143 34.33894891045596 34.141182933528654 33.943416956601354 33.74565097967405 33.591832997619484 33.350119025819446 33.108405054019414 32.84471708478301 32.66892510529207 32.49313312580114 32.22944515656473 31.987731184764694 31.702069218091925 31.482329243728255 31.30653726423732 31.08679728987365 30.976927302691813 30.86705731550998 30.603369346273574 30.405603369346274 30.273759384728073 30.032045412928035 29.878227430873466 29.592565464200696 29.262955502655192 29.065189525727888 28.75755356161875 28.55978758469145 28.25215162058231 27.922541659036806 27.68082768723677 27.285295733382164 27.153451748763963 27.10950375389123 27.04358176158213 26.999633766709394 26.911737776963925 26.82384178721846 26.80186778978209 26.73594579747299 26.691997802600255 26.626075810291155 26.560153817982055 26.472257828236586 26.38436183849112 26.274491851309286 26.164621864127447 25.944881889763778 25.769089910272843 25.65921992309101 25.483427943600073 25.37355795641824 25.241713971800035 25.15381798205457 25.08789598974547 25.08789598974547 25.109869987181835 25.15381798205457 25.175791979490935 25.197765976927304 25.241713971800035 25.241713971800035 25.241713971800035 25.21973997436367 25.197765976927304 25.175791979490935 25.15381798205457 25.109869987181835 25.08789598974547 25.08789598974547 25.08789598974547 25.109869987181835 25.28566196667277 25.527375938472808 25.681193920527377 25.72514191540011 25.747115912836477 25.769089910272843 25.769089910272843 25.791063907709212 25.791063907709212 25.813037905145578 25.813037905145578 25.813037905145578 25.813037905145578 25.791063907709212 25.791063907709212 25.791063907709212 25.791063907709212 25.791063907709212 25.791063907709212 25.769089910272843 25.769089910272843 25.769089910272843 25.769089910272843 25.769089910272843 25.769089910272843 25.769089910272843 25.769089910272843 25.769089910272843 25.769089910272843 25.769089910272843 25.769089910272843 25.747115912836477 25.747115912836477 25.747115912836477 25.747115912836477 25.747115912836477 25.747115912836477 25.72514191540011 25.747115912836477 25.747115912836477 25.72514191540011 25.72514191540011 25.72514191540011 25.703167917963743 25.703167917963743 25.703167917963743 25.681193920527377 25.703167917963743 25.681193920527377 25.681193920527377 25.681193920527377 25.681193920527377 25.681193920527377 25.65921992309101 25.65921992309101 25.65921992309101 25.65921992309101 25.65921992309101 25.65921992309101 25.65921992309101 25.65921992309101 25.65921992309101 25.65921992309101 25.65921992309101 25.65921992309101 25.65921992309101 25.65921992309101 25.65921992309101 25.65921992309101 25.65921992309101 25.65921992309101 25.65921992309101 25.65921992309101 25.65921992309101 25.65921992309101 25.65921992309101 25.65921992309101 25.65921992309101 25.65921992309101 25.65921992309101 25.637245925654643 25.637245925654643 25.65921992309101 25.637245925654643 25.65921992309101 25.637245925654643 25.637245925654643 25.65921992309101 25.637245925654643 25.637245925654643 25.637245925654643 25.637245925654643 25.637245925654643 25.637245925654643 25.637245925654643 25.637245925654643 25.637245925654643 25.637245925654643 25.637245925654643 25.637245925654643 25.637245925654643 25.637245925654643 25.637245925654643 25.637245925654643 25.637245925654643 25.637245925654643 25.637245925654643 25.637245925654643 25.637245925654643 25.637245925654643 25.637245925654643 25.637245925654643 25.637245925654643 25.615271928218274 25.637245925654643 25.615271928218274 25.615271928218274 25.637245925654643 25.615271928218274 25.637245925654643 25.615271928218274 25.637245925654643 25.615271928218274 25.615271928218274 25.637245925654643 25.615271928218274 25.615271928218274 25.615271928218274 25.615271928218274 25.615271928218274 25.615271928218274 25.615271928218274 25.615271928218274 25.615271928218274 25.615271928218274 25.615271928218274 25.615271928218274 25.615271928218274 25.615271928218274 25.615271928218274 25.615271928218274 25.615271928218274 25.615271928218274 25.615271928218274 25.615271928218274 25.615271928218274 25.615271928218274 25.593297930781908 25.615271928218274 25.615271928218274 25.615271928218274 25.615271928218274 25.593297930781908 25.615271928218274 25.593297930781908 25.593297930781908 25.593297930781908 25.615271928218274 25.593297930781908 25.593297930781908 25.593297930781908 25.593297930781908 25.615271928218274 25.615271928218274 25.593297930781908 25.615271928218274 25.593297930781908 25.593297930781908 25.593297930781908 25.615271928218274 25.615271928218274 25.615271928218274 25.615271928218274 25.615271928218274 25.615271928218274 25.615271928218274 25.637245925654643 25.615271928218274 25.615271928218274 25.637245925654643 25.637245925654643 25.637245925654643 25.637245925654643 25.637245925654643 25.637245925654643 25.637245925654643 25.637245925654643 25.637245925654643 25.637245925654643 25.637245925654643 25.65921992309101 25.637245925654643 25.65921992309101 25.65921992309101 25.65921992309101 25.65921992309101 25.65921992309101 25.65921992309101 25.65921992309101 25.65921992309101 25.65921992309101 25.681193920527377 25.681193920527377 25.703167917963743 25.703167917963743 25.703167917963743 25.72514191540011 25.72514191540011 25.747115912836477 25.769089910272843 25.791063907709212 25.813037905145578 25.878959897454678 25.922907892327412 25.988829884636512 26.054751876945616 26.186595861563816 26.29646584874565 26.340413843618386 26.472257828236586 26.560153817982055 26.58212781541842 26.626075810291155 26.538179820545686 26.29646584874565 26.406335835927486 26.648049807727524 26.845815784654825 27.131477751327594 27.285295733382164 27.570957700054933 27.834645669291337 28.31807361289141 28.735579564182384 29.19703351034609 29.592565464200696 29.8562534334371 30.163889397546235 30.58139534883721 30.889031312946347 31.35048525911005 31.921809192455594 32.27339315143747 32.75682109503754 33.240249038637614 33.525911005310384 34.16315693096502 34.69053286943783 35.06409082585607 35.50357077458341 35.81120673869255 36.250686687419886 36.80003662332906 36.953854605383626 37.327412561801864 37.54715253616554 37.92071049258378 38.25032045412928 38.60190441311115 38.99743636696576 39.26112433620216 39.656656290056766 39.876396264420436 40.052188243911374 40.33785021058414 40.601538179820544 40.73338216443875 40.953122138802414 41.10694012085699 41.32668009522065 41.56839406702069 41.74418604651163 42.07379600805713 42.27156198498443 42.42537996703901 42.68906793627541 42.864859915766345 43.106573887566384 43.216443874748215 43.326313861930046 43.48013184398462 43.61197582860282 43.699871818348285 43.87566379783922 43.91961179271196 44.007507782457424 44.05145577733016 44.05145577733016 44.073429774766524 44.073429774766524 44.073429774766524 44.073429774766524 44.073429774766524 44.073429774766524 44.05145577733016 44.05145577733016 44.007507782457424 43.98553378502106 43.96355978758469 43.96355978758469 43.96355978758469 43.96355978758469 43.941585790148324 43.941585790148324 43.941585790148324 43.941585790148324 43.91961179271196 43.897637795275585 43.87566379783922 43.80974180553012 43.765793810657385 43.721845815784654 43.633949826039185 43.52407983885735 43.502105841420985 43.45815784654825 43.436183849111885 43.392235854239146 43.348287859366415 43.304339864493684 43.238417872184584 43.194469877311846 43.106573887566384 43.08459989013001 43.062625892693646 43.062625892693646 43.040651895257284 43.040651895257284 42.996703900384546 42.97472990294818 42.95275590551181 42.95275590551181 42.930781908075446 42.930781908075446 42.95275590551181 42.95275590551181 42.95275590551181 42.930781908075446 42.95275590551181 42.930781908075446 42.930781908075446 42.90880791063908 42.82091192089361 42.776963926020876 42.68906793627541 42.68906793627541 42.64511994140267 42.60117194652994 42.55722395165721 42.55722395165721 42.53524995422084 42.53524995422084 42.51327595678447 42.53524995422084 42.53524995422084 42.53524995422084 42.55722395165721 42.55722395165721 42.55722395165721 42.57919794909357 42.57919794909357 42.60117194652994 42.60117194652994 42.60117194652994 42.60117194652994 42.57919794909357 42.57919794909357 42.57919794909357 42.55722395165721 42.55722395165721 42.55722395165721 42.57919794909357 42.57919794909357 42.57919794909357 42.57919794909357 42.57919794909357 42.55722395165721 42.55722395165721 42.46932796191174 42.38143197216627 42.293535982420806 42.18366599523897 42.13971800036623 42.05182201062077 41.98590001831167 41.9639260208753 41.94195202343893 41.87603003112983 41.85405603369347 41.85405603369347 41.83208203625709 41.81010803882073 41.81010803882073 41.78813404138436 41.81010803882073 41.78813404138436 41.81010803882073 41.81010803882073 41.81010803882073 41.81010803882073 41.83208203625709 41.81010803882073 41.81010803882073 41.78813404138436 41.76616004394799 41.76616004394799 41.78813404138436 41.76616004394799 41.76616004394799 41.76616004394799 41.76616004394799 41.76616004394799 41.78813404138436 41.74418604651163 41.70023805163889 41.67826405420253 41.63431605932979 41.61234206189343 41.59036806445706 41.56839406702069 41.54642006958433 41.54642006958433 41.50247207471159 41.50247207471159 41.50247207471159 41.48049807727523 41.48049807727523 41.48049807727523 41.48049807727523 41.50247207471159 41.50247207471159 41.48049807727523 41.45852407983885 41.41457608496612 41.39260208752975 41.34865409265702 41.32668009522065 41.30470609778429 41.28273210034792 41.26075810291155 41.28273210034792 41.26075810291155 41.26075810291155 41.23878410547519 41.19483611060245 41.15088811572972 41.12891411829335 41.084966123420614 41.06299212598425 41.04101812854789 41.04101812854789 40.99707013367515 40.97509613623878 40.97509613623878 40.953122138802414 40.953122138802414 40.953122138802414 40.93114814136605 40.93114814136605 40.93114814136605 40.93114814136605 40.93114814136605 40.93114814136605 40.93114814136605 40.953122138802414 40.93114814136605 40.93114814136605 40.93114814136605 40.953122138802414 40.93114814136605 40.93114814136605 40.90917414392968 40.90917414392968 40.93114814136605 40.90917414392968 40.93114814136605 40.93114814136605 40.93114814136605 40.93114814136605 40.90917414392968 40.86522614905695 40.84325215162058 40.79930415674785 40.77733015931148 40.75535616187511 40.73338216443875 40.71140816700238 40.71140816700238 40.68943416956601 40.667460172129644 40.667460172129644 40.71140816700238 40.667460172129644 40.645486174693275 40.62351217725691 40.601538179820544 40.579564182384175 40.579564182384175 40.579564182384175 40.579564182384175 40.579564182384175 40.55759018494781 40.55759018494781 40.535616187511444 40.513642190075075 40.513642190075075 40.513642190075075 40.469694195202344 40.447720197765975 40.42574620032961 40.403772202893244 40.403772202893244 40.403772202893244 40.403772202893244 40.403772202893244 40.403772202893244 40.381798205456874 40.35982420802051 40.33785021058414 40.315876213147774 40.33785021058414 40.42574620032961 40.42574620032961 40.42574620032961 40.42574620032961 40.42574620032961 40.447720197765975 40.447720197765975 40.447720197765975 40.469694195202344 40.403772202893244 40.35982420802051 40.27192821827504 40.184032228529574 40.140084233656836 40.052188243911374 40.030214246475005 39.964292254165905 39.920344259293174 39.854422266984066 39.810474272111335 39.7665262772386 39.722578282365866 39.656656290056766 39.6346822926204 39.5687603003113 39.5028383080022 39.39296832082036 39.239150338765796 39.01941036440212 38.86559238234756 38.66782640542025 38.44808643105658 38.25032045412928 38.16242446438381 37.98663248489288 37.67899652078374 37.28346456692913 37.15162058231093 36.843984618201794 36.668192638710856 36.316608679728986 36.16279069767442 36.00897271561985 35.85515473356528 35.56949276689251 35.32777879509247 34.9761948361106 34.88829884636513 34.66855887200147 34.40487090276506 34.22907892327412 34.009338948910454 33.81157297198315 33.54788500274675 33.284197033510345 33.152353048892145 32.866691082219376 32.66892510529207 32.581029115546606 32.42721113349204 32.33931514374657 32.20747115912837 31.96575718732833 31.72404321552829 31.46035524629189 31.15271928218275 30.954953305255447 30.779161325764512 30.559421351400843 30.185863394982604 29.878227430873466 29.724409448818896 29.54861746932796 29.372825489837027 29.219007507782457 28.999267533418788 28.889397546236953 28.69163156930965 28.49386559238235 28.362021607764145 28.18622962827321 28.010437648782275 27.944515656473172 27.834645669291337 27.724775682109502 27.461087712873102 27.351217725691264 27.197399743636698 26.757919794909355 26.713971800036624 26.67002380516389 26.626075810291155 26.538179820545686 26.472257828236586 26.38436183849112 26.274491851309286 26.164621864127447 26.098699871818347 26.054751876945616 25.966855887200147 25.791063907709212 25.72514191540011 25.527375938472808 25.37355795641824 25.28566196667277 25.175791979490935 25.021973997436366 24.956052005127265 24.8681560153818 24.824208020509065 24.736312030763596 24.71433803332723 24.890130012818165 25.175791979490935 25.30763596410914 25.395531953854604 25.417505951290973 25.461453946163708 25.50540194103644 25.50540194103644 25.483427943600073 25.461453946163708 25.461453946163708 25.417505951290973 25.417505951290973 25.483427943600073 25.791063907709212 26.01080388207288 26.120673869254716 26.164621864127447 26.164621864127447 26.186595861563816 26.164621864127447 26.164621864127447 26.14264786669108 26.120673869254716 26.07672587438198 26.054751876945616 26.032777879509247 26.01080388207288 26.01080388207288 25.988829884636512 25.966855887200147 25.944881889763778 25.900933894891047 25.878959897454678 25.856985900018312 25.835011902581943 25.813037905145578 25.791063907709212 25.791063907709212 25.791063907709212 25.791063907709212 25.769089910272843 25.769089910272843 25.769089910272843 25.769089910272843 25.769089910272843 25.747115912836477 25.769089910272843 25.747115912836477 25.747115912836477 25.747115912836477 25.747115912836477 25.747115912836477 25.747115912836477 25.747115912836477 25.72514191540011 25.747115912836477 25.747115912836477 25.747115912836477 25.747115912836477 25.72514191540011 25.72514191540011 25.747115912836477 25.72514191540011 25.72514191540011 25.72514191540011 25.72514191540011 25.72514191540011 25.72514191540011 25.72514191540011 25.72514191540011 25.72514191540011 25.72514191540011 25.72514191540011 25.72514191540011 25.72514191540011 25.72514191540011 25.72514191540011 25.72514191540011 25.72514191540011 25.703167917963743 25.72514191540011 25.72514191540011 25.703167917963743 25.703167917963743 25.703167917963743 25.703167917963743 25.703167917963743 25.703167917963743 25.703167917963743 25.703167917963743 25.703167917963743 25.703167917963743 25.703167917963743 25.703167917963743 25.703167917963743 25.703167917963743 25.681193920527377 25.703167917963743 25.703167917963743 25.703167917963743 25.681193920527377 25.681193920527377 25.703167917963743 25.681193920527377 25.681193920527377 25.703167917963743 25.703167917963743 25.681193920527377 25.703167917963743 25.703167917963743 25.681193920527377 25.681193920527377 25.703167917963743 25.703167917963743 25.681193920527377 25.681193920527377 25.681193920527377 25.681193920527377 25.681193920527377 25.703167917963743 25.681193920527377 25.703167917963743 25.681193920527377 25.681193920527377 25.681193920527377 25.681193920527377 25.681193920527377 25.703167917963743 25.681193920527377 25.681193920527377 25.681193920527377 25.681193920527377 25.681193920527377 25.681193920527377 25.681193920527377 25.681193920527377 25.681193920527377 25.681193920527377 25.681193920527377 25.681193920527377 25.703167917963743 25.681193920527377 25.681193920527377 25.681193920527377 25.681193920527377 25.681193920527377 25.681193920527377 25.681193920527377 25.681193920527377 25.681193920527377 25.681193920527377 25.681193920527377 25.681193920527377 25.681193920527377 25.681193920527377 25.681193920527377 25.681193920527377 25.681193920527377 25.681193920527377 25.681193920527377 25.681193920527377 25.681193920527377 25.681193920527377 25.681193920527377 25.681193920527377 25.681193920527377 25.681193920527377 25.681193920527377 25.681193920527377 25.681193920527377 25.681193920527377 25.681193920527377 25.681193920527377 25.681193920527377 25.681193920527377 25.681193920527377 25.681193920527377 25.681193920527377 25.681193920527377 25.681193920527377 25.681193920527377 25.681193920527377 25.681193920527377 25.681193920527377 25.681193920527377 25.681193920527377 25.681193920527377 25.681193920527377 25.681193920527377 25.681193920527377 25.681193920527377 25.681193920527377 25.681193920527377 25.681193920527377 25.681193920527377 25.681193920527377 25.681193920527377 25.681193920527377 25.681193920527377 25.681193920527377 25.681193920527377 25.681193920527377 25.681193920527377 25.681193920527377 25.681193920527377 25.681193920527377 25.681193920527377 25.681193920527377 25.681193920527377 25.681193920527377 25.681193920527377 25.681193920527377 25.65921992309101 25.681193920527377 25.65921992309101 25.681193920527377 25.681193920527377 25.65921992309101 25.65921992309101 25.65921992309101 25.65921992309101 25.681193920527377 25.65921992309101 25.65921992309101 25.681193920527377 25.65921992309101 25.681193920527377 25.65921992309101 25.65921992309101 25.65921992309101 25.65921992309101 25.65921992309101 25.681193920527377 25.65921992309101 25.65921992309101 25.681193920527377 25.65921992309101 25.681193920527377 25.65921992309101 25.65921992309101 25.65921992309101 25.65921992309101 25.65921992309101 25.65921992309101 25.65921992309101 25.65921992309101 25.65921992309101 25.681193920527377 25.65921992309101 25.65921992309101 25.65921992309101 25.65921992309101 25.65921992309101 25.65921992309101 25.65921992309101 25.65921992309101 25.65921992309101 25.65921992309101 25.65921992309101 25.65921992309101 25.65921992309101 25.65921992309101 25.65921992309101 25.65921992309101 25.65921992309101 25.65921992309101 25.65921992309101 25.65921992309101 25.65921992309101 25.65921992309101 25.65921992309101 25.65921992309101 25.65921992309101 25.65921992309101 25.65921992309101 25.65921992309101 25.65921992309101 25.65921992309101 25.65921992309101 25.65921992309101 25.65921992309101 25.65921992309101 25.65921992309101 25.65921992309101 25.65921992309101 25.65921992309101 25.65921992309101 25.65921992309101 25.65921992309101 25.65921992309101 25.637245925654643 25.65921992309101 25.65921992309101 25.65921992309101 25.637245925654643 25.65921992309101 25.65921992309101 25.65921992309101 25.65921992309101 25.65921992309101 25.65921992309101 25.65921992309101 25.65921992309101 25.65921992309101 25.65921992309101 25.681193920527377 25.681193920527377 25.703167917963743 25.72514191540011 25.747115912836477 25.769089910272843 25.791063907709212 25.856985900018312 25.900933894891047 26.01080388207288 26.120673869254716 26.208569859000182 26.318439846182017 26.45028383080022 26.494231825672955 25.813037905145578 25.637245925654643 25.791063907709212 26.23054385643655 26.560153817982055 26.933711774400294 27.17542574620033 27.505035707745833 27.922541659036806 28.25215162058231 28.69163156930965 29.065189525727888 29.372825489837027 29.900201428309835 30.44955136421901 30.735213330891778 31.108771287310017 31.41640725141915 32.1195751693829 32.66892510529207 33.04248306171031 33.61380699505585 34.40487090276506 34.62461087712873 34.99816883354697 35.34975279252884 35.85515473356528 36.316608679728986 36.624244643838125 37.019776597692726 37.3713605566746 37.72294451565647 37.96465848745651 38.25032045412928 38.62387841054752 39.04138436183849 39.41494231825673 39.986266251602274 40.29390221571141 40.71140816700238 40.97509613623878 41.19483611060245 41.54642006958433 41.85405603369347 42.13971800036623 42.44735396447537 42.60117194652994 42.75498992858451 42.95275590551181 43.08459989013001 43.238417872184584 43.370261856802784 43.45815784654825 43.633949826039185 43.74381981322102 43.85368980040286 43.941585790148324 44.09540377220289 44.18329976194836 44.24922175425746 44.073429774766524 43.941585790148324 43.98553378502106 44.02948177989379 44.073429774766524 44.11737776963926 44.18329976194836 44.205273759384724 44.22724775682109 44.271195751693824 44.33711774400293 44.40303973631203 44.53488372093023 44.53488372093023 44.6887017029848 44.7546236952939 44.77659769273027 44.820545687603 44.820545687603 44.820545687603 44.84251968503937 44.86449368247574 44.8864676799121 44.90844167734847 44.93041567478484 44.9523896722212 44.9523896722212 44.97436366965757 44.97436366965757 44.97436366965757 45.0183116645303 45.0183116645303 45.0183116645303 45.0183116645303 45.0183116645303 44.99633766709394 44.97436366965757 44.9523896722212 44.9523896722212 44.9523896722212 44.9523896722212 44.9523896722212 44.9523896722212 44.9523896722212 44.9523896722212 44.9523896722212 44.9523896722212 44.9523896722212 44.9523896722212 44.9523896722212 44.9523896722212 44.93041567478484 44.93041567478484 44.8864676799121 44.7546236952939 44.6887017029848 44.60080571323933 44.53488372093023 44.53488372093023 44.51290972349386 44.51290972349386 44.51290972349386 44.51290972349386 44.53488372093023 44.53488372093023 44.53488372093023 44.57883171580296 44.57883171580296 44.57883171580296 44.57883171580296 44.5568577183666 44.53488372093023 44.53488372093023 44.51290972349386 44.51290972349386 44.4909357260575 44.44698773118476 44.4250137337484 44.3590917414393 44.3590917414393 44.38106573887566 44.38106573887566 44.3590917414393 44.38106573887566 44.38106573887566 44.3590917414393 44.33711774400293 44.33711774400293 44.271195751693824 44.205273759384724 44.139351767075624 44.073429774766524 44.05145577733016 44.05145577733016 44.02948177989379 44.05145577733016 44.05145577733016 44.05145577733016 44.05145577733016 44.05145577733016 44.05145577733016 44.007507782457424 43.98553378502106 43.96355978758469 43.941585790148324 43.91961179271196 43.87566379783922 43.831715802966485 43.831715802966485 43.80974180553012 43.80974180553012 43.787767808093754 43.787767808093754 43.787767808093754 43.787767808093754 43.787767808093754 43.80974180553012 43.787767808093754 43.787767808093754 43.787767808093754 43.80974180553012 43.765793810657385 43.74381981322102 43.721845815784654 43.74381981322102 43.721845815784654 43.721845815784654 43.721845815784654 43.699871818348285 43.699871818348285 43.699871818348285 43.699871818348285 43.699871818348285 43.699871818348285 43.699871818348285 43.699871818348285 43.721845815784654 43.721845815784654 43.765793810657385 43.80974180553012 43.80974180553012 43.80974180553012 43.80974180553012 43.787767808093754 43.787767808093754 43.765793810657385 43.765793810657385 43.74381981322102 43.74381981322102 43.74381981322102 43.74381981322102 43.74381981322102 43.74381981322102 43.721845815784654 43.721845815784654 43.67789782091192 43.655923823475554 43.655923823475554 43.655923823475554 43.655923823475554 43.655923823475554 43.67789782091192 43.655923823475554 43.655923823475554 43.655923823475554 43.655923823475554 43.655923823475554 43.655923823475554 43.655923823475554 43.655923823475554 43.655923823475554 43.633949826039185 43.655923823475554 43.633949826039185 43.655923823475554 43.633949826039185 43.655923823475554 43.655923823475554 43.655923823475554 43.655923823475554 43.655923823475554 43.655923823475554 43.67789782091192 43.67789782091192 43.721845815784654 43.721845815784654 43.721845815784654 43.721845815784654 43.721845815784654 43.74381981322102 43.74381981322102 43.765793810657385 43.831715802966485 43.85368980040286 43.897637795275585 43.98553378502106 44.02948177989379 44.073429774766524 44.09540377220289 44.09540377220289 44.11737776963926 44.139351767075624 44.18329976194836 44.205273759384724 44.22724775682109 44.24922175425746 44.22724775682109 44.22724775682109 44.22724775682109 44.22724775682109 44.22724775682109 44.22724775682109 44.205273759384724 44.205273759384724 44.18329976194836 44.18329976194836 44.18329976194836 44.18329976194836 44.18329976194836 44.18329976194836 44.18329976194836 44.139351767075624 44.139351767075624 44.11737776963926 44.09540377220289 44.073429774766524 44.073429774766524 44.05145577733016 44.05145577733016 44.05145577733016 44.05145577733016 44.02948177989379 44.05145577733016 44.05145577733016 44.05145577733016 44.05145577733016 44.05145577733016 44.05145577733016 44.05145577733016 44.05145577733016 44.02948177989379 44.05145577733016 44.05145577733016 44.05145577733016 44.05145577733016 44.02948177989379 44.05145577733016 44.02948177989379 44.05145577733016 44.05145577733016 44.05145577733016 44.05145577733016 44.05145577733016 44.05145577733016 44.05145577733016 44.05145577733016 44.05145577733016 44.02948177989379 44.05145577733016 44.05145577733016 44.05145577733016 44.05145577733016 44.05145577733016 44.05145577733016 44.11737776963926 44.18329976194836 44.205273759384724 44.24922175425746 44.24922175425746 44.24922175425746 44.22724775682109 44.22724775682109 44.205273759384724 44.205273759384724 44.16132576451199 44.073429774766524 44.007507782457424 43.787767808093754 43.655923823475554 43.48013184398462 43.348287859366415 43.260391869620946 43.08459989013001 42.97472990294818 42.82091192089361 42.75498992858451 42.68906793627541 42.60117194652994 42.49130195934811 42.40340596960264 42.2276139901117 42.07379600805713 41.9639260208753 41.87603003112983 41.74418604651163 41.34865409265702 40.97509613623878 40.667460172129644 40.447720197765975 40.249954220838674 39.986266251602274 39.744552279802235 39.34902032594763 38.99743636696576 38.66782640542025 38.40413843618385 38.14045046694744 37.96465848745651 37.65702252334737 37.415308551547334 37.1735945797473 36.843984618201794 36.51437465665629 36.14081670023805 35.921076725874386 35.63541475920161 35.30580479765611 34.93224684123787 34.7125068668742 34.33894891045596 34.05328694378319 33.767624977110415 33.48196301043765 33.306171030946714 32.88866507965574 32.55905511811024 32.36128914118294 32.0536531770738 31.81193920527376 31.72404321552829 31.52627723860099 31.394433253982786 31.196667277055482 31.020875297564547 30.889031312946347 30.735213330891778 30.537447353964474 30.383629371909905 30.163889397546235 30.010071415491666 29.812305438564366 29.592565464200696 29.372825489837027 29.087163523164257 28.999267533418788 28.801501556491484 28.64768357443692 28.581761582127815 28.38399560520051 28.25215162058231 28.142281633400476 28.05438564365501 27.922541659036806 27.68082768723677 27.548983702618568 27.417139718000367 27.197399743636698 26.999633766709394 26.779893792345725 26.472257828236586 26.098699871818347 25.856985900018312 25.769089910272843 25.637245925654643 25.527375938472808 25.461453946163708 25.329609961545504 25.197765976927304 25.08789598974547 24.69236403589086 24.62644204358176 24.362754074345357 24.252884087163523 24.077092107672588 24.099066105108953 24.362754074345357 24.670390038454496 24.9340780076909 25.1318439846182 25.15381798205457 25.15381798205457 25.15381798205457 25.15381798205457 25.109869987181835 25.08789598974547 25.08789598974547 25.109869987181835 25.1318439846182 25.15381798205457 25.175791979490935 25.35158395898187 25.549349935909174 25.681193920527377 25.813037905145578 25.922907892327412 25.966855887200147 25.988829884636512 25.988829884636512 25.988829884636512 25.988829884636512 25.988829884636512 25.988829884636512 25.988829884636512 25.988829884636512 25.988829884636512 25.966855887200147 25.966855887200147 25.944881889763778 25.944881889763778 25.922907892327412 25.922907892327412 25.922907892327412 25.900933894891047 25.900933894891047 25.900933894891047 25.900933894891047 25.878959897454678 25.878959897454678 25.878959897454678 25.878959897454678 25.856985900018312 25.856985900018312 25.835011902581943 25.835011902581943 25.835011902581943 25.835011902581943 25.813037905145578 25.835011902581943 25.835011902581943 25.835011902581943 25.835011902581943 25.813037905145578 25.813037905145578 25.813037905145578 25.813037905145578 25.813037905145578 25.813037905145578 25.813037905145578 25.813037905145578 25.813037905145578 25.813037905145578 25.813037905145578 25.813037905145578 25.813037905145578 25.813037905145578 25.791063907709212 25.791063907709212 25.791063907709212 25.791063907709212 25.791063907709212 25.791063907709212 25.791063907709212 25.769089910272843 25.769089910272843 25.769089910272843 25.769089910272843 25.769089910272843 25.769089910272843 25.769089910272843 25.769089910272843 25.769089910272843 25.769089910272843 25.747115912836477 25.769089910272843 25.747115912836477 25.747115912836477 25.769089910272843 25.769089910272843 25.747115912836477 25.747115912836477 25.747115912836477 25.747115912836477 25.747115912836477 25.747115912836477 25.72514191540011 25.747115912836477 25.747115912836477 25.747115912836477 25.747115912836477 25.747115912836477 25.747115912836477 25.747115912836477 25.747115912836477 25.747115912836477 25.747115912836477 25.72514191540011 25.747115912836477 25.747115912836477 25.747115912836477 25.747115912836477 25.747115912836477 25.747115912836477 25.747115912836477 25.747115912836477 25.747115912836477 25.747115912836477 25.747115912836477 25.747115912836477 25.747115912836477 25.747115912836477 25.747115912836477 25.747115912836477 25.747115912836477 25.747115912836477 25.747115912836477 25.747115912836477 25.747115912836477 25.747115912836477 25.747115912836477 25.747115912836477 25.747115912836477 25.747115912836477 25.747115912836477 25.747115912836477 25.747115912836477 25.747115912836477 25.747115912836477 25.747115912836477 25.747115912836477 25.747115912836477 25.747115912836477 25.747115912836477 25.747115912836477 25.769089910272843 25.747115912836477 25.769089910272843 25.769089910272843 25.769089910272843 25.747115912836477 25.769089910272843 25.769089910272843 25.747115912836477 25.769089910272843 25.747115912836477 25.747115912836477 25.769089910272843 25.769089910272843 25.747115912836477 25.769089910272843 25.769089910272843 25.769089910272843 25.769089910272843 25.769089910272843 25.769089910272843 25.747115912836477 25.769089910272843 25.769089910272843 25.769089910272843 25.769089910272843 25.769089910272843 25.769089910272843 25.769089910272843 25.769089910272843 25.791063907709212 25.769089910272843 25.791063907709212 25.769089910272843 25.769089910272843 25.791063907709212 25.791063907709212 25.791063907709212 25.791063907709212 25.791063907709212 25.813037905145578 25.835011902581943 25.835011902581943 25.856985900018312 25.878959897454678 25.900933894891047 25.944881889763778 25.966855887200147 26.032777879509247 26.07672587438198 26.098699871818347 26.164621864127447 26.208569859000182 26.29646584874565 26.42830983336385 26.51620582310932 26.691997802600255 26.80186778978209 26.88976377952756 27.04358176158213 27.153451748763963 27.373191723127633 27.483061710309467 27.505035707745833 27.768723676982237 28.010437648782275 28.49386559238235 28.75755356161875 29.087163523164257 29.526643471891596 29.9880974180553 30.22981138985534 30.625343343709943 31.064823292437282 31.548251236037355 31.855887200146494 32.1195751693829 32.53708112067387 33.04248306171031 33.635780992492215 34.207104925837754 34.60263687969236 35.15198681560154 35.61344076176525 35.83318073612892 36.184764695110786 36.646218641274494 36.975828602819995 37.393334554110965 37.72294451565647 38.11847646951108 38.60190441311115 38.97546236952939 39.48086431056583 40.008240249038636 40.29390221571141 40.73338216443875 41.23878410547519 41.65629005676616 41.89800402856619 42.18366599523897 42.798937923457245 43.348287859366415 43.699871818348285 44.24922175425746 44.6227797106757 45.12818165171214 45.54568760300312 45.76542757736678 46.09503753891229 46.534517487639626 46.64438747482146 46.754257462003295 46.86412744918513 46.952023438930595 47.017945431239696 47.083867423548796 47.10584142098517 47.127815418421534 47.083867423548796 47.039919428676065 46.973997436366965 46.886101446621495 46.86412744918513 46.820179454312395 46.754257462003295 46.754257462003295 46.776231459439664 46.820179454312395 46.86412744918513 46.886101446621495 46.93004944149423 46.952023438930595 46.952023438930595 46.973997436366965 46.973997436366965 46.973997436366965 46.952023438930595 46.908075444057864 46.886101446621495 46.886101446621495 46.842153451748764 46.776231459439664 46.754257462003295 46.73228346456693 46.73228346456693 46.754257462003295 46.754257462003295 46.754257462003295 46.776231459439664 46.776231459439664 46.776231459439664 46.73228346456693 46.688335469694195 46.57846548251236 46.44662149789416 46.358725508148694 46.27082951840322 46.182933528657756 46.07306354147592 46.051089544039556 45.985167551730456 45.96319355429409 45.94121955685772 45.94121955685772 45.919245559421356 45.94121955685772 45.94121955685772 45.94121955685772 45.919245559421356 45.94121955685772 45.919245559421356 45.919245559421356 45.919245559421356 45.87529756454862 45.853323567112255 45.83134956967588 45.80937557223952 45.80937557223952 45.78740157480315 45.78740157480315 45.78740157480315 45.78740157480315 45.78740157480315 45.78740157480315 45.78740157480315 45.76542757736678 45.74345357993042 45.72147958249405 45.67753158762132 45.67753158762132 45.67753158762132 45.67753158762132 45.72147958249405 45.72147958249405 45.69950558505768 45.67753158762132 45.61160959531222 45.58963559787585 45.52371360556674 45.45779161325764 45.36989562351218 45.32594762863944 45.26002563633034 45.19410364402124 45.10620765427578 45.0842336568394 45.0183116645303 44.99633766709394 44.9523896722212 44.8864676799121 44.86449368247574 44.79857169016664 44.79857169016664 44.79857169016664 44.77659769273027 44.77659769273027 44.77659769273027 44.73264969785754 44.71067570042116 44.66672770554844 44.64475370811206 44.6227797106757 44.60080571323933 44.53488372093023 44.4909357260575 44.46896172862113 44.4250137337484 44.38106573887566 44.3590917414393 44.33711774400293 44.31514374656656 44.33711774400293 44.31514374656656 44.31514374656656 44.31514374656656 44.31514374656656 44.2931697491302 44.31514374656656 44.31514374656656 44.31514374656656 44.2931697491302 44.31514374656656 44.31514374656656 44.2931697491302 44.31514374656656 44.31514374656656 44.2931697491302 44.2931697491302 44.2931697491302 44.2931697491302 44.271195751693824 44.22724775682109 44.16132576451199 44.11737776963926 44.05145577733016 44.007507782457424 43.96355978758469 43.91961179271196 43.897637795275585 43.87566379783922 43.85368980040286 43.85368980040286 43.831715802966485 43.831715802966485 43.831715802966485 43.85368980040286 43.85368980040286 43.85368980040286 43.85368980040286 43.85368980040286 43.87566379783922 43.85368980040286 43.87566379783922 43.87566379783922 43.87566379783922 43.897637795275585 43.91961179271196 43.91961179271196 43.96355978758469 43.98553378502106 43.98553378502106 43.96355978758469 43.96355978758469 43.941585790148324 43.91961179271196 43.897637795275585 43.85368980040286 43.831715802966485 43.80974180553012 43.787767808093754 43.74381981322102 43.74381981322102 43.74381981322102 43.721845815784654 43.74381981322102 43.74381981322102 43.721845815784654 43.721845815784654 43.721845815784654 43.699871818348285 43.655923823475554 43.61197582860282 43.568027833730085 43.502105841420985 43.370261856802784 43.326313861930046 43.282365867057315 43.216443874748215 43.194469877311846 43.150521882439115 43.128547885002746 43.128547885002746 43.150521882439115 43.172495879875484 43.150521882439115 43.150521882439115 43.172495879875484 43.150521882439115 43.128547885002746 43.106573887566384 42.97472990294818 42.82091192089361 42.62314594396631 42.35945797472991 42.27156198498443 42.1616919978026 41.98590001831167 41.70023805163889 41.48049807727523 41.17286211316609 40.93114814136605 40.206006225965936 40.030214246475005 39.5028383080022 39.15125434902033 38.93151437465666 38.62387841054752 38.20637245925654 37.96465848745651 37.72294451565647 37.52517853872917 37.261490569492764 37.063724592565464 36.822010620765425 36.470426661783556 36.316608679728986 36.00897271561985 35.65738875663798 35.50357077458341 35.23988280534701 35.0421168284197 34.86632484892877 34.40487090276506 34.25105292071049 34.05328694378319 33.81157297198315 33.635780992492215 33.525911005310384 33.350119025819446 33.196301043764876 32.932613074528476 32.66892510529207 32.47115912836477 32.185497161692 32.00970518220106 31.65812122321919 31.50430324116462 31.394433253982786 31.174693279619117 31.042849295000916 30.889031312946347 30.625343343709943 30.44955136421901 30.251785387291704 30.032045412928035 29.8562534334371 29.61453946163706 29.504669474455227 29.284929500091557 28.999267533418788 28.77952755905512 28.53781358725508 28.296099615455045 28.03241164621864 27.96648965390954 27.81267167185497 27.548983702618568 27.329243728254898 27.17542574620033 26.88976377952756 26.648049807727524 26.472257828236586 26.340413843618386 26.208569859000182 25.856985900018312 25.813037905145578 25.791063907709212 25.681193920527377 25.593297930781908 25.483427943600073 25.28566196667277 25.15381798205457 24.978026002563634 24.78026002563633 24.64841604101813 24.472624061527192 24.362754074345357 24.296832082036257 24.121040102545322 23.98919611792712 23.791430140999818 23.659586156381614 23.593664164072514 23.48379417689068 23.351950192272476 23.308002197399745 23.32997619483611 23.351950192272476 23.373924189708845 23.439846182017945 23.48379417689068 23.57169016663615 23.61563816150888 23.659586156381614 23.747482146127084 23.76945614356345 23.85735213330892 23.901300128181653 23.945248123054384 24.121040102545322 24.208936092290788 24.27485808459989 24.362754074345357 24.406702069218092 24.472624061527192 24.538546053836292 24.604468046145396 24.69236403589086 24.736312030763596 24.758286028199965 24.802234023072696 24.802234023072696 24.824208020509065 24.824208020509065 24.802234023072696 24.824208020509065 24.824208020509065 24.84618201794543 24.84618201794543 24.84618201794543 24.890130012818165 24.91210401025453 24.91210401025453 24.956052005127265 24.978026002563634 25.175791979490935 25.549349935909174 25.747115912836477 25.900933894891047 25.944881889763778 25.966855887200147 26.01080388207288 26.01080388207288 26.032777879509247 26.032777879509247 26.032777879509247 26.032777879509247 26.032777879509247 26.01080388207288 26.01080388207288 25.988829884636512 25.988829884636512 25.944881889763778 25.922907892327412 25.922907892327412 25.900933894891047 25.878959897454678 25.856985900018312 25.856985900018312 25.813037905145578 25.791063907709212 25.791063907709212 25.791063907709212 25.769089910272843 25.769089910272843 25.747115912836477 25.747115912836477 25.747115912836477 25.747115912836477 25.747115912836477 25.72514191540011 25.72514191540011 25.72514191540011 25.703167917963743 25.703167917963743 25.703167917963743 25.681193920527377 25.681193920527377 25.681193920527377 25.681193920527377 25.681193920527377 25.65921992309101 25.65921992309101 25.65921992309101 25.65921992309101 25.65921992309101 25.65921992309101 25.65921992309101 25.65921992309101 25.637245925654643 25.637245925654643 25.637245925654643 25.65921992309101 25.637245925654643 25.637245925654643 25.637245925654643 25.615271928218274 25.637245925654643 25.637245925654643 25.637245925654643 25.637245925654643 25.637245925654643 25.615271928218274 25.637245925654643 25.615271928218274 25.615271928218274 25.615271928218274 25.637245925654643 25.615271928218274 25.615271928218274 25.615271928218274 25.615271928218274 25.615271928218274 25.615271928218274 25.615271928218274 25.615271928218274 25.615271928218274 25.637245925654643 25.615271928218274 25.615271928218274 25.615271928218274 25.615271928218274 25.615271928218274 25.615271928218274 25.615271928218274 25.615271928218274 25.615271928218274 25.615271928218274 25.615271928218274 25.637245925654643 25.615271928218274 25.615271928218274 25.637245925654643 25.637245925654643 25.637245925654643 25.637245925654643 25.637245925654643 25.637245925654643 25.637245925654643 25.65921992309101 25.65921992309101 25.65921992309101 25.65921992309101 25.65921992309101 25.681193920527377 25.681193920527377 25.681193920527377 25.681193920527377 25.703167917963743 25.72514191540011 25.747115912836477 25.769089910272843 25.791063907709212 25.835011902581943 25.856985900018312 25.944881889763778 25.988829884636512 26.07672587438198 26.120673869254716 26.208569859000182 26.318439846182017 26.45028383080022 26.58212781541842 26.67002380516389 26.757919794909355 26.88976377952756 27.04358176158213 27.17542574620033 27.395165720564 27.658853689800402 27.856619666727706 28.16425563083684 28.38399560520051 28.735579564182384 29.219007507782457 29.394799487273392 29.70243545138253 30.07599340780077 30.36165537447354 30.757187328328143 31.08679728987365 31.41640725141915 31.65812122321919 31.855887200146494 32.4491851309284 32.66892510529207 32.91063907709211 33.218275041201245 33.48196301043765 33.789598974546784 34.009338948910454 34.03131294634682 34.009338948910454 34.22907892327412 34.60263687969236 34.8443508514924 34.99816883354697 35.30580479765611 35.76725874381981 36.03094671305622 36.272660684856255 36.470426661783556 36.80003662332906 37.15162058231093 37.393334554110965 37.65702252334737 37.98663248489288 38.20637245925654 38.73374839772936 39.01941036440212 39.370994323384 39.788500274674966 40.074162241347736 40.469694195202344 40.86522614905695 41.084966123420614 41.48049807727523 41.78813404138436 42.18366599523897 42.64511994140267 43.216443874748215 43.48013184398462 43.74381981322102 44.02948177989379 44.31514374656656 44.53488372093023 44.820545687603 44.99633766709394 45.12818165171214 45.36989562351218 45.41384361838491 45.50173960813038 45.61160959531222 45.67753158762132 45.76542757736678 45.853323567112255 45.89727156198498 45.96319355429409 46.02911554660319 46.051089544039556 46.07306354147592 46.07306354147592 46.09503753891229 46.13898553378502 46.13898553378502 46.13898553378502 46.09503753891229 46.051089544039556 46.02911554660319 45.985167551730456 45.94121955685772 45.919245559421356 45.919245559421356 45.919245559421356 45.919245559421356 45.919245559421356 45.919245559421356 45.919245559421356 45.89727156198498 45.89727156198498 45.853323567112255 45.78740157480315 45.74345357993042 45.63358359274858 45.56766160043948 45.52371360556674 45.45779161325764 45.36989562351218 45.32594762863944 45.21607764145761 45.17212964658488 45.15015564914851 45.10620765427578 45.10620765427578 45.0842336568394 45.06225965940304 45.06225965940304 45.06225965940304 45.04028566196667 45.0183116645303 45.0183116645303 45.0183116645303 44.99633766709394 44.99633766709394 44.99633766709394 44.97436366965757 44.97436366965757 44.93041567478484 44.90844167734847 44.90844167734847 44.90844167734847 44.8864676799121 44.8864676799121 44.8864676799121 44.8864676799121 44.8864676799121 44.8864676799121 44.8864676799121 44.8864676799121 44.84251968503937 44.820545687603 44.7546236952939 44.73264969785754 44.64475370811206 44.57883171580296 44.51290972349386 44.40303973631203 44.3590917414393 44.31514374656656 44.271195751693824 44.22724775682109 44.205273759384724 44.18329976194836 44.16132576451199 44.139351767075624 44.09540377220289 44.073429774766524 44.073429774766524 44.073429774766524 44.05145577733016 44.05145577733016 44.05145577733016 44.05145577733016 44.05145577733016 44.05145577733016 44.02948177989379 44.02948177989379 44.02948177989379 44.05145577733016 44.05145577733016 44.02948177989379 44.02948177989379 44.02948177989379 44.02948177989379 44.05145577733016 44.007507782457424 43.98553378502106 43.91961179271196 43.897637795275585 43.87566379783922 43.831715802966485 43.80974180553012 43.80974180553012 43.787767808093754 43.787767808093754 43.787767808093754 43.80974180553012 43.80974180553012 43.787767808093754 43.787767808093754 43.765793810657385 43.765793810657385 43.765793810657385 43.765793810657385 43.74381981322102 43.765793810657385 43.765793810657385 43.765793810657385 43.765793810657385 43.787767808093754 43.787767808093754 43.80974180553012 43.80974180553012 43.80974180553012 43.80974180553012 43.787767808093754 43.80974180553012 43.787767808093754 43.787767808093754 43.787767808093754 43.787767808093754 43.765793810657385 43.74381981322102 43.74381981322102 43.74381981322102 43.721845815784654 43.721845815784654 43.74381981322102 43.721845815784654 43.721845815784654 43.699871818348285 43.655923823475554 43.633949826039185 43.568027833730085 43.52407983885735 43.502105841420985 43.45815784654825 43.436183849111885 43.392235854239146 43.348287859366415 43.326313861930046 43.282365867057315 43.260391869620946 43.216443874748215 43.216443874748215 43.216443874748215 43.216443874748215 43.216443874748215 43.216443874748215 43.194469877311846 43.216443874748215 43.194469877311846 43.150521882439115 43.128547885002746 43.128547885002746 43.01867789782091 42.97472990294818 42.95275590551181 42.930781908075446 42.88683391320271 42.842885918329976 42.82091192089361 42.798937923457245 42.776963926020876 42.776963926020876 42.68906793627541 42.667093938839045 42.62314594396631 42.55722395165721 42.51327595678447 42.40340596960264 42.27156198498443 42.13971800036623 41.94195202343893 41.85405603369347 41.72221204907526 41.54642006958433 41.39260208752975 41.32668009522065 41.21681010803882 40.97509613623878 40.71140816700238 40.469694195202344 40.249954220838674 40.030214246475005 39.942318256729536 39.656656290056766 39.4369163156931 39.06335835927486 38.64585240798389 38.40413843618385 38.00860648232924 37.327412561801864 37.15162058231093 36.470426661783556 36.052920710492586 35.61344076176525 35.19593481047427 34.80040285661967 34.29500091558323 33.83354696941952 33.701702984801315 33.240249038637614 33.020509064273945 32.646951107855706 32.185497161692 32.03167917963743 31.702069218091925 31.37245925654642 31.30653726423732 30.998901300128182 30.757187328328143 30.603369346273574 30.29573338216444 30.010071415491666 29.570591466764327 29.19703351034609 28.955319538546053 28.581761582127815 28.31807361289141 27.834645669291337 27.592931697491302 27.395165720564 27.087529756454863 26.867789782091194 26.779893792345725 26.60410181285479 26.472257828236586 26.120673869254716 25.791063907709212 25.637245925654643 25.461453946163708 25.28566196667277 25.175791979490935 25.0 24.84618201794543 24.516572056399927 24.384728071781726 24.318806079472623 24.186962094854422 24.077092107672588 23.967222120490753 23.70353415125435 23.48379417689068 23.220106207654275 23.154184215345175 23.32997619483611 23.747482146127084 24.099066105108953 24.362754074345357 24.428676066654457 24.450650064090826 24.62644204358176 24.736312030763596 25.197765976927304 25.922907892327412 25.966855887200147 26.01080388207288 25.988829884636512 26.01080388207288 25.988829884636512 25.944881889763778 25.922907892327412 25.900933894891047 25.878959897454678 25.835011902581943 25.813037905145578 25.813037905145578 25.791063907709212 25.769089910272843 25.769089910272843 25.747115912836477 25.72514191540011 25.72514191540011 25.703167917963743 25.703167917963743 25.681193920527377 25.681193920527377 25.65921992309101 25.65921992309101 25.637245925654643 25.615271928218274 25.615271928218274 25.593297930781908 25.615271928218274 25.593297930781908 25.593297930781908 25.593297930781908 25.593297930781908 25.593297930781908 25.571323933345543 25.571323933345543 25.571323933345543 25.571323933345543 25.571323933345543 25.571323933345543 25.571323933345543 25.571323933345543 25.549349935909174 25.549349935909174 25.549349935909174 25.549349935909174 25.527375938472808 25.527375938472808 25.527375938472808 25.527375938472808 25.527375938472808 25.527375938472808 25.527375938472808 25.527375938472808 25.527375938472808 25.527375938472808 25.527375938472808 25.50540194103644 25.50540194103644 25.43947994872734 25.417505951290973 25.37355795641824 25.35158395898187 25.30763596410914 25.30763596410914 25.30763596410914 25.30763596410914 25.30763596410914 25.30763596410914 25.30763596410914 25.28566196667277 25.30763596410914 25.28566196667277 25.30763596410914 25.30763596410914 25.30763596410914 25.28566196667277 25.28566196667277 25.28566196667277 25.28566196667277 25.28566196667277 25.28566196667277 25.30763596410914 25.30763596410914 25.30763596410914 25.30763596410914 25.30763596410914 25.30763596410914 25.30763596410914 25.30763596410914 25.329609961545504 25.329609961545504 25.329609961545504 25.30763596410914 25.329609961545504 25.30763596410914 25.329609961545504 25.329609961545504 25.329609961545504 25.329609961545504 25.329609961545504 25.329609961545504 25.329609961545504 25.329609961545504 25.329609961545504 25.329609961545504 25.329609961545504 25.329609961545504 25.329609961545504 25.329609961545504 25.30763596410914 25.329609961545504 25.329609961545504 25.30763596410914 25.329609961545504 25.30763596410914 25.329609961545504 25.329609961545504 25.329609961545504 25.329609961545504 25.329609961545504 25.329609961545504 25.30763596410914 25.329609961545504 25.30763596410914 25.329609961545504 25.329609961545504 25.329609961545504 25.329609961545504 25.329609961545504 25.30763596410914 25.329609961545504 25.329609961545504 25.30763596410914 25.329609961545504 25.329609961545504 25.329609961545504 25.329609961545504 25.329609961545504 25.329609961545504 25.329609961545504 25.30763596410914 25.329609961545504 25.329609961545504 25.329609961545504 25.329609961545504 25.329609961545504 25.329609961545504 25.329609961545504 25.329609961545504 25.329609961545504 25.329609961545504 25.329609961545504 25.329609961545504 25.329609961545504 25.329609961545504 25.329609961545504 25.329609961545504 25.329609961545504 25.329609961545504 25.329609961545504 25.329609961545504 25.329609961545504 25.30763596410914 25.329609961545504 25.329609961545504 25.329609961545504 25.329609961545504 25.329609961545504 25.329609961545504 25.329609961545504 25.30763596410914 25.329609961545504 25.329609961545504 25.329609961545504 25.329609961545504 25.329609961545504 25.329609961545504 25.329609961545504 25.329609961545504 25.329609961545504 25.329609961545504 25.30763596410914 25.329609961545504 25.329609961545504 25.329609961545504 25.329609961545504 25.329609961545504 25.329609961545504 25.329609961545504 25.329609961545504 25.329609961545504 25.329609961545504 25.329609961545504 25.329609961545504 25.329609961545504 25.329609961545504 25.329609961545504 25.30763596410914 25.329609961545504 25.329609961545504 25.329609961545504 25.329609961545504 25.329609961545504 25.329609961545504 25.329609961545504 25.329609961545504 25.30763596410914 25.329609961545504 25.329609961545504 25.329609961545504 25.329609961545504 25.329609961545504 25.329609961545504 25.329609961545504 25.329609961545504 25.329609961545504 25.329609961545504 25.329609961545504 25.329609961545504 25.329609961545504 25.329609961545504 25.329609961545504 25.329609961545504 25.329609961545504 25.329609961545504 25.329609961545504 25.329609961545504 25.329609961545504 25.329609961545504 25.329609961545504 25.329609961545504 25.329609961545504 25.329609961545504 25.329609961545504 25.329609961545504 25.329609961545504 25.329609961545504 25.329609961545504 25.329609961545504 25.329609961545504 25.35158395898187 25.329609961545504 25.35158395898187 25.35158395898187 25.35158395898187 25.37355795641824 25.395531953854604 25.483427943600073 25.549349935909174 25.615271928218274 25.72514191540011 25.813037905145578 25.966855887200147 26.14264786669108 26.274491851309286 26.51620582310932 26.845815784654825 27.10950375389123 27.614905694927668 27.944515656473172 28.669657571873284 29.065189525727888 29.460721479582496 29.9880974180553 30.537447353964474 30.889031312946347 31.57022523347372 31.89983519501923 32.3832631386193 32.69089910272844 32.998535066837576 33.591832997619484 33.98736495147409 34.22907892327412 34.62461087712873 34.88829884636513 35.28383080021974 35.61344076176525 35.87712873100165 36.250686687419886 36.646218641274494 36.909906610510895 37.327412561801864 37.61307452847464 38.18439846182018 38.51400842336568 38.79967039003846 39.19520234389306 39.7006042849295 39.964292254165905 40.249954220838674 40.447720197765975 40.71140816700238 40.88720014649331 41.10694012085699 41.30470609778429 41.43655008240249 41.65629005676616 41.81010803882073 41.89800402856619 42.0957700054935 42.18366599523897 42.24958798754807 42.31550997985717 42.38143197216627 42.44735396447537 42.49130195934811 42.49130195934811 42.53524995422084 42.53524995422084 42.53524995422084 42.55722395165721 42.55722395165721 42.57919794909357 42.57919794909357 42.57919794909357 42.57919794909357 42.60117194652994 42.60117194652994 42.57919794909357 42.60117194652994 42.57919794909357 42.57919794909357 42.57919794909357 42.60117194652994 42.60117194652994 42.60117194652994 42.62314594396631 42.62314594396631 42.62314594396631 42.62314594396631 42.62314594396631 42.62314594396631 42.62314594396631 42.62314594396631 42.62314594396631 42.62314594396631 42.64511994140267 42.64511994140267 42.64511994140267 42.62314594396631 42.64511994140267 42.62314594396631 42.64511994140267 42.64511994140267 42.62314594396631 42.64511994140267 42.62314594396631 42.64511994140267 42.64511994140267 42.64511994140267 42.64511994140267 42.64511994140267 42.64511994140267 42.64511994140267 42.64511994140267 42.62314594396631 42.62314594396631 42.62314594396631 42.62314594396631 42.64511994140267 42.64511994140267 42.62314594396631 42.64511994140267 42.62314594396631 42.64511994140267 42.64511994140267 42.64511994140267 42.64511994140267 42.64511994140267 42.64511994140267 42.64511994140267 42.64511994140267 42.62314594396631 42.62314594396631 42.62314594396631 42.64511994140267 42.64511994140267 42.62314594396631 42.62314594396631 42.62314594396631 42.62314594396631 42.62314594396631 42.62314594396631 42.62314594396631 42.62314594396631 42.62314594396631 42.62314594396631 42.62314594396631 42.62314594396631 42.62314594396631 42.62314594396631 42.62314594396631 42.62314594396631 42.62314594396631 42.62314594396631 42.62314594396631 42.62314594396631 42.60117194652994 42.57919794909357 42.57919794909357 42.57919794909357 42.57919794909357 42.57919794909357 42.57919794909357 42.57919794909357 42.57919794909357 42.57919794909357 42.57919794909357 42.57919794909357 42.57919794909357 42.57919794909357 42.57919794909357 42.57919794909357 42.57919794909357 42.57919794909357 42.57919794909357 42.57919794909357 42.57919794909357 42.57919794909357 42.57919794909357 42.57919794909357 42.57919794909357 42.57919794909357 42.57919794909357 42.57919794909357 42.60117194652994 42.60117194652994 42.60117194652994 42.60117194652994 42.60117194652994 42.57919794909357 42.57919794909357 42.60117194652994 42.60117194652994 42.60117194652994 42.60117194652994 42.60117194652994 42.57919794909357 42.57919794909357 42.60117194652994 42.57919794909357 42.60117194652994 42.57919794909357 42.57919794909357 42.60117194652994 42.57919794909357 42.57919794909357 42.57919794909357 42.57919794909357 42.60117194652994 42.57919794909357 42.57919794909357 42.57919794909357 42.57919794909357 42.57919794909357 42.60117194652994 42.57919794909357 42.60117194652994 42.57919794909357 42.57919794909357 42.60117194652994 42.60117194652994 42.60117194652994 42.60117194652994 42.60117194652994 42.60117194652994 42.60117194652994 42.60117194652994 42.60117194652994 42.57919794909357 42.57919794909357 42.60117194652994 42.57919794909357 42.57919794909357 42.57919794909357 42.57919794909357 42.57919794909357 42.57919794909357 42.57919794909357 42.57919794909357 42.53524995422084 42.51327595678447 42.49130195934811 42.42537996703901 42.40340596960264 42.35945797472991 42.35945797472991 42.33748397729354 42.33748397729354 42.33748397729354 42.33748397729354 42.35945797472991 42.35945797472991 42.35945797472991 42.38143197216627 42.35945797472991 42.35945797472991 42.38143197216627 42.38143197216627 42.38143197216627 42.35945797472991 42.35945797472991 42.35945797472991 42.33748397729354 42.293535982420806 42.24958798754807 42.20563999267533 42.1616919978026 42.1616919978026 42.13971800036623 42.13971800036623 42.13971800036623 42.13971800036623 42.13971800036623 42.13971800036623 42.13971800036623 42.13971800036623 42.11774400292987 42.11774400292987 42.07379600805713 42.05182201062077 42.0298480131844 41.98590001831167 41.94195202343893 41.89800402856619 41.85405603369347 41.81010803882073 41.72221204907526 41.56839406702069 41.41457608496612 41.19483611060245 40.82127815418421 40.73338216443875 40.403772202893244 39.942318256729536 39.7006042849295 39.458890313129466 39.21717634132943 38.84361838491119 38.57993041567478 38.03058047976561 37.635048525911 37.327412561801864 36.909906610510895 36.470426661783556 36.338582677165356 35.81120673869255 35.54751876945615 35.13001281816517 34.62461087712873 34.40487090276506 34.11920893609229 33.67972898736495 33.438015015564915 33.174327046328514 32.97656106940121 32.69089910272844 32.3832631386193 32.185497161692 31.78996520783739 31.50430324116462 31.394433253982786 31.108771287310017 30.889031312946347 30.58139534883721 30.163889397546235 29.944149423182566 29.61453946163706 29.284929500091557 29.153085515473357 28.75755356161875 28.55978758469145 28.230177623145945 27.922541659036806 27.702801684673137 27.439113715436733 27.351217725691264 27.285295733382164 27.219373741073063 27.17542574620033 27.10950375389123 27.04358176158213 26.999633766709394 26.95568577183666 26.911737776963925 26.88976377952756 26.867789782091194 26.845815784654825 26.779893792345725 26.713971800036624 26.648049807727524 26.560153817982055 26.472257828236586 26.42830983336385 26.340413843618386 26.252517853872916 26.14264786669108 26.032777879509247 25.966855887200147 25.856985900018312 25.769089910272843 25.65921992309101 25.615271928218274 25.593297930781908 25.593297930781908 25.571323933345543 25.549349935909174 25.549349935909174 25.50540194103644 25.43947994872734 25.417505951290973 25.417505951290973 25.395531953854604 25.395531953854604 25.37355795641824 25.37355795641824 25.37355795641824 25.35158395898187 25.35158395898187 25.35158395898187 25.329609961545504 25.329609961545504 25.30763596410914 25.30763596410914 25.30763596410914 25.30763596410914 25.30763596410914 25.30763596410914 25.30763596410914 25.30763596410914 25.30763596410914 25.28566196667277 25.28566196667277 25.28566196667277 25.28566196667277 25.28566196667277 25.28566196667277 25.28566196667277 25.28566196667277 25.263687969236404 25.28566196667277 25.263687969236404 25.28566196667277 25.263687969236404 25.263687969236404 25.263687969236404 25.263687969236404 25.263687969236404 25.263687969236404 25.263687969236404 25.263687969236404 25.263687969236404 25.263687969236404 25.263687969236404 25.263687969236404 25.263687969236404 25.263687969236404 25.263687969236404 25.263687969236404 25.263687969236404 25.263687969236404 25.263687969236404 25.263687969236404 25.263687969236404 25.263687969236404 25.263687969236404 25.28566196667277 25.28566196667277 25.263687969236404 25.28566196667277 25.263687969236404 25.263687969236404 25.263687969236404 25.263687969236404 25.263687969236404 25.263687969236404 25.263687969236404 25.263687969236404 25.263687969236404 25.28566196667277 25.263687969236404 25.263687969236404 25.263687969236404 25.263687969236404 25.263687969236404 25.263687969236404 25.263687969236404 25.263687969236404 25.28566196667277 25.263687969236404 25.263687969236404 25.263687969236404 25.28566196667277 25.28566196667277 25.28566196667277 25.28566196667277 25.263687969236404 25.28566196667277 25.28566196667277 25.263687969236404 25.28566196667277 25.263687969236404 25.263687969236404 25.28566196667277 25.28566196667277 25.263687969236404 25.263687969236404 25.263687969236404 25.263687969236404 25.28566196667277 25.263687969236404 25.263687969236404 25.263687969236404 25.28566196667277 25.28566196667277 25.28566196667277 25.263687969236404 25.28566196667277 25.263687969236404 25.28566196667277 25.263687969236404 25.28566196667277 25.263687969236404 25.263687969236404 25.263687969236404 25.263687969236404 25.28566196667277 25.263687969236404 25.263687969236404 25.263687969236404 25.263687969236404 25.28566196667277 25.28566196667277 25.28566196667277 25.28566196667277 25.28566196667277 25.28566196667277 25.28566196667277 25.28566196667277 25.28566196667277 25.28566196667277 25.28566196667277 25.28566196667277 25.28566196667277 25.28566196667277 25.28566196667277 25.28566196667277 25.28566196667277 25.28566196667277 25.28566196667277 25.28566196667277 25.28566196667277 25.28566196667277 25.28566196667277 25.28566196667277 25.28566196667277 25.28566196667277 25.28566196667277 25.28566196667277 25.28566196667277 25.28566196667277 25.28566196667277 25.28566196667277 25.28566196667277 25.28566196667277 25.28566196667277 25.28566196667277 25.28566196667277 25.28566196667277 25.28566196667277 25.28566196667277 25.28566196667277 25.28566196667277 25.28566196667277 25.28566196667277 25.28566196667277 25.28566196667277 25.28566196667277 25.28566196667277 25.28566196667277 25.28566196667277 25.28566196667277 25.28566196667277 25.28566196667277 25.30763596410914 25.28566196667277 25.28566196667277 25.28566196667277 25.28566196667277 25.28566196667277 25.28566196667277 25.28566196667277 25.28566196667277 25.28566196667277 25.28566196667277 25.28566196667277 25.28566196667277 25.28566196667277 25.28566196667277 25.28566196667277 25.28566196667277 25.28566196667277 25.28566196667277 25.28566196667277 25.28566196667277 25.28566196667277 25.28566196667277 25.28566196667277 25.28566196667277 25.28566196667277 25.28566196667277 25.28566196667277 25.28566196667277 25.28566196667277 25.28566196667277 25.28566196667277 25.28566196667277 25.28566196667277 25.28566196667277 25.28566196667277 25.28566196667277 25.28566196667277 25.28566196667277 25.28566196667277 25.28566196667277 25.28566196667277 25.28566196667277 25.28566196667277 25.28566196667277 25.28566196667277 25.28566196667277 25.28566196667277 25.28566196667277 25.28566196667277 25.28566196667277 25.28566196667277 25.28566196667277 25.28566196667277 25.28566196667277 25.28566196667277 25.28566196667277 25.28566196667277 25.28566196667277 25.28566196667277 25.28566196667277 25.28566196667277 25.28566196667277 25.28566196667277 25.28566196667277 25.28566196667277 25.28566196667277 25.28566196667277 25.28566196667277 25.28566196667277 25.28566196667277 25.28566196667277 25.28566196667277 25.28566196667277 25.28566196667277 25.28566196667277 25.28566196667277 25.28566196667277 25.28566196667277 25.28566196667277 25.28566196667277 25.28566196667277 25.28566196667277 25.28566196667277 25.28566196667277 25.28566196667277 25.28566196667277 25.28566196667277 25.28566196667277 25.28566196667277 25.30763596410914 25.28566196667277 25.28566196667277 25.30763596410914 25.28566196667277 25.28566196667277 25.28566196667277 25.28566196667277 25.28566196667277 25.28566196667277 25.28566196667277 25.28566196667277 25.28566196667277 25.28566196667277 25.28566196667277 25.28566196667277 25.28566196667277 25.28566196667277 25.28566196667277 25.28566196667277 25.30763596410914 25.30763596410914 25.28566196667277 25.28566196667277 25.30763596410914 25.28566196667277 25.28566196667277 25.28566196667277 25.28566196667277 25.28566196667277 25.28566196667277 25.28566196667277 25.30763596410914 25.28566196667277 25.28566196667277 25.30763596410914 25.30763596410914 25.30763596410914 25.28566196667277 25.30763596410914 25.28566196667277 25.28566196667277 25.28566196667277 25.30763596410914 25.30763596410914 25.30763596410914 25.28566196667277 25.28566196667277 25.28566196667277 25.30763596410914 25.30763596410914 25.30763596410914 25.30763596410914 25.30763596410914 25.30763596410914 25.30763596410914 25.30763596410914 25.30763596410914 25.30763596410914 25.329609961545504 25.329609961545504 25.329609961545504 25.35158395898187 25.395531953854604 25.483427943600073 25.571323933345543 25.637245925654643 25.72514191540011 25.856985900018312 25.900933894891047 26.01080388207288 26.164621864127447 26.252517853872916 26.51620582310932 26.648049807727524 26.911737776963925 27.219373741073063 27.373191723127633 27.74674967954587 28.03241164621864 28.603735579564184 29.043215528291523 29.328877494964292 29.76835744369163 30.383629371909905 30.713239333455412 31.020875297564547 31.37245925654642 31.767991210401025 32.2514191540011 32.75682109503754 33.152353048892145 33.789598974546784 34.141182933528654 34.49276689251053 34.8443508514924 35.37172678996521 35.87712873100165 36.22871268998352 36.931880607947264 37.45925654642007 37.78886650796557 38.18439846182018 38.44808643105658 38.93151437465666 39.5687603003113 39.920344259293174 40.535616187511444 40.68943416956601 41.12891411829335 41.52444607214796 41.78813404138436 42.13971800036623 42.38143197216627 42.55722395165721 42.75498992858451 42.842885918329976 42.97472990294818 43.01867789782091 43.062625892693646 43.106573887566384 43.128547885002746 43.128547885002746 43.128547885002746 43.128547885002746 43.128547885002746 43.128547885002746 43.150521882439115 43.216443874748215 43.260391869620946 43.326313861930046 43.414209851675515 43.502105841420985 43.568027833730085 43.633949826039185 43.67789782091192 43.74381981322102 43.765793810657385 43.787767808093754 43.80974180553012 43.80974180553012 43.80974180553012 43.80974180553012 43.80974180553012 43.831715802966485 43.80974180553012 43.80974180553012 43.831715802966485 43.85368980040286 43.87566379783922 43.87566379783922 43.87566379783922 43.87566379783922 43.897637795275585 43.897637795275585 43.87566379783922 43.87566379783922 43.87566379783922 43.87566379783922 43.85368980040286 43.85368980040286 43.85368980040286 43.85368980040286 43.85368980040286 43.85368980040286 43.85368980040286 43.85368980040286 43.85368980040286 43.85368980040286 43.85368980040286 43.85368980040286 43.85368980040286 43.85368980040286 43.831715802966485 43.80974180553012 43.787767808093754 43.765793810657385 43.765793810657385 43.765793810657385 43.765793810657385 43.74381981322102 43.74381981322102 43.74381981322102 43.765793810657385 43.74381981322102 43.765793810657385 43.721845815784654 43.721845815784654 43.699871818348285 43.699871818348285 43.67789782091192 43.67789782091192 43.67789782091192 43.67789782091192 43.67789782091192 43.67789782091192 43.67789782091192 43.67789782091192 43.67789782091192 43.67789782091192 43.67789782091192 43.699871818348285 43.67789782091192 43.67789782091192 43.67789782091192 43.67789782091192 43.67789782091192 43.67789782091192 43.67789782091192 43.67789782091192 43.67789782091192 43.67789782091192 43.67789782091192 43.67789782091192 43.67789782091192 43.655923823475554 43.67789782091192 43.655923823475554 43.633949826039185 43.61197582860282 43.61197582860282 43.590001831166454 43.568027833730085 43.568027833730085 43.54605383629372 43.54605383629372 43.54605383629372 43.54605383629372 43.54605383629372 43.54605383629372 43.54605383629372 43.54605383629372 43.54605383629372 43.54605383629372 43.52407983885735 43.502105841420985 43.502105841420985 43.48013184398462 43.45815784654825 43.436183849111885 43.436183849111885 43.414209851675515 43.392235854239146 43.370261856802784 43.348287859366415 43.326313861930046 43.326313861930046 43.304339864493684 43.304339864493684 43.304339864493684 43.282365867057315 43.260391869620946 43.282365867057315 43.282365867057315 43.282365867057315 43.282365867057315 43.282365867057315 43.282365867057315 43.282365867057315 43.238417872184584 43.238417872184584 43.238417872184584 43.216443874748215 43.216443874748215 43.216443874748215 43.194469877311846 43.194469877311846 43.172495879875484 43.172495879875484 43.172495879875484 43.172495879875484 43.172495879875484 43.172495879875484 43.172495879875484 43.172495879875484 43.172495879875484 43.172495879875484 43.194469877311846 43.216443874748215 43.216443874748215 43.216443874748215 43.216443874748215 43.216443874748215 43.216443874748215 43.216443874748215 43.216443874748215 43.216443874748215 43.216443874748215 43.194469877311846 43.194469877311846 43.194469877311846 43.194469877311846 43.194469877311846 43.194469877311846 43.194469877311846 43.216443874748215 43.238417872184584 43.260391869620946 43.282365867057315 43.282365867057315 43.304339864493684 43.304339864493684 43.326313861930046 43.326313861930046 43.326313861930046 43.326313861930046 43.326313861930046 43.326313861930046 43.304339864493684 43.304339864493684 43.304339864493684 43.304339864493684 43.326313861930046 43.304339864493684 43.304339864493684 43.326313861930046 43.304339864493684 43.304339864493684 43.304339864493684 43.326313861930046 43.326313861930046 43.304339864493684 43.326313861930046 43.304339864493684 43.326313861930046 43.326313861930046 43.326313861930046 43.326313861930046 43.326313861930046 43.326313861930046 43.326313861930046 43.326313861930046 43.348287859366415 43.348287859366415 43.348287859366415 43.348287859366415 43.348287859366415 43.348287859366415 43.326313861930046 43.326313861930046 43.326313861930046 43.326313861930046 43.326313861930046 43.326313861930046 43.326313861930046 43.304339864493684 43.304339864493684 43.326313861930046 43.326313861930046 43.326313861930046 43.326313861930046 43.326313861930046 43.348287859366415 43.326313861930046 43.326313861930046 43.326313861930046 43.348287859366415 43.326313861930046 43.326313861930046 43.326313861930046 43.326313861930046 43.326313861930046 43.326313861930046 43.326313861930046 43.326313861930046 43.326313861930046 43.326313861930046 43.326313861930046 43.326313861930046 43.326313861930046 43.348287859366415 43.348287859366415 43.348287859366415 43.348287859366415 43.348287859366415 43.348287859366415 43.348287859366415 43.348287859366415 43.348287859366415 43.348287859366415 43.348287859366415 43.348287859366415 43.326313861930046 43.326313861930046 43.326313861930046 43.348287859366415 43.326313861930046 43.326313861930046 43.326313861930046 43.326313861930046 43.326313861930046 43.326313861930046 43.326313861930046 43.326313861930046 43.304339864493684 43.304339864493684 43.282365867057315 43.260391869620946 43.216443874748215 43.150521882439115 43.08459989013001 42.996703900384546 42.864859915766345 42.776963926020876 42.733015931148145 42.64511994140267 42.53524995422084 42.42537996703901 42.35945797472991 42.2276139901117 42.05182201062077 42.00787401574803 41.85405603369347 41.72221204907526 41.54642006958433 41.32668009522065 41.17286211316609 40.84325215162058 40.55759018494781 40.469694195202344 40.184032228529574 39.986266251602274 39.7006042849295 39.305072331074896 39.107306354147596 38.68980040285662 38.49203442592932 38.33821644387475 37.96465848745651 37.74491851309284 37.415308551547334 37.08569859000183 36.865958615638164 36.558322651529025 36.22871268998352 36.03094671305622 35.76725874381981 35.54751876945615 35.28383080021974 35.0421168284197 34.86632484892877 34.60263687969236 34.31697491301959 34.22907892327412 34.009338948910454 33.789598974546784 33.569859000183115 33.350119025819446 33.174327046328514 32.84471708478301 32.66892510529207 32.5151071232375 32.27339315143747 32.09760117194653 31.87786119758286 31.636147225782825 31.482329243728255 31.262589269364586 31.130745284746382 30.954953305255447 30.735213330891778 30.603369346273574 30.42757736678264 30.185863394982604 30.07599340780077 29.8562534334371 29.70243545138253 29.460721479582496 29.284929500091557 29.043215528291523 28.801501556491484 28.581761582127815 28.40596960263688 28.18622962827321 27.988463651345906 27.90056766160044 27.81267167185497 27.768723676982237 27.702801684673137 27.658853689800402 27.636879692364037 27.548983702618568 27.527009705182202 27.461087712873102 27.395165720564 27.373191723127633 27.285295733382164 27.197399743636698 27.131477751327594 27.065555759018494 27.02160776414576 26.933711774400294 26.88976377952756 26.82384178721846 26.67002380516389 26.60410181285479 26.538179820545686 26.45028383080022 26.406335835927486 26.340413843618386 26.274491851309286 26.23054385643655 26.208569859000182 26.208569859000182 26.186595861563816 26.164621864127447 26.14264786669108 26.14264786669108 26.120673869254716 26.098699871818347 26.07672587438198 26.054751876945616 26.054751876945616 26.032777879509247 26.01080388207288 25.988829884636512 25.988829884636512 25.966855887200147 25.922907892327412 25.922907892327412 25.900933894891047 25.878959897454678 25.856985900018312 25.835011902581943 25.813037905145578 25.813037905145578 25.813037905145578 25.813037905145578 25.791063907709212 25.791063907709212 25.769089910272843 25.769089910272843 25.747115912836477 25.747115912836477 25.72514191540011 25.72514191540011 25.703167917963743 25.703167917963743 25.681193920527377 25.681193920527377 25.65921992309101 25.65921992309101 25.65921992309101 25.65921992309101 25.637245925654643 25.637245925654643 25.637245925654643 25.637245925654643 25.637245925654643 25.637245925654643 25.637245925654643 25.615271928218274 25.637245925654643 25.615271928218274 25.615271928218274 25.615271928218274 25.615271928218274 25.615271928218274 25.615271928218274 25.615271928218274 25.615271928218274 25.615271928218274 25.593297930781908 25.593297930781908 25.593297930781908 25.593297930781908 25.593297930781908 25.593297930781908 25.571323933345543 25.593297930781908 25.571323933345543 25.571323933345543 25.571323933345543 25.571323933345543 25.571323933345543 25.571323933345543 25.571323933345543 25.571323933345543 25.571323933345543 25.571323933345543 25.571323933345543 25.549349935909174 25.549349935909174 25.549349935909174 25.527375938472808 25.50540194103644 25.50540194103644 25.483427943600073 25.483427943600073 25.483427943600073 25.483427943600073 25.483427943600073 25.483427943600073 25.483427943600073 25.461453946163708 25.461453946163708 25.483427943600073 25.461453946163708 25.461453946163708 25.461453946163708 25.461453946163708 25.461453946163708 25.461453946163708 25.461453946163708 25.461453946163708 25.461453946163708 25.461453946163708 25.461453946163708 25.461453946163708 25.461453946163708 25.461453946163708 25.461453946163708 25.461453946163708 25.461453946163708 25.461453946163708 25.461453946163708 25.461453946163708 25.461453946163708 25.461453946163708 25.461453946163708 25.461453946163708 25.461453946163708 25.461453946163708 25.461453946163708 25.461453946163708 25.461453946163708 25.461453946163708 25.461453946163708 25.461453946163708 25.461453946163708 25.461453946163708 25.461453946163708 25.461453946163708 25.461453946163708 25.461453946163708 25.461453946163708 25.461453946163708 25.461453946163708 25.461453946163708 25.461453946163708 25.461453946163708 25.461453946163708 25.461453946163708 25.461453946163708 25.461453946163708 25.461453946163708 25.461453946163708 25.461453946163708 25.461453946163708 25.461453946163708 25.461453946163708 25.461453946163708 25.461453946163708 25.461453946163708 25.461453946163708 25.461453946163708 25.461453946163708 25.461453946163708 25.461453946163708 25.461453946163708 25.461453946163708 25.461453946163708 25.461453946163708 25.461453946163708 25.461453946163708 25.461453946163708 25.461453946163708 25.461453946163708 25.461453946163708 25.461453946163708 25.461453946163708 25.461453946163708 25.461453946163708 25.461453946163708 25.483427943600073 25.483427943600073 25.483427943600073 25.483427943600073 25.483427943600073 25.483427943600073 25.483427943600073 25.483427943600073 25.50540194103644 25.50540194103644 25.527375938472808 25.527375938472808 25.549349935909174 25.549349935909174 25.571323933345543 25.571323933345543 25.593297930781908 25.615271928218274 25.637245925654643 25.65921992309101 25.681193920527377 25.703167917963743 25.72514191540011 25.791063907709212 25.878959897454678 25.922907892327412 25.966855887200147 26.032777879509247 26.07672587438198 26.14264786669108 26.208569859000182 26.274491851309286 26.36238784105475 26.45028383080022 26.51620582310932 26.648049807727524 26.867789782091194 27.10950375389123 27.307269730818533 27.505035707745833 27.81267167185497 28.12030763596411 28.55978758469145 28.801501556491484 29.043215528291523 29.41677348470976 29.658487456509796 30.032045412928035 30.405603369346274 30.757187328328143 31.020875297564547 31.394433253982786 31.65812122321919 32.03167917963743 32.42721113349204 32.712873100164806 33.064457059146676 33.39406702069218 33.635780992492215 34.009338948910454 34.25105292071049 34.75645486174693 35.0421168284197 35.30580479765611 35.72331074894708 36.338582677165356 36.646218641274494 36.953854605383626 37.3713605566746 37.8328145028383 38.14045046694744 38.40413843618385 39.08533235671123 39.39296832082036 39.678630287493135 39.986266251602274 40.227980223402305 40.55759018494781 40.86522614905695 41.06299212598425 41.32668009522065 41.56839406702069 41.74418604651163 42.05182201062077 42.11774400292987 42.35945797472991 42.57919794909357 42.733015931148145 42.90880791063908 43.08459989013001 43.216443874748215 43.304339864493684 43.326313861930046 43.326313861930046 43.326313861930046 43.326313861930046 43.348287859366415 43.370261856802784 43.370261856802784 43.370261856802784 43.392235854239146 43.414209851675515 43.414209851675515 43.436183849111885 43.436183849111885 43.45815784654825 43.45815784654825 43.48013184398462 43.48013184398462 43.45815784654825 43.45815784654825 43.48013184398462 43.48013184398462 43.48013184398462 43.45815784654825 43.45815784654825 43.45815784654825 43.45815784654825 43.45815784654825 43.45815784654825 43.45815784654825 43.436183849111885 43.414209851675515 43.392235854239146 43.392235854239146 43.348287859366415 43.326313861930046 43.304339864493684 43.260391869620946 43.238417872184584 43.194469877311846 43.128547885002746 43.08459989013001 43.040651895257284 42.97472990294818 42.97472990294818 42.930781908075446 42.90880791063908 42.82091192089361 42.733015931148145 42.68906793627541 42.64511994140267 42.53524995422084 42.51327595678447 42.44735396447537 42.38143197216627 42.31550997985717 42.24958798754807 42.2276139901117 42.1616919978026 42.13971800036623 42.07379600805713 42.0298480131844 41.98590001831167 41.9639260208753 41.94195202343893 41.91997802600257 41.89800402856619 41.87603003112983 41.83208203625709 41.81010803882073 41.81010803882073 41.78813404138436 41.78813404138436 41.78813404138436 41.78813404138436 41.78813404138436 41.78813404138436 41.78813404138436 41.81010803882073 41.81010803882073 41.78813404138436 41.78813404138436 41.76616004394799 41.74418604651163 41.72221204907526 41.70023805163889 41.67826405420253 41.59036806445706 41.56839406702069 41.52444607214796 41.50247207471159 41.45852407983885 41.43655008240249 41.43655008240249 41.41457608496612 41.34865409265702 41.32668009522065 41.30470609778429 41.28273210034792 41.28273210034792 41.28273210034792 41.28273210034792 41.28273210034792 41.28273210034792 41.28273210034792 41.28273210034792 41.28273210034792 41.26075810291155 41.26075810291155 41.26075810291155 41.23878410547519 41.23878410547519 41.21681010803882 41.21681010803882 41.21681010803882 41.19483611060245 41.19483611060245 41.17286211316609 41.15088811572972 41.12891411829335 41.10694012085699 41.10694012085699 41.10694012085699 41.10694012085699 41.12891411829335 41.10694012085699 41.12891411829335 41.10694012085699 41.10694012085699 41.084966123420614 41.084966123420614 41.084966123420614 41.10694012085699 41.084966123420614 41.084966123420614 41.06299212598425 41.06299212598425 41.04101812854789 41.04101812854789 41.019044131111514 41.04101812854789 41.04101812854789 41.04101812854789 41.04101812854789 41.04101812854789 41.04101812854789 41.019044131111514 40.99707013367515 40.99707013367515 40.99707013367515 40.97509613623878 40.97509613623878 40.99707013367515 40.97509613623878 40.97509613623878 40.953122138802414 40.97509613623878 40.953122138802414 40.953122138802414 40.97509613623878 40.97509613623878 40.953122138802414 40.953122138802414 40.93114814136605 40.93114814136605 40.93114814136605 40.93114814136605 40.93114814136605 40.93114814136605 40.93114814136605 40.93114814136605 40.93114814136605 40.93114814136605 40.93114814136605 40.93114814136605 40.90917414392968 40.90917414392968 40.90917414392968 40.90917414392968 40.90917414392968 40.93114814136605 40.90917414392968 40.90917414392968 40.90917414392968 40.90917414392968 40.90917414392968 40.90917414392968 40.90917414392968 40.93114814136605 40.93114814136605 40.93114814136605 40.93114814136605 40.93114814136605 40.953122138802414 40.953122138802414 40.953122138802414 40.953122138802414 40.97509613623878 40.97509613623878 40.97509613623878 40.953122138802414 40.953122138802414 40.953122138802414 40.953122138802414 40.953122138802414 40.953122138802414 40.953122138802414 40.953122138802414 40.953122138802414 40.953122138802414 40.953122138802414 40.953122138802414 40.953122138802414 40.953122138802414 40.953122138802414 40.953122138802414 40.953122138802414 40.953122138802414 40.953122138802414 40.953122138802414 40.93114814136605 40.93114814136605 40.90917414392968 40.90917414392968 40.93114814136605 40.90917414392968 40.90917414392968 40.90917414392968 40.90917414392968 40.90917414392968 40.90917414392968 40.90917414392968 40.90917414392968 40.88720014649331 40.86522614905695 40.84325215162058 40.84325215162058 40.84325215162058 40.82127815418421 40.82127815418421 40.82127815418421 40.84325215162058 40.84325215162058 40.84325215162058 40.86522614905695 40.86522614905695 40.88720014649331 40.88720014649331 40.88720014649331 40.88720014649331 40.88720014649331 40.88720014649331 40.90917414392968 40.88720014649331 40.88720014649331 40.90917414392968 40.90917414392968 40.90917414392968 40.90917414392968 40.93114814136605 40.93114814136605 40.953122138802414 40.953122138802414 40.97509613623878 40.97509613623878 40.97509613623878 40.97509613623878 40.953122138802414 40.93114814136605 40.90917414392968 40.84325215162058 40.77733015931148 40.73338216443875 40.62351217725691 40.55759018494781 40.42574620032961 40.29390221571141 40.140084233656836 40.008240249038636 39.810474272111335 39.722578282365866 39.39296832082036 39.19520234389306 38.86559238234756 38.53598242080205 38.31624244643838 37.98663248489288 37.59110053103827 37.28346456692913 36.865958615638164 36.536348654092656 36.07489470792895 35.43764878227431 35.30580479765611 34.7125068668742 34.29500091558323 34.03131294634682 33.767624977110415 33.503937007874015 32.95458707196484 32.75682109503754 32.55905511811024 32.1195751693829 31.921809192455594 31.767991210401025 31.59219923091009 31.43838124885552 31.262589269364586 31.042849295000916 30.911005310382713 30.647317341146312 30.537447353964474 30.339681377037174 30.14191540010987 29.9880974180553 29.790331441127996 29.526643471891596 29.394799487273392 29.19703351034609 29.021241530855153 28.889397546236953 28.69163156930965 28.53781358725508 28.38399560520051 28.31807361289141 28.230177623145945 28.208203625709576 28.142281633400476 28.05438564365501 28.03241164621864 27.988463651345906 27.90056766160044 27.81267167185497 27.74674967954587 27.592931697491302 27.505035707745833 27.351217725691264 27.263321735945798 27.153451748763963 26.999633766709394 26.779893792345725 26.648049807727524 26.472257828236586 26.36238784105475 26.208569859000182 26.120673869254716 26.054751876945616 25.966855887200147 25.966855887200147 25.966855887200147 25.966855887200147 25.966855887200147 25.966855887200147 25.944881889763778 25.922907892327412 25.900933894891047 25.922907892327412 25.900933894891047 25.900933894891047 25.878959897454678 25.835011902581943 25.813037905145578 25.813037905145578 25.791063907709212 25.769089910272843 25.747115912836477 25.747115912836477 25.72514191540011 25.703167917963743 25.681193920527377 25.65921992309101 25.65921992309101 25.637245925654643 25.615271928218274 25.593297930781908 25.593297930781908 25.571323933345543 25.571323933345543 25.571323933345543 25.571323933345543 25.549349935909174 25.549349935909174 25.527375938472808 25.527375938472808 25.527375938472808 25.50540194103644 25.527375938472808 25.50540194103644 25.50540194103644 25.483427943600073 25.483427943600073 25.483427943600073 25.483427943600073 25.483427943600073 25.483427943600073 25.483427943600073 25.483427943600073 25.483427943600073 25.483427943600073 25.483427943600073 25.483427943600073 25.483427943600073 25.483427943600073 25.483427943600073 25.483427943600073 25.483427943600073 25.461453946163708 25.461453946163708 25.461453946163708 25.461453946163708 25.461453946163708 25.461453946163708 25.461453946163708 25.461453946163708 25.461453946163708 25.461453946163708 25.461453946163708 25.461453946163708 25.461453946163708 25.461453946163708 25.43947994872734 25.461453946163708 25.43947994872734 25.43947994872734 25.461453946163708 25.43947994872734 25.43947994872734 25.43947994872734 25.43947994872734 25.43947994872734 25.43947994872734 25.43947994872734 25.43947994872734 25.43947994872734 25.43947994872734 25.417505951290973 25.417505951290973 25.417505951290973 25.417505951290973 25.417505951290973 25.395531953854604 25.395531953854604 25.395531953854604 25.395531953854604 25.395531953854604 25.395531953854604 25.37355795641824 25.37355795641824 25.37355795641824 25.37355795641824 25.37355795641824 25.37355795641824 25.37355795641824 25.37355795641824 25.37355795641824 25.37355795641824 25.37355795641824 25.37355795641824 25.37355795641824 25.37355795641824 25.35158395898187 25.37355795641824 25.37355795641824 25.35158395898187 25.37355795641824 25.35158395898187 25.35158395898187 25.35158395898187 25.35158395898187 25.35158395898187 25.35158395898187 25.35158395898187 25.35158395898187 25.35158395898187 25.35158395898187 25.35158395898187 25.35158395898187 25.35158395898187 25.35158395898187 25.35158395898187 25.35158395898187 25.35158395898187 25.329609961545504 25.35158395898187 25.329609961545504 25.35158395898187 25.329609961545504 25.329609961545504 25.329609961545504 25.329609961545504 25.329609961545504 25.329609961545504 25.329609961545504 25.329609961545504 25.329609961545504 25.329609961545504 25.329609961545504 25.329609961545504 25.329609961545504 25.329609961545504 25.329609961545504 25.329609961545504 25.329609961545504 25.329609961545504 25.329609961545504 25.329609961545504 25.329609961545504 25.329609961545504 25.329609961545504 25.329609961545504 25.329609961545504 25.329609961545504 25.329609961545504 25.30763596410914 25.329609961545504 25.329609961545504 25.329609961545504 25.329609961545504 25.329609961545504 25.329609961545504 25.329609961545504 25.30763596410914 25.329609961545504 25.30763596410914 25.30763596410914 25.30763596410914 25.30763596410914 25.329609961545504 25.30763596410914 25.30763596410914 25.329609961545504 25.30763596410914 25.329609961545504 25.329609961545504 25.329609961545504 25.30763596410914 25.30763596410914 25.329609961545504 25.30763596410914 25.329609961545504 25.329609961545504 25.329609961545504 25.30763596410914 25.30763596410914 25.30763596410914 25.329609961545504 25.329609961545504 25.329609961545504 25.329609961545504 25.329609961545504 25.329609961545504 25.30763596410914 25.329609961545504 25.329609961545504 25.329609961545504 25.30763596410914 25.329609961545504 25.30763596410914 25.329609961545504 25.329609961545504 25.329609961545504 25.329609961545504 25.329609961545504 25.329609961545504 25.329609961545504 25.329609961545504 25.329609961545504 25.329609961545504 25.30763596410914 25.30763596410914 25.329609961545504 25.329609961545504 25.329609961545504 25.329609961545504 25.329609961545504 25.329609961545504 25.329609961545504 25.329609961545504 25.329609961545504 25.329609961545504 25.329609961545504 25.329609961545504 25.329609961545504 25.329609961545504 25.35158395898187 25.35158395898187 25.35158395898187 25.35158395898187 25.35158395898187 25.35158395898187 25.35158395898187 25.37355795641824 25.37355795641824 25.37355795641824 25.395531953854604 25.395531953854604 25.395531953854604 25.417505951290973 25.43947994872734 25.461453946163708 25.50540194103644 25.527375938472808 25.571323933345543 25.615271928218274 25.703167917963743 25.769089910272843 25.835011902581943 25.922907892327412 25.988829884636512 26.098699871818347 26.252517853872916 26.340413843618386 26.45028383080022 26.648049807727524 26.713971800036624 26.867789782091194 26.97765976927303 27.219373741073063 27.395165720564 27.505035707745833 27.724775682109502 27.988463651345906 28.27412561801868 28.62570957700055 28.91137154367332 29.328877494964292 29.790331441127996 30.07599340780077 30.647317341146312 30.954953305255447 31.35048525911005 31.636147225782825 31.89983519501923 32.29536714887384 32.84471708478301 33.152353048892145 33.569859000183115 34.075260941219554 34.207104925837754 34.60263687969236 35.02014283098333 35.43764878227431 35.85515473356528 36.14081670023805 36.58029664896539 36.997802600256364 37.261490569492764 37.635048525911 37.87676249771104 38.20637245925654 38.53598242080205 38.71177440029299 39.08533235671123 39.32704632851126 39.458890313129466 39.7006042849295 39.876396264420436 40.206006225965936 40.49166819263871 40.82127815418421 41.084966123420614 41.37062809009339 41.52444607214796 41.70023805163889 41.85405603369347 42.1616919978026 42.44735396447537 42.64511994140267 42.88683391320271 43.062625892693646 43.260391869620946 43.48013184398462 43.568027833730085 43.721845815784654 43.787767808093754 43.85368980040286 43.897637795275585 43.941585790148324 44.02948177989379 44.05145577733016 44.073429774766524 44.073429774766524 44.073429774766524 44.073429774766524 44.05145577733016 44.05145577733016 44.05145577733016 44.073429774766524 44.073429774766524 44.073429774766524 44.05145577733016 44.05145577733016 44.073429774766524 44.05145577733016 44.05145577733016 44.05145577733016 44.05145577733016 44.05145577733016 44.05145577733016 44.05145577733016 44.05145577733016 44.05145577733016 44.02948177989379 44.02948177989379 44.02948177989379 44.007507782457424 44.007507782457424 44.007507782457424 44.007507782457424 44.007507782457424 44.007507782457424 44.007507782457424 44.007507782457424 44.007507782457424 44.007507782457424 43.98553378502106 43.96355978758469 43.96355978758469 43.941585790148324 43.91961179271196 43.91961179271196 43.897637795275585 43.897637795275585 43.87566379783922 43.87566379783922 43.87566379783922 43.85368980040286 43.85368980040286 43.831715802966485 43.831715802966485 43.80974180553012 43.787767808093754 43.765793810657385 43.765793810657385 43.74381981322102 43.74381981322102 43.74381981322102 43.74381981322102 43.74381981322102 43.74381981322102 43.74381981322102 43.74381981322102 43.74381981322102 43.765793810657385 43.74381981322102 43.74381981322102 43.74381981322102 43.74381981322102 43.721845815784654 43.699871818348285 43.67789782091192 43.633949826039185 43.590001831166454 43.568027833730085 43.52407983885735 43.436183849111885 43.392235854239146 43.370261856802784 43.370261856802784 43.370261856802784 43.370261856802784 43.370261856802784 43.370261856802784 43.370261856802784 43.370261856802784 43.348287859366415 43.326313861930046 43.282365867057315 43.282365867057315 43.260391869620946 43.238417872184584 43.172495879875484 43.128547885002746 43.08459989013001 43.040651895257284 43.01867789782091 42.996703900384546 42.97472990294818 42.95275590551181 42.95275590551181 42.930781908075446 42.930781908075446 42.90880791063908 42.864859915766345 42.864859915766345 42.82091192089361 42.776963926020876 42.75498992858451 42.71104193371177 42.667093938839045 42.64511994140267 42.62314594396631 42.60117194652994 42.60117194652994 42.57919794909357 42.57919794909357 42.55722395165721 42.57919794909357 42.55722395165721 42.57919794909357 42.57919794909357 42.55722395165721 42.55722395165721 42.53524995422084 42.51327595678447 42.51327595678447 42.51327595678447 42.49130195934811 42.49130195934811 42.49130195934811 42.49130195934811 42.49130195934811 42.49130195934811 42.51327595678447 42.51327595678447 42.51327595678447 42.51327595678447 42.51327595678447 42.49130195934811 42.42537996703901 42.38143197216627 42.33748397729354 42.293535982420806 42.293535982420806 42.27156198498443 42.27156198498443 42.24958798754807 42.27156198498443 42.24958798754807 42.24958798754807 42.27156198498443 42.24958798754807 42.24958798754807 42.24958798754807 42.24958798754807 42.24958798754807 42.24958798754807 42.24958798754807 42.2276139901117 42.2276139901117 42.2276139901117 42.20563999267533 42.2276139901117 42.20563999267533 42.20563999267533 42.20563999267533 42.20563999267533 42.20563999267533 42.2276139901117 42.2276139901117 42.2276139901117 42.2276139901117 42.20563999267533 42.2276139901117 42.2276139901117 42.2276139901117 42.2276139901117 42.24958798754807 42.24958798754807 42.24958798754807 42.27156198498443 42.27156198498443 42.27156198498443 42.293535982420806 42.293535982420806 42.293535982420806 42.293535982420806 42.293535982420806 42.293535982420806 42.293535982420806 42.293535982420806 42.293535982420806 42.293535982420806 42.293535982420806 42.293535982420806 42.293535982420806 42.31550997985717 42.31550997985717 42.31550997985717 42.31550997985717 42.31550997985717 42.31550997985717 42.293535982420806 42.293535982420806 42.27156198498443 42.2276139901117 42.18366599523897 42.13971800036623 42.0298480131844 41.91997802600257 41.87603003112983 41.74418604651163 41.65629005676616 41.45852407983885 41.32668009522065 41.12891411829335 40.93114814136605 40.667460172129644 40.49166819263871 40.206006225965936 40.030214246475005 39.744552279802235 39.4369163156931 39.21717634132943 38.88756637978392 38.53598242080205 38.27229445156565 37.89873649514741 37.61307452847464 37.1735945797473 36.624244643838125 36.38253067203809 36.14081670023805 35.83318073612892 35.54751876945615 35.28383080021974 35.10803882072881 34.86632484892877 34.62461087712873 34.38289690532869 34.25105292071049 34.11920893609229 33.92144295916499 33.74565097967405 33.61380699505585 33.459989013001284 33.284197033510345 33.152353048892145 32.88866507965574 32.75682109503754 32.62497711041934 32.4491851309284 32.3173411463102 32.1195751693829 31.855887200146494 31.72404321552829 31.57022523347372 31.46035524629189 31.28456326680095 31.174693279619117 31.064823292437282 30.86705731550998 30.735213330891778 30.625343343709943 30.471525361655374 30.383629371909905 30.163889397546235 30.054019410364404 29.9221754257462 29.724409448818896 29.460721479582496 29.240981505218826 28.64768357443692 28.40596960263688 28.31807361289141 28.18622962827321 28.05438564365501 27.90056766160044 27.724775682109502 27.527009705182202 27.373191723127633 27.263321735945798 27.131477751327594 27.065555759018494 26.97765976927303 26.933711774400294 26.933711774400294 26.911737776963925 26.867789782091194 26.845815784654825 26.80186778978209 26.757919794909355 26.73594579747299 26.691997802600255 26.67002380516389 26.648049807727524 26.60410181285479 26.58212781541842 26.51620582310932 26.472257828236586 26.45028383080022 26.406335835927486 26.38436183849112 26.340413843618386 26.29646584874565 26.274491851309286 26.252517853872916 26.23054385643655 26.208569859000182 26.164621864127447 26.14264786669108 26.14264786669108 26.120673869254716 26.120673869254716 26.120673869254716 26.098699871818347 26.098699871818347 26.07672587438198 26.07672587438198 26.054751876945616 26.032777879509247 26.032777879509247 25.988829884636512 25.966855887200147 25.944881889763778 25.922907892327412 25.922907892327412 25.922907892327412 25.922907892327412 25.900933894891047 25.878959897454678 25.878959897454678 25.878959897454678 25.856985900018312 25.878959897454678 25.856985900018312 25.856985900018312 25.835011902581943 25.835011902581943 25.813037905145578 25.813037905145578 25.791063907709212 25.791063907709212 25.769089910272843 25.791063907709212 25.769089910272843 25.769089910272843 25.769089910272843 25.769089910272843 25.769089910272843 25.747115912836477 25.747115912836477 25.747115912836477 25.747115912836477 25.72514191540011 25.72514191540011 25.72514191540011 25.72514191540011 25.703167917963743 25.703167917963743 25.703167917963743 25.703167917963743 25.703167917963743 25.703167917963743 25.703167917963743 25.703167917963743 25.703167917963743 25.703167917963743 25.703167917963743 25.703167917963743 25.681193920527377 25.681193920527377 25.681193920527377 25.681193920527377 25.681193920527377 25.681193920527377 25.681193920527377 25.681193920527377 25.681193920527377 25.681193920527377 25.681193920527377 25.681193920527377 25.681193920527377 25.681193920527377 25.65921992309101 25.65921992309101 25.681193920527377 25.681193920527377 25.65921992309101 25.681193920527377 25.681193920527377 25.65921992309101 25.65921992309101 25.681193920527377 25.65921992309101 25.65921992309101 25.65921992309101 25.65921992309101 25.65921992309101 25.65921992309101 25.65921992309101 25.65921992309101 25.65921992309101 25.65921992309101 25.65921992309101 25.65921992309101 25.65921992309101 25.65921992309101 25.65921992309101 25.65921992309101 25.65921992309101 25.65921992309101 25.65921992309101 25.65921992309101 25.65921992309101 25.65921992309101 25.65921992309101 25.65921992309101 25.65921992309101 25.65921992309101 25.65921992309101 25.65921992309101 25.65921992309101 25.65921992309101 25.65921992309101 25.65921992309101 25.65921992309101 25.65921992309101 25.65921992309101 25.65921992309101 25.65921992309101 25.637245925654643 25.65921992309101 25.65921992309101 25.637245925654643 25.65921992309101 25.65921992309101 25.637245925654643 25.65921992309101 25.65921992309101 25.637245925654643 25.65921992309101 25.637245925654643 25.637245925654643 25.637245925654643 25.65921992309101 25.637245925654643 25.65921992309101 25.637245925654643 25.65921992309101 25.65921992309101 25.65921992309101 25.681193920527377 25.681193920527377 25.65921992309101 25.681193920527377 25.681193920527377 25.681193920527377 25.681193920527377 25.703167917963743 25.703167917963743 25.703167917963743 25.72514191540011 25.72514191540011 25.72514191540011 25.747115912836477 25.747115912836477 25.747115912836477 25.747115912836477 25.747115912836477 25.747115912836477 25.747115912836477 25.747115912836477 25.747115912836477 25.769089910272843 25.747115912836477 