29.0 29.0 29.0 29.0 29.0 29.0 29.0 29.0 29.0 29.0 29.0 29.0 29.0 29.0 29.0 29.0 29.0 29.0 29.0 29.0 29.0 29.0 29.0 29.0 29.0 29.0 29.0 29.0 29.0 29.0 29.0 29.0 29.0 29.0 29.0 29.0 29.0 29.0 29.0 29.0 29.0 29.0 29.0 29.0 29.0 29.0 29.0 29.0 29.0 29.0 29.0 29.0 29.0 29.0 29.0 29.0 29.0 29.0 29.0 29.0 29.0 29.0 29.0 29.0 29.0 29.0 29.0 29.0 29.0 29.0 29.0 29.0 29.0 29.0 29.0 29.0 29.0 29.0 29.0 29.0 29.0 29.0 29.0 29.0 29.0 29.0 29.0 29.0 29.0 29.0 29.0 29.0 29.0 29.0 29.0 29.0 29.0 29.0 29.0 29.0 29.0 29.0 29.0 29.0 29.0 29.0 29.0 29.0 29.0 29.0 29.0 29.0 29.0 29.0 29.0 29.0 29.0 29.0 29.0 29.0 29.0 29.0 29.0 29.0 29.0 29.0 29.0 29.0 29.0 29.0 29.0 29.0 29.0 29.0 29.0 29.0 29.0 29.0 29.030763596410914 29.0 29.0 29.0 29.0 29.0 29.0 29.0 29.0 29.0 29.0 29.0 29.0 29.0 29.0 29.0 29.0 29.0 29.0 29.0 29.0 29.0 29.0 29.0 29.0 29.0 29.0 29.0 29.0 29.0 29.0 29.0 29.0 29.0 29.0 29.0 29.0 29.0 29.0 29.0 29.0 29.0 29.0 29.0 29.0 29.0 29.0 29.0 29.0 29.0 29.0 29.0 29.0 29.0 29.0 29.0 29.0 29.0 29.0 29.0 29.0 29.0 29.0 29.0 29.0 29.0 29.0 29.0 29.0 29.0 29.0 29.0 29.0 29.0 29.0 29.0 29.0 29.0 29.0 29.0 29.0 29.0 29.0 29.0 29.0 29.0 29.0 29.0 29.0 29.0 29.0 29.0 29.0 29.0 29.0 29.0 29.0 29.0 29.0 29.0 29.0 29.0 29.0 29.0 29.0 29.0 29.0 29.0 29.0 29.0 29.0 29.0 29.0 29.0 29.0 29.0 29.0 29.0 29.0 29.0 29.0 29.0 29.0 29.0 29.0 29.0 29.0 29.0 29.0 29.0 29.0 29.0 29.0 29.0 29.0 29.0 29.0 29.0 29.0 29.0 29.0 29.0 29.0 29.0 29.0 29.0 29.0 29.0 29.0 29.0 29.0 29.0 29.0 29.0 29.0 29.0 29.0 29.0 29.0 29.0 29.0 29.0 29.0 29.0 29.0 29.0 29.0 29.0 29.0 29.0 29.0 29.0 29.0 29.0 29.0 29.0 29.0 29.0 29.0 29.0 29.0 29.0 29.0 29.0 29.0 29.0 29.0 29.0 29.0 29.0 29.0 29.0 29.0 29.0 29.0 29.0 29.0 29.0 29.0 29.0 29.0 29.0 29.0 29.0 29.0 29.0 29.0 29.0 29.0 29.0 29.0 29.0 29.0 29.0 29.0 29.0 29.0 29.0 29.0 29.0 29.0 29.0 29.0 29.0 29.0 29.0 29.0 29.0 29.0 29.0 29.0 29.0 29.0 29.0 29.0 29.0 29.0 29.0 29.0 29.0 29.0 29.0 29.0 29.0 29.0 29.0 29.0 29.0 29.0 29.0 29.0 29.0 29.0 29.0 29.0 29.0 29.0 29.0 29.0 29.0 29.0 29.0 29.0 29.0 29.0 29.0 29.0 29.0 29.0 29.0 29.0 29.0 29.0 29.0 29.0 29.0 29.0 29.0 29.0 29.0 29.0 29.0 29.0 29.0 29.0 29.0 29.0 29.0 29.0 29.0 29.0 29.0 29.0 29.0 29.0 29.0 29.0 29.0 29.0 29.0 29.0 29.0 29.0 29.0 29.0 29.0 29.0 29.0 29.0 29.0 29.0 29.0 29.0 29.0 29.0 29.0 29.0 29.0 29.0 29.0 29.0 29.0 29.0 29.0 29.0 29.0 29.0 29.0 29.0 29.0 29.0 29.0 29.0 29.0 29.0 29.0 29.0 29.0 29.0 29.0 29.0 29.0 29.0 29.0 29.0 29.0 29.0 29.0 29.0 29.0 29.0 29.0 29.0 29.0 29.0 29.0 29.0 29.0 29.0 29.0 29.0 29.0 29.0 29.0 29.0 29.0 29.0 29.0 29.0 29.0 29.0 29.0 29.0 29.0 29.0 29.0 29.0 29.0 29.0 29.0 29.0 29.0 29.0 29.0 29.0 29.0 29.0 29.0 29.0 29.0 29.0 29.0 29.0 29.0 29.0 29.0 29.0 29.0 29.0 29.0 29.0 29.0 29.0 29.0 29.0 29.0 29.0 29.0 29.0 29.0 29.0 29.0 29.0 29.0 29.0 29.0 29.0 29.030763596410914 29.0 29.0 29.0 29.0 29.0 29.0 29.0 29.0 29.0 29.0 29.0 29.0 29.0 29.0 29.0 29.0 29.0 29.0 29.0 29.0 29.0 29.0 29.0 29.0 29.0 29.0 29.0 29.0 29.0 29.0 29.0 29.030763596410914 29.0 29.061527192821828 29.123054385643655 29.184581578465483 29.276872367698225 29.430690349752794 29.522981138985532 29.646035524629188 29.73832631386193 29.799853506683757 29.861380699505585 29.922907892327412 30.015198681560154 30.107489470792896 30.13825306720381 30.169016663614723 30.199780260025637 30.23054385643655 30.261307452847465 30.261307452847465 30.322834645669293 30.353598242080206 30.445889031312948 30.507416224134772 30.599707013367514 30.691997802600255 30.784288591832997 30.907342977476652 30.999633766709394 31.091924555942136 31.21497894158579 31.27650613440762 31.338033327229446 31.399560520051274 31.461087712873102 31.55337850210584 31.64566929133858 31.79948727339315 31.95330525544772 32.07635964109137 32.260941219556855 32.44552279802234 32.63010437648782 32.78392235854239 32.99926753341879 33.18384911188427 33.42995788317158 33.73759384728072 34.01446621497894 34.35286577549899 34.66050173960813 34.96813770371727 35.30653726423732 35.64493682475737 35.952572788866505 36.29097234938656 36.66013550631752 36.998535066837576 37.33693462735763 37.70609778428859 38.10602453763047 38.50595129097235 38.875114447903314 39.275041201245195 39.70573155099798 40.136421900750776 40.50558505768174 40.90551181102362 41.27467496795458 41.64383812488555 42.013001281816514 42.35140084233657 42.68980040285662 43.058963559787585 43.42812671671855 43.70499908441677 44.074162241347736 44.4433253982787 44.81248855520967 45.181651712140635 45.5508148690716 45.950741622413474 46.31990477934444 46.68906793627541 47.08899468961728 47.42739425013734 47.85808459989013 48.25801135323201 48.719465299395715 49.18091924555942 49.673136788134045 50.07306354147592 50.50375389122871 50.96520783739241 51.457425379967034 51.949642922541656 52.411096868705364 52.9340780076909 53.45705914667643 53.88774949642922 54.379967039003844 54.841420985167545 55.21058414209851 55.57974729902948 56.01043764878227 56.47189159494598 57.02563633034242 57.4255630836843 57.94854422266984 58.37923457242263 58.84068851858633 59.363669657571876 59.732832814502835 60.440395531953854 60.778795092473906 61.17872184581578 61.82475737044497 62.16315693096502 62.65537447353964 63.11682841970335 63.516755173045226 63.94744552279802 64.25508148690716 64.71653543307087 65.14722578282365 65.45486174693279 65.82402490386376 66.19318806079472 66.43929683208202 66.77769639260208 67.02380516388939 67.33144112799853 67.63907709210767 67.82365867057315 68.00824024903864 68.25434902032595 68.3774034059696 68.46969419520234 68.592748580846 68.71580296648965 68.8388573521333 68.96191173777697 69.08496612342061 69.17725691265336 69.300311298297 69.42336568394066 69.4848928767625 69.57718366599524 69.63871085881706 69.66947445522797 69.66947445522797 69.66947445522797 69.70023805163889 69.66947445522797 69.70023805163889 69.66947445522797 69.70023805163889 69.66947445522797 69.66947445522797 69.66947445522797 69.63871085881706 69.63871085881706 69.60794726240616 69.60794726240616 69.60794726240616 69.60794726240616 69.60794726240616 69.57718366599524 69.57718366599524 69.57718366599524 69.57718366599524 69.57718366599524 69.57718366599524 69.57718366599524 69.57718366599524 69.57718366599524 69.57718366599524 69.57718366599524 69.57718366599524 69.57718366599524 69.57718366599524 69.57718366599524 69.57718366599524 69.57718366599524 69.57718366599524 69.57718366599524 69.57718366599524 69.57718366599524 69.57718366599524 69.57718366599524 69.57718366599524 69.57718366599524 69.57718366599524 69.57718366599524 69.57718366599524 69.57718366599524 69.57718366599524 69.57718366599524 69.57718366599524 69.57718366599524 69.57718366599524 69.57718366599524 69.57718366599524 69.57718366599524 69.57718366599524 69.57718366599524 69.57718366599524 69.57718366599524 69.57718366599524 69.57718366599524 69.57718366599524 69.57718366599524 69.57718366599524 69.57718366599524 69.57718366599524 69.57718366599524 69.57718366599524 69.57718366599524 69.57718366599524 69.57718366599524 69.57718366599524 69.57718366599524 69.57718366599524 69.57718366599524 69.57718366599524 69.57718366599524 69.57718366599524 69.57718366599524 69.57718366599524 69.57718366599524 69.57718366599524 69.57718366599524 69.57718366599524 69.57718366599524 69.57718366599524 69.57718366599524 69.57718366599524 69.57718366599524 69.54642006958431 69.54642006958431 69.54642006958431 69.51565647317341 69.51565647317341 69.51565647317341 69.51565647317341 69.51565647317341 69.51565647317341 69.51565647317341 69.51565647317341 69.51565647317341 69.51565647317341 69.51565647317341 69.51565647317341 69.51565647317341 69.4848928767625 69.4848928767625 69.4848928767625 69.4848928767625 69.4848928767625 69.4848928767625 69.4848928767625 69.4848928767625 69.4848928767625 69.4848928767625 69.4848928767625 69.4848928767625 69.4848928767625 69.4848928767625 69.4848928767625 69.45412928035158 69.45412928035158 69.45412928035158 69.45412928035158 69.45412928035158 69.45412928035158 69.45412928035158 69.42336568394066 69.42336568394066 69.42336568394066 69.39260208752975 69.39260208752975 69.42336568394066 69.39260208752975 69.39260208752975 69.39260208752975 69.39260208752975 69.39260208752975 69.39260208752975 69.42336568394066 69.39260208752975 69.42336568394066 69.42336568394066 69.42336568394066 69.42336568394066 69.42336568394066 69.39260208752975 69.42336568394066 69.42336568394066 69.39260208752975 69.42336568394066 69.39260208752975 69.39260208752975 69.36183849111885 69.36183849111885 69.33107489470792 69.33107489470792 69.33107489470792 69.33107489470792 69.33107489470792 69.33107489470792 69.33107489470792 69.33107489470792 69.33107489470792 69.33107489470792 69.33107489470792 69.33107489470792 69.33107489470792 69.33107489470792 69.33107489470792 69.33107489470792 69.33107489470792 69.33107489470792 69.33107489470792 69.33107489470792 69.33107489470792 69.33107489470792 69.33107489470792 69.33107489470792 69.33107489470792 69.300311298297 69.2695477018861 69.2695477018861 69.23878410547519 69.20802050906427 69.17725691265336 69.11572971983153 69.05420252700969 69.02343893059879 68.93114814136604 68.86962094854422 68.8080937557224 68.8080937557224 68.77733015931148 68.77733015931148 68.77733015931148 68.77733015931148 68.77733015931148 68.77733015931148 68.77733015931148 68.77733015931148 68.77733015931148 68.77733015931148 68.77733015931148 68.77733015931148 68.77733015931148 68.8080937557224 68.77733015931148 68.77733015931148 68.77733015931148 68.77733015931148 68.77733015931148 68.77733015931148 68.77733015931148 68.77733015931148 68.77733015931148 68.77733015931148 68.77733015931148 68.77733015931148 68.77733015931148 68.77733015931148 68.77733015931148 68.77733015931148 68.77733015931148 68.77733015931148 68.77733015931148 68.77733015931148 68.77733015931148 68.77733015931148 68.77733015931148 68.77733015931148 68.77733015931148 68.77733015931148 68.77733015931148 68.77733015931148 68.77733015931148 68.77733015931148 68.77733015931148 68.77733015931148 68.77733015931148 68.77733015931148 68.74656656290057 68.71580296648965 68.71580296648965 68.68503937007873 68.65427577366782 68.65427577366782 68.65427577366782 68.65427577366782 68.62351217725691 68.592748580846 68.56198498443507 68.53122138802416 68.53122138802416 68.46969419520234 68.43893059879143 68.40816700238051 68.3774034059696 68.31587621314777 68.31587621314777 68.31587621314777 68.28511261673685 68.22358542391504 68.22358542391504 68.19282182750412 68.1620582310932 68.1620582310932 68.1620582310932 68.1620582310932 68.1620582310932 68.1620582310932 68.1620582310932 68.13129463468229 68.13129463468229 68.13129463468229 68.13129463468229 68.13129463468229 68.10053103827138 68.13129463468229 68.13129463468229 68.13129463468229 68.13129463468229 68.13129463468229 68.13129463468229 68.13129463468229 68.13129463468229 68.13129463468229 68.13129463468229 68.13129463468229 68.13129463468229 68.13129463468229 68.13129463468229 68.13129463468229 68.13129463468229 68.13129463468229 68.13129463468229 68.13129463468229 68.10053103827138 68.10053103827138 68.06976744186046 68.06976744186046 68.06976744186046 68.06976744186046 68.06976744186046 68.06976744186046 68.06976744186046 68.06976744186046 68.06976744186046 68.03900384544954 68.06976744186046 68.06976744186046 68.06976744186046 68.06976744186046 68.06976744186046 68.06976744186046 68.03900384544954 68.00824024903864 68.00824024903864 68.00824024903864 68.00824024903864 68.00824024903864 68.00824024903864 68.00824024903864 68.00824024903864 68.00824024903864 68.00824024903864 68.00824024903864 68.00824024903864 68.00824024903864 68.00824024903864 68.00824024903864 68.00824024903864 68.00824024903864 67.97747665262773 67.94671305621681 67.91594945980589 67.88518586339498 67.88518586339498 67.85442226698407 67.85442226698407 67.82365867057315 67.82365867057315 67.79289507416223 67.79289507416223 67.79289507416223 67.79289507416223 67.79289507416223 67.79289507416223 67.79289507416223 67.79289507416223 67.79289507416223 67.76213147775132 67.76213147775132 67.79289507416223 67.76213147775132 67.79289507416223 67.76213147775132 67.73136788134042 67.63907709210767 67.57754989928584 67.48525911005311 67.42373191723127 67.30067753158761 67.20838674235489 67.08533235671122 66.96227797106756 66.86998718183483 66.71616919978025 66.62387841054752 66.47006042849296 66.31624244643838 66.19318806079472 65.94707928950741 65.82402490386376 65.7009705182201 65.42409815052187 65.36257095770006 65.27028016846731 65.11646218641275 64.99340780076909 64.83958981871451 64.74729902948178 64.53195385460538 64.31660867972897 64.1320271012635 63.978209119208934 63.76286394433254 63.60904596227797 63.424464383812484 63.20911920893609 63.055301226881525 62.80919245559421 62.65537447353964 62.409265702252334 62.13239333455411 61.97857535249954 61.73246658121223 61.45559421351401 61.27101263504852 60.994140267350296 60.655740706830244 60.378868339132026 60.07123237502289 59.82512360373558 59.51748763962644 59.27137886833913 58.90221571140816 58.533052554477194 58.25618018677898 57.88701702984801 57.517853872917044 57.210217908807905 56.77952755905512 56.441127998535066 56.13349203442593 55.73356528108405 55.425929316974916 54.90294817798937 54.5030214246475 54.19538546053836 53.826222303607395 53.610877128731005 53.303241164621866 52.9340780076909 52.503387657938106 52.13422450100714 51.73429774766526 51.39589818714521 51.11902581944699 50.87291704815968 50.50375389122871 50.19611792711957 49.91924555942135 49.61160959531221 49.30397363120308 49.08862845632668 48.6887017029848 48.44259293169749 48.25801135323201 47.91961179271196 47.64273942501373 47.36586705731551 46.904413111151804 46.62754074345358 46.31990477934444 46.104559604468044 45.85845083318073 45.58157846548251 45.36623329060612 44.96630653726424 44.627906976744185 44.381798205456874 44.10492583775865 43.85881706647134 43.52041750595129 43.21278154184215 42.93590917414393 42.566746017212964 42.197582860282 41.951474088994686 41.55154733565281 41.18238417872185 40.936275407434536 40.597875846914484 40.290239882805345 40.01336751510712 39.674967954587075 39.33656839406702 39.028932429957884 38.8443508514924 38.567478483794176 38.35213330891778 38.167551730452296 37.921442959164985 37.70609778428859 37.4907526094122 37.2754074345358 37.12158945248123 36.87548068119392 36.62937190990661 36.444790331441126 36.198681560153815 36.044863578099246 35.76799121040103 35.52188243911371 35.337300860648234 35.029664896539096 34.84508331807361 34.75279252884087 34.537447353964474 34.44515656473173 34.35286577549899 34.29133858267716 34.16828419703351 34.04522981138985 33.983702618568024 33.922175425746204 33.860648232924376 33.79912104010255 33.7068302508698 33.614539461637065 33.58377586522615 33.49148507599341 33.42995788317158 33.368430690349754 33.27613990111701 33.2453763047061 33.15308551547336 33.09155832265153 33.0300311298297 32.968503937007874 32.906976744186046 32.87621314777513 32.78392235854239 32.69163156930965 32.63010437648782 32.568577183665994 32.507049990844166 32.38399560520051 32.32246841237868 32.260941219556855 32.168650430324114 32.107123237502286 32.04559604468046 32.014832448269544 31.984068851858634 31.891778062625892 31.86101446621498 31.830250869804065 31.768723676982237 31.70719648416041 31.64566929133858 31.55337850210584 31.522614905694926 31.491851309284012 31.461087712873102 31.430324116462188 31.399560520051274 31.338033327229446 31.245742537996705 31.21497894158579 31.184215345174877 31.12268815235305 31.06116095953122 30.96887017029848 30.87657938106574 30.81505218824391 30.691997802600255 30.599707013367514 30.507416224134772 30.353598242080206 30.261307452847465 30.199780260025637 30.107489470792896 30.045962277971068 29.953671488738326 29.953671488738326 29.953671488738326 29.953671488738326 29.953671488738326 29.953671488738326 29.922907892327412 29.922907892327412 29.8921442959165 29.861380699505585 29.861380699505585 29.83061710309467 29.83061710309467 29.83061710309467 29.799853506683757 29.799853506683757 29.769089910272843 29.769089910272843 29.769089910272843 29.73832631386193 29.707562717451015 29.707562717451015 29.6767991210401 29.6767991210401 29.646035524629188 29.646035524629188 29.646035524629188 29.646035524629188 29.646035524629188 29.646035524629188 29.615271928218274 29.646035524629188 29.615271928218274 29.58450833180736 29.58450833180736 29.58450833180736 29.58450833180736 29.553744735396446 29.522981138985532 29.522981138985532 29.49221754257462 29.461453946163708 29.461453946163708 29.430690349752794 29.430690349752794 29.430690349752794 29.39992675334188 29.39992675334188 29.39992675334188 29.39992675334188 29.39992675334188 29.39992675334188 29.39992675334188 29.369163156930966 29.369163156930966 29.369163156930966 29.369163156930966 29.369163156930966 29.369163156930966 29.369163156930966 29.338399560520052 29.338399560520052 29.338399560520052 29.338399560520052 29.338399560520052 29.338399560520052 29.338399560520052 29.338399560520052 29.30763596410914 29.30763596410914 29.276872367698225 29.276872367698225 29.276872367698225 29.24610877128731 29.24610877128731 29.24610877128731 29.215345174876397 29.215345174876397 29.215345174876397 29.215345174876397 29.215345174876397 29.215345174876397 29.215345174876397 29.184581578465483 29.184581578465483 29.215345174876397 29.215345174876397 29.184581578465483 29.215345174876397 29.215345174876397 29.215345174876397 29.215345174876397 29.215345174876397 29.215345174876397 29.184581578465483 29.215345174876397 29.215345174876397 29.215345174876397 29.184581578465483 29.215345174876397 29.215345174876397 29.215345174876397 29.184581578465483 29.215345174876397 29.184581578465483 29.215345174876397 29.184581578465483 29.184581578465483 29.215345174876397 29.184581578465483 29.184581578465483 29.184581578465483 29.215345174876397 29.215345174876397 29.215345174876397 29.184581578465483 29.184581578465483 29.184581578465483 29.184581578465483 29.215345174876397 29.215345174876397 29.184581578465483 29.184581578465483 29.215345174876397 29.184581578465483 29.184581578465483 29.215345174876397 29.215345174876397 29.184581578465483 29.184581578465483 29.184581578465483 29.184581578465483 29.215345174876397 29.184581578465483 29.184581578465483 29.184581578465483 29.184581578465483 29.184581578465483 29.184581578465483 29.184581578465483 29.184581578465483 29.184581578465483 29.184581578465483 29.184581578465483 29.184581578465483 29.184581578465483 29.184581578465483 29.184581578465483 29.184581578465483 29.184581578465483 29.15381798205457 29.15381798205457 29.15381798205457 29.15381798205457 29.15381798205457 29.15381798205457 29.15381798205457 29.15381798205457 29.15381798205457 29.15381798205457 29.15381798205457 29.15381798205457 29.15381798205457 29.123054385643655 29.123054385643655 29.123054385643655 29.123054385643655 29.123054385643655 29.123054385643655 29.123054385643655 29.123054385643655 29.123054385643655 29.123054385643655 29.123054385643655 29.123054385643655 29.123054385643655 29.123054385643655 29.123054385643655 29.123054385643655 29.123054385643655 29.123054385643655 29.123054385643655 29.123054385643655 29.123054385643655 29.123054385643655 29.123054385643655 29.123054385643655 29.123054385643655 29.123054385643655 29.123054385643655 29.123054385643655 29.123054385643655 29.123054385643655 29.123054385643655 29.123054385643655 29.123054385643655 29.123054385643655 29.123054385643655 29.123054385643655 29.123054385643655 29.123054385643655 29.123054385643655 29.123054385643655 29.123054385643655 29.123054385643655 29.123054385643655 29.123054385643655 29.123054385643655 29.123054385643655 29.123054385643655 29.123054385643655 29.123054385643655 29.123054385643655 29.123054385643655 29.123054385643655 29.123054385643655 29.123054385643655 29.123054385643655 29.123054385643655 29.123054385643655 29.123054385643655 29.123054385643655 29.123054385643655 29.123054385643655 29.123054385643655 29.123054385643655 29.123054385643655 29.123054385643655 29.123054385643655 29.123054385643655 29.123054385643655 29.123054385643655 29.123054385643655 29.123054385643655 29.123054385643655 29.123054385643655 29.123054385643655 29.123054385643655 29.123054385643655 29.123054385643655 29.123054385643655 29.123054385643655 29.123054385643655 29.123054385643655 29.123054385643655 29.123054385643655 29.123054385643655 29.123054385643655 29.123054385643655 29.123054385643655 29.123054385643655 29.123054385643655 29.123054385643655 29.123054385643655 29.123054385643655 29.123054385643655 29.123054385643655 29.123054385643655 29.123054385643655 29.123054385643655 29.123054385643655 29.123054385643655 29.123054385643655 29.123054385643655 29.123054385643655 29.123054385643655 29.123054385643655 29.123054385643655 29.123054385643655 29.123054385643655 29.123054385643655 29.123054385643655 29.123054385643655 29.123054385643655 29.123054385643655 29.123054385643655 29.123054385643655 29.123054385643655 29.123054385643655 29.123054385643655 29.123054385643655 29.123054385643655 29.123054385643655 29.123054385643655 29.123054385643655 29.123054385643655 29.123054385643655 29.123054385643655 29.123054385643655 29.123054385643655 29.123054385643655 29.123054385643655 29.123054385643655 29.123054385643655 29.123054385643655 29.123054385643655 29.123054385643655 29.09229078923274 29.123054385643655 29.123054385643655 29.123054385643655 29.123054385643655 29.123054385643655 29.123054385643655 29.123054385643655 29.123054385643655 29.123054385643655 29.123054385643655 29.123054385643655 29.123054385643655 29.123054385643655 29.09229078923274 29.123054385643655 29.123054385643655 29.123054385643655 29.123054385643655 29.123054385643655 29.123054385643655 29.123054385643655 29.123054385643655 29.123054385643655 29.123054385643655 29.123054385643655 29.123054385643655 29.123054385643655 29.123054385643655 29.123054385643655 29.123054385643655 29.123054385643655 29.123054385643655 29.123054385643655 29.123054385643655 29.123054385643655 29.123054385643655 29.123054385643655 29.123054385643655 29.123054385643655 29.123054385643655 29.123054385643655 29.123054385643655 29.123054385643655 29.123054385643655 29.123054385643655 29.123054385643655 29.123054385643655 29.123054385643655 29.09229078923274 29.123054385643655 29.123054385643655 29.123054385643655 29.123054385643655 29.123054385643655 29.123054385643655 29.123054385643655 29.123054385643655 29.123054385643655 29.123054385643655 29.123054385643655 29.123054385643655 29.123054385643655 29.123054385643655 29.123054385643655 29.123054385643655 29.123054385643655 29.09229078923274 29.123054385643655 29.123054385643655 29.123054385643655 29.123054385643655 29.123054385643655 29.123054385643655 29.123054385643655 29.123054385643655 29.09229078923274 29.123054385643655 29.123054385643655 29.123054385643655 29.123054385643655 29.123054385643655 29.123054385643655 29.123054385643655 29.123054385643655 29.123054385643655 29.123054385643655 29.123054385643655 29.123054385643655 29.123054385643655 29.123054385643655 29.123054385643655 29.123054385643655 29.123054385643655 29.123054385643655 29.123054385643655 29.123054385643655 29.123054385643655 29.123054385643655 29.123054385643655 29.123054385643655 29.123054385643655 29.123054385643655 29.123054385643655 29.123054385643655 29.123054385643655 29.123054385643655 29.123054385643655 29.123054385643655 29.123054385643655 29.123054385643655 29.123054385643655 29.123054385643655 29.123054385643655 29.123054385643655 29.123054385643655 29.123054385643655 29.123054385643655 29.123054385643655 29.123054385643655 29.123054385643655 29.123054385643655 29.123054385643655 29.123054385643655 29.123054385643655 29.123054385643655 29.123054385643655 29.123054385643655 29.123054385643655 29.123054385643655 29.123054385643655 29.123054385643655 29.123054385643655 29.123054385643655 29.123054385643655 29.09229078923274 29.123054385643655 29.123054385643655 29.123054385643655 29.09229078923274 29.123054385643655 29.123054385643655 29.123054385643655 29.123054385643655 29.123054385643655 29.123054385643655 29.123054385643655 29.123054385643655 29.123054385643655 29.123054385643655 29.123054385643655 29.123054385643655 29.123054385643655 29.123054385643655 29.123054385643655 29.123054385643655 29.123054385643655 29.123054385643655 29.123054385643655 29.123054385643655 29.123054385643655 29.123054385643655 29.123054385643655 29.123054385643655 29.123054385643655 29.123054385643655 29.123054385643655 29.123054385643655 29.123054385643655 29.123054385643655 29.123054385643655 29.123054385643655 29.123054385643655 29.123054385643655 29.123054385643655 29.09229078923274 29.09229078923274 29.123054385643655 29.123054385643655 29.123054385643655 29.123054385643655 29.123054385643655 29.123054385643655 29.123054385643655 29.123054385643655 29.123054385643655 29.123054385643655 29.123054385643655 29.123054385643655 29.123054385643655 29.123054385643655 29.123054385643655 29.123054385643655 29.123054385643655 29.123054385643655 29.123054385643655 29.123054385643655 29.123054385643655 29.123054385643655 29.123054385643655 29.123054385643655 29.123054385643655 29.123054385643655 29.123054385643655 29.123054385643655 29.123054385643655 29.123054385643655 29.123054385643655 29.123054385643655 29.123054385643655 29.123054385643655 29.123054385643655 29.123054385643655 29.123054385643655 29.123054385643655 29.123054385643655 29.09229078923274 29.123054385643655 29.123054385643655 29.123054385643655 29.09229078923274 29.123054385643655 29.123054385643655 29.123054385643655 29.123054385643655 29.123054385643655 29.123054385643655 29.123054385643655 29.123054385643655 29.123054385643655 29.123054385643655 29.123054385643655 29.123054385643655 29.123054385643655 29.123054385643655 29.123054385643655 29.123054385643655 29.123054385643655 29.123054385643655 29.123054385643655 29.123054385643655 29.123054385643655 29.123054385643655 29.123054385643655 29.123054385643655 29.123054385643655 29.123054385643655 29.123054385643655 29.123054385643655 29.123054385643655 29.123054385643655 29.123054385643655 29.123054385643655 29.123054385643655 29.123054385643655 29.123054385643655 29.123054385643655 29.123054385643655 29.123054385643655 29.09229078923274 29.123054385643655 29.123054385643655 29.123054385643655 29.123054385643655 29.123054385643655 29.123054385643655 29.123054385643655 29.123054385643655 29.123054385643655 29.09229078923274 29.123054385643655 29.09229078923274 29.09229078923274 29.123054385643655 29.123054385643655 29.123054385643655 29.123054385643655 29.123054385643655 29.123054385643655 29.123054385643655 29.123054385643655 29.123054385643655 29.123054385643655 29.123054385643655 29.123054385643655 29.09229078923274 29.123054385643655 29.123054385643655 29.123054385643655 29.09229078923274 29.123054385643655 29.123054385643655 29.123054385643655 29.123054385643655 29.09229078923274 29.123054385643655 29.123054385643655 29.09229078923274 29.123054385643655 29.09229078923274 29.123054385643655 29.123054385643655 29.123054385643655 29.123054385643655 29.123054385643655 29.123054385643655 29.123054385643655 29.123054385643655 29.123054385643655 29.123054385643655 29.123054385643655 29.123054385643655 29.09229078923274 29.123054385643655 29.123054385643655 29.123054385643655 29.123054385643655 29.123054385643655 29.123054385643655 29.123054385643655 29.123054385643655 29.123054385643655 29.123054385643655 29.123054385643655 29.123054385643655 29.123054385643655 29.123054385643655 29.123054385643655 29.123054385643655 29.123054385643655 29.123054385643655 29.123054385643655 29.123054385643655 29.123054385643655 29.123054385643655 29.123054385643655 29.123054385643655 29.123054385643655 29.123054385643655 29.123054385643655 29.123054385643655 29.123054385643655 29.123054385643655 29.123054385643655 29.123054385643655 29.09229078923274 29.09229078923274 29.123054385643655 29.09229078923274 29.123054385643655 29.123054385643655 29.123054385643655 29.09229078923274 29.123054385643655 29.123054385643655 29.09229078923274 29.123054385643655 29.123054385643655 29.123054385643655 29.123054385643655 29.123054385643655 29.123054385643655 29.123054385643655 29.123054385643655 29.123054385643655 29.123054385643655 29.123054385643655 29.123054385643655 29.09229078923274 29.123054385643655 29.123054385643655 29.09229078923274 29.123054385643655 29.09229078923274 29.09229078923274 29.09229078923274 29.123054385643655 29.09229078923274 29.123054385643655 29.09229078923274 29.09229078923274 29.09229078923274 29.09229078923274 29.09229078923274 29.09229078923274 29.09229078923274 29.09229078923274 29.09229078923274 29.09229078923274 29.09229078923274 29.09229078923274 29.09229078923274 29.09229078923274 29.09229078923274 29.09229078923274 29.09229078923274 29.09229078923274 29.09229078923274 29.09229078923274 29.09229078923274 29.09229078923274 29.09229078923274 29.09229078923274 29.09229078923274 29.09229078923274 29.09229078923274 29.09229078923274 29.09229078923274 29.09229078923274 29.09229078923274 29.09229078923274 29.09229078923274 29.09229078923274 29.09229078923274 29.09229078923274 29.09229078923274 29.09229078923274 29.09229078923274 29.09229078923274 29.09229078923274 29.09229078923274 29.09229078923274 29.09229078923274 29.09229078923274 29.09229078923274 29.09229078923274 29.09229078923274 29.09229078923274 29.09229078923274 29.09229078923274 29.09229078923274 29.09229078923274 29.09229078923274 29.09229078923274 29.09229078923274 29.09229078923274 29.09229078923274 29.09229078923274 29.09229078923274 29.09229078923274 29.09229078923274 29.09229078923274 29.09229078923274 29.09229078923274 29.09229078923274 29.09229078923274 29.09229078923274 29.09229078923274 29.09229078923274 29.09229078923274 29.09229078923274 29.09229078923274 29.09229078923274 29.09229078923274 29.09229078923274 29.09229078923274 29.09229078923274 29.09229078923274 29.09229078923274 29.09229078923274 29.09229078923274 29.09229078923274 29.09229078923274 29.09229078923274 29.09229078923274 29.09229078923274 29.09229078923274 29.09229078923274 29.09229078923274 29.09229078923274 29.09229078923274 29.09229078923274 29.09229078923274 29.09229078923274 29.09229078923274 29.09229078923274 29.09229078923274 29.09229078923274 29.09229078923274 29.09229078923274 29.09229078923274 29.09229078923274 29.09229078923274 29.09229078923274 29.09229078923274 29.09229078923274 29.09229078923274 29.09229078923274 29.09229078923274 29.09229078923274 29.09229078923274 29.09229078923274 29.09229078923274 29.09229078923274 29.09229078923274 29.09229078923274 29.09229078923274 29.09229078923274 29.09229078923274 29.09229078923274 29.09229078923274 29.09229078923274 29.09229078923274 29.09229078923274 29.09229078923274 29.09229078923274 29.09229078923274 29.09229078923274 29.123054385643655 29.15381798205457 29.184581578465483 29.215345174876397 29.276872367698225 29.30763596410914 29.338399560520052 29.39992675334188 29.39992675334188 29.430690349752794 29.461453946163708 29.461453946163708 29.49221754257462 29.49221754257462 29.522981138985532 29.553744735396446 29.553744735396446 29.58450833180736 29.615271928218274 29.646035524629188 29.6767991210401 29.707562717451015 29.73832631386193 29.799853506683757 29.8921442959165 29.953671488738326 30.015198681560154 30.07672587438198 30.107489470792896 30.169016663614723 30.199780260025637 30.261307452847465 30.322834645669293 30.415125434902034 30.507416224134772 30.599707013367514 30.691997802600255 30.72276139901117 30.784288591832997 30.81505218824391 30.81505218824391 30.87657938106574 30.96887017029848 31.030397363120308 31.184215345174877 31.27650613440762 31.338033327229446 31.522614905694926 31.584142098516754 31.737960080571323 31.86101446621498 31.922541659036806 32.1378868339132 32.29170481596777 32.47628639443325 32.72239516572056 32.906976744186046 33.18384911188427 33.522248672404324 33.89141182933528 34.075993407800766 34.35286577549899 34.75279252884087 35.12195568577184 35.46035524629189 35.86028199963376 36.198681560153815 36.444790331441126 36.752426295550265 36.96777147042666 37.18311664530306 37.459989013001284 37.73686138069951 38.04449734480864 38.321369712506865 38.567478483794176 38.8443508514924 39.18275041201245 39.39809558688884 39.7364951474089 39.982603918696206 40.32100347921626 40.65940303973631 40.936275407434536 41.3054385643655 41.5207837392419 41.7668925105292 42.04376487822743 42.35140084233657 42.75132759567845 43.058963559787585 43.305072331074896 43.64347189159494 43.85881706647134 44.19721662699139 44.50485259110053 44.781724958798755 45.089360922907886 45.3354696941952 45.643105658304336 45.98150521882439 46.25837758652261 46.81212232191906 47.1197582860282 47.39663065372642 47.82732100347921 48.104193371177445 48.50412012451932 49.027101263504846 49.27321003479216 49.673136788134045 49.91924555942135 50.19611792711957 50.56528108405054 50.842153451748764 51.33437099432338 51.64200695843252 51.88811572971983 52.22651529023988 52.56491485075993 52.811023622047244 53.18018677897821 53.3955319538546 53.73393151437466 54.072331074894706 54.31843984618202 54.68760300311298 55.087529756454856 55.36440212415309 55.79509247390588 56.10272843801501 56.53341878776781 56.994872733931516 57.33327229445156 57.94854422266984 58.25618018677898 58.563816150888115 58.96374290422999 59.39443325398278 59.732832814502835 60.25581395348837 60.56344991759751 60.994140267350296 61.42483061710309 61.701702984801315 62.101629738143195 62.347738509430506 62.68613806995056 63.024537630470604 63.20911920893609 63.48599157663431 63.79362754074345 64.00897271561985 64.28584508331807 64.50119025819447 64.77806262589269 65.11646218641275 65.20875297564548 65.54715253616553 65.67020692180918 65.79326130745284 66.00860648232924 66.10089727156199 66.19318806079472 66.25471525361655 66.31624244643838 66.3470060428493 66.37776963926021 66.37776963926021 66.40853323567111 66.47006042849296 66.53158762131477 66.53158762131477 66.56235121772569 66.5931148141366 66.5931148141366 66.62387841054752 66.65464200695843 66.65464200695843 66.68540560336935 66.71616919978025 66.74693279619117 66.74693279619117 66.74693279619117 66.74693279619117 66.77769639260208 66.77769639260208 66.77769639260208 66.77769639260208 66.77769639260208 66.77769639260208 66.77769639260208 66.80845998901299 66.83922358542392 66.90075077824574 66.96227797106756 67.05456876030031 67.08533235671122 67.14685954953305 67.17762314594395 67.2391503387658 67.2699139351767 67.30067753158761 67.33144112799853 67.39296832082036 67.39296832082036 67.39296832082036 67.39296832082036 67.39296832082036 67.36220472440945 67.36220472440945 67.36220472440945 67.36220472440945 67.36220472440945 67.36220472440945 67.36220472440945 67.33144112799853 67.33144112799853 67.33144112799853 67.33144112799853 67.33144112799853 67.33144112799853 67.33144112799853 67.33144112799853 67.33144112799853 67.33144112799853 67.33144112799853 67.36220472440945 67.33144112799853 67.33144112799853 67.33144112799853 67.33144112799853 67.33144112799853 67.33144112799853 67.33144112799853 67.36220472440945 67.36220472440945 67.33144112799853 67.33144112799853 67.33144112799853 67.33144112799853 67.33144112799853 67.33144112799853 67.33144112799853 67.33144112799853 67.33144112799853 67.33144112799853 67.33144112799853 67.33144112799853 67.33144112799853 67.33144112799853 67.33144112799853 67.33144112799853 67.33144112799853 67.33144112799853 67.33144112799853 67.33144112799853 67.33144112799853 67.33144112799853 67.33144112799853 67.33144112799853 67.33144112799853 67.33144112799853 67.33144112799853 67.33144112799853 67.33144112799853 67.33144112799853 67.33144112799853 67.33144112799853 67.33144112799853 67.33144112799853 67.30067753158761 67.30067753158761 67.30067753158761 67.2699139351767 67.2699139351767 67.2699139351767 67.2699139351767 67.2699139351767 67.2699139351767 67.2391503387658 67.2391503387658 67.20838674235489 67.20838674235489 67.20838674235489 67.17762314594395 67.17762314594395 67.17762314594395 67.17762314594395 67.17762314594395 67.17762314594395 67.17762314594395 67.17762314594395 67.17762314594395 67.17762314594395 67.17762314594395 67.17762314594395 67.17762314594395 67.17762314594395 67.17762314594395 67.17762314594395 67.17762314594395 67.14685954953305 67.14685954953305 67.14685954953305 67.17762314594395 67.17762314594395 67.14685954953305 67.14685954953305 67.14685954953305 67.14685954953305 67.14685954953305 67.14685954953305 67.14685954953305 67.14685954953305 67.14685954953305 67.14685954953305 67.14685954953305 67.14685954953305 67.14685954953305 67.11609595312214 67.11609595312214 67.08533235671122 67.02380516388939 66.99304156747849 66.96227797106756 66.93151437465664 66.90075077824574 66.83922358542392 66.77769639260208 66.74693279619117 66.74693279619117 66.71616919978025 66.71616919978025 66.71616919978025 66.71616919978025 66.68540560336935 66.71616919978025 66.71616919978025 66.71616919978025 66.71616919978025 66.71616919978025 66.71616919978025 66.71616919978025 66.71616919978025 66.71616919978025 66.71616919978025 66.68540560336935 66.71616919978025 66.68540560336935 66.68540560336935 66.68540560336935 66.68540560336935 66.68540560336935 66.68540560336935 66.68540560336935 66.68540560336935 66.68540560336935 66.68540560336935 66.68540560336935 66.68540560336935 66.68540560336935 66.68540560336935 66.65464200695843 66.62387841054752 66.5931148141366 66.5931148141366 66.56235121772569 66.56235121772569 66.56235121772569 66.56235121772569 66.56235121772569 66.53158762131477 66.56235121772569 66.53158762131477 66.56235121772569 66.53158762131477 66.53158762131477 66.53158762131477 66.53158762131477 66.53158762131477 66.53158762131477 66.53158762131477 66.53158762131477 66.53158762131477 66.53158762131477 66.53158762131477 66.53158762131477 66.53158762131477 66.53158762131477 66.50082402490386 66.50082402490386 66.47006042849296 66.47006042849296 66.47006042849296 66.40853323567111 66.37776963926021 66.3470060428493 66.31624244643838 66.28547885002746 66.25471525361655 66.28547885002746 66.25471525361655 66.25471525361655 66.25471525361655 66.25471525361655 66.25471525361655 66.25471525361655 66.25471525361655 66.25471525361655 66.22395165720565 66.25471525361655 66.25471525361655 66.25471525361655 66.25471525361655 66.25471525361655 66.25471525361655 66.25471525361655 66.22395165720565 66.22395165720565 66.19318806079472 66.1624244643838 66.1624244643838 66.1624244643838 66.1624244643838 66.1316608679729 66.10089727156199 66.10089727156199 66.10089727156199 66.07013367515107 66.07013367515107 66.07013367515107 66.03937007874015 66.03937007874015 66.00860648232924 66.00860648232924 66.00860648232924 66.00860648232924 66.00860648232924 66.00860648232924 66.00860648232924 66.00860648232924 66.00860648232924 66.00860648232924 66.00860648232924 66.00860648232924 66.00860648232924 66.00860648232924 65.97784288591834 65.97784288591834 65.97784288591834 65.97784288591834 65.97784288591834 65.97784288591834 65.94707928950741 65.94707928950741 65.94707928950741 65.94707928950741 65.94707928950741 65.94707928950741 65.94707928950741 65.94707928950741 65.94707928950741 65.94707928950741 65.94707928950741 65.94707928950741 65.94707928950741 65.94707928950741 65.94707928950741 65.94707928950741 65.94707928950741 65.94707928950741 65.9163156930965 65.9163156930965 65.88555209668559 65.88555209668559 65.85478850027468 65.82402490386376 65.79326130745284 65.76249771104193 65.73173411463102 65.73173411463102 65.7009705182201 65.67020692180918 65.67020692180918 65.67020692180918 65.63944332539828 65.63944332539828 65.63944332539828 65.63944332539828 65.63944332539828 65.63944332539828 65.60867972898737 65.63944332539828 65.63944332539828 65.63944332539828 65.60867972898737 65.60867972898737 65.60867972898737 65.60867972898737 65.60867972898737 65.60867972898737 65.63944332539828 65.63944332539828 65.60867972898737 65.60867972898737 65.60867972898737 65.60867972898737 65.60867972898737 65.60867972898737 65.60867972898737 65.57791613257645 65.57791613257645 65.57791613257645 65.57791613257645 65.54715253616553 65.54715253616553 65.51638893975462 65.51638893975462 65.48562534334371 65.48562534334371 65.45486174693279 65.42409815052187 65.42409815052187 65.42409815052187 65.42409815052187 65.42409815052187 65.39333455411096 65.36257095770006 65.30104376487822 65.2395165720564 65.17798937923456 65.0549349935909 64.99340780076909 64.87035341512544 64.74729902948178 64.65500824024903 64.53195385460538 64.40889946896172 64.28584508331807 64.1320271012635 63.94744552279802 63.824391137154365 63.63980955868888 63.4552279802234 63.20911920893609 63.08606482329243 62.901483244826956 62.53232008789599 62.37850210584142 62.16315693096502 61.82475737044497 61.64017579197949 61.33253982787035 61.02490386376122 60.74803149606299 60.50192272477568 60.28657754989928 59.94817798937923 59.579014832448266 59.332906061160955 58.93297930781908 58.533052554477194 58.13312580113532 57.8562534334371 57.57938106573887 57.14869071598608 56.68723676982238 56.348837209302324 55.85661966672771 55.45669291338582 55.179820545687605 54.77989379234572 54.5030214246475 54.10309467130563 53.70316791796374 53.42629555026552 53.026368796923634 52.59567844717085 52.31880607947262 51.91887932613075 51.64200695843252 51.27284380150155 50.903680644570585 50.62680827687237 50.288408716352315 50.042299945065004 49.55008240249039 49.21168284197033 48.93481047427211 48.719465299395715 48.411829335286576 48.104193371177445 47.7965574070683 47.45815784654825 47.05823109320637 46.71983153268632 46.47372276139901 46.16608679728987 45.88921442959165 45.70463285112616 45.427760483427946 45.27394250137337 45.02783373008606 44.81248855520967 44.6586705731551 44.32027101263505 44.10492583775865 43.92034425929317 43.581944698773114 43.366599523896724 43.058963559787585 42.659036806445705 42.44369163156931 42.105292071049256 41.85918329976195 41.61307452847464 41.243911371543675 40.90551181102362 40.56711225050357 40.25947628639443 40.044131111518034 39.7364951474089 39.428859183299764 39.24427760483428 38.99816883354697 38.81358725508149 38.53671488738326 38.321369712506865 38.167551730452296 37.921442959164985 37.70609778428859 37.552279802234025 37.36769822376854 37.21388024171397 36.998535066837576 36.78318989196118 36.53708112067387 36.32173594579747 36.1679179637429 36.01409998168833 35.706464017579194 35.491118842702804 35.337300860648234 35.183482878593665 35.06042849295001 34.90661051089544 34.8143197216627 34.69126533601904 34.5989745467863 34.50668375755356 34.41439296832082 34.32210217908808 34.229811389855335 34.137520600622594 34.01446621497894 33.922175425746204 33.79912104010255 33.73759384728072 33.614539461637065 33.522248672404324 33.49148507599341 33.33766709393884 33.30690349752793 33.27613990111701 33.18384911188427 33.09155832265153 33.0300311298297 32.93774034059696 32.87621314777513 32.75315876213148 32.69163156930965 32.63010437648782 32.53781358725508 32.47628639443325 32.38399560520051 32.29170481596777 32.23017762314594 32.168650430324114 32.107123237502286 32.04559604468046 31.984068851858634 31.922541659036806 31.79948727339315 31.70719648416041 31.64566929133858 31.614905694927668 31.614905694927668 31.584142098516754 31.522614905694926 31.461087712873102 31.430324116462188 31.338033327229446 31.307269730818533 31.245742537996705 31.184215345174877 31.12268815235305 31.06116095953122 30.96887017029848 30.907342977476652 30.81505218824391 30.753524995422083 30.630470609778428 30.5689434169566 30.47665262772386 30.415125434902034 30.353598242080206 30.199780260025637 30.13825306720381 30.015198681560154 29.922907892327412 29.83061710309467 29.73832631386193 29.707562717451015 29.6767991210401 29.6767991210401 29.6767991210401 29.646035524629188 29.615271928218274 29.58450833180736 29.49221754257462 29.461453946163708 29.461453946163708 29.461453946163708 29.430690349752794 29.430690349752794 29.39992675334188 29.369163156930966 29.369163156930966 29.369163156930966 29.369163156930966 29.338399560520052 29.338399560520052 29.30763596410914 29.276872367698225 29.276872367698225 29.24610877128731 29.215345174876397 29.215345174876397 29.184581578465483 29.184581578465483 29.184581578465483 29.15381798205457 29.15381798205457 29.123054385643655 29.09229078923274 29.09229078923274 29.09229078923274 29.09229078923274 29.09229078923274 29.061527192821828 29.061527192821828 29.061527192821828 29.061527192821828 29.030763596410914 29.030763596410914 29.030763596410914 29.030763596410914 29.0 29.0 29.0 29.0 29.0 28.969236403589086 28.969236403589086 28.969236403589086 28.938472807178172 28.938472807178172 28.90770921076726 28.876945614356345 28.876945614356345 28.84618201794543 28.84618201794543 28.84618201794543 28.815418421534517 28.815418421534517 28.815418421534517 28.815418421534517 28.784654825123603 28.784654825123603 28.784654825123603 28.75389122871269 28.784654825123603 28.784654825123603 28.75389122871269 28.784654825123603 28.784654825123603 28.784654825123603 28.784654825123603 28.75389122871269 28.75389122871269 28.75389122871269 28.75389122871269 28.75389122871269 28.75389122871269 28.75389122871269 28.723127632301775 28.723127632301775 28.723127632301775 28.723127632301775 28.723127632301775 28.723127632301775 28.723127632301775 28.723127632301775 28.723127632301775 28.723127632301775 28.723127632301775 28.723127632301775 28.723127632301775 28.723127632301775 28.723127632301775 28.723127632301775 28.723127632301775 28.723127632301775 28.723127632301775 28.723127632301775 28.723127632301775 28.723127632301775 28.723127632301775 28.723127632301775 28.723127632301775 28.69236403589086 28.723127632301775 28.723127632301775 28.723127632301775 28.723127632301775 28.723127632301775 28.69236403589086 28.723127632301775 28.69236403589086 28.723127632301775 28.723127632301775 28.723127632301775 28.69236403589086 28.723127632301775 28.723127632301775 28.69236403589086 28.723127632301775 28.723127632301775 28.723127632301775 28.69236403589086 28.69236403589086 28.661600439479948 28.661600439479948 28.661600439479948 28.661600439479948 28.661600439479948 28.661600439479948 28.661600439479948 28.661600439479948 28.630836843069034 28.661600439479948 28.630836843069034 28.630836843069034 28.630836843069034 28.630836843069034 28.630836843069034 28.630836843069034 28.630836843069034 28.630836843069034 28.630836843069034 28.630836843069034 28.630836843069034 28.630836843069034 28.661600439479948 28.630836843069034 28.630836843069034 28.630836843069034 28.630836843069034 28.630836843069034 28.630836843069034 28.630836843069034 28.630836843069034 28.630836843069034 28.630836843069034 28.630836843069034 28.630836843069034 28.630836843069034 28.630836843069034 28.630836843069034 28.630836843069034 28.630836843069034 28.630836843069034 28.630836843069034 28.630836843069034 28.630836843069034 28.630836843069034 28.630836843069034 28.630836843069034 28.630836843069034 28.630836843069034 28.630836843069034 28.630836843069034 28.630836843069034 28.630836843069034 28.630836843069034 28.630836843069034 28.630836843069034 28.630836843069034 28.630836843069034 28.630836843069034 28.630836843069034 28.630836843069034 28.630836843069034 28.630836843069034 28.630836843069034 28.630836843069034 28.630836843069034 28.630836843069034 28.630836843069034 28.630836843069034 28.630836843069034 28.630836843069034 28.630836843069034 28.630836843069034 28.630836843069034 28.630836843069034 28.630836843069034 28.630836843069034 28.630836843069034 28.630836843069034 28.630836843069034 28.630836843069034 28.630836843069034 28.630836843069034 28.630836843069034 28.630836843069034 28.630836843069034 28.630836843069034 28.630836843069034 28.630836843069034 28.630836843069034 28.630836843069034 28.630836843069034 28.630836843069034 28.630836843069034 28.630836843069034 28.630836843069034 28.630836843069034 28.630836843069034 28.630836843069034 28.630836843069034 28.630836843069034 28.630836843069034 28.630836843069034 28.630836843069034 28.630836843069034 28.630836843069034 28.630836843069034 28.630836843069034 28.630836843069034 28.630836843069034 28.630836843069034 28.630836843069034 28.630836843069034 28.630836843069034 28.630836843069034 28.630836843069034 28.630836843069034 28.630836843069034 28.630836843069034 28.630836843069034 28.630836843069034 28.630836843069034 28.630836843069034 28.630836843069034 28.630836843069034 28.630836843069034 28.630836843069034 28.630836843069034 28.630836843069034 28.630836843069034 28.630836843069034 28.630836843069034 28.630836843069034 28.630836843069034 28.630836843069034 28.630836843069034 28.630836843069034 28.630836843069034 28.630836843069034 28.630836843069034 28.630836843069034 28.630836843069034 28.630836843069034 28.630836843069034 28.630836843069034 28.630836843069034 28.630836843069034 28.630836843069034 28.630836843069034 28.630836843069034 28.630836843069034 28.630836843069034 28.630836843069034 28.630836843069034 28.630836843069034 28.630836843069034 28.630836843069034 28.630836843069034 28.630836843069034 28.630836843069034 28.630836843069034 28.630836843069034 28.630836843069034 28.630836843069034 28.630836843069034 28.630836843069034 28.630836843069034 28.630836843069034 28.630836843069034 28.630836843069034 28.630836843069034 28.630836843069034 28.630836843069034 28.630836843069034 28.630836843069034 28.630836843069034 28.630836843069034 28.630836843069034 28.630836843069034 28.630836843069034 28.630836843069034 28.630836843069034 28.630836843069034 28.630836843069034 28.630836843069034 28.630836843069034 28.630836843069034 28.630836843069034 28.630836843069034 28.630836843069034 28.630836843069034 28.630836843069034 28.630836843069034 28.630836843069034 28.630836843069034 28.630836843069034 28.630836843069034 28.630836843069034 28.630836843069034 28.630836843069034 28.630836843069034 28.630836843069034 28.630836843069034 28.630836843069034 28.630836843069034 28.630836843069034 28.630836843069034 28.630836843069034 28.630836843069034 28.630836843069034 28.630836843069034 28.630836843069034 28.630836843069034 28.630836843069034 28.630836843069034 28.630836843069034 28.630836843069034 28.630836843069034 28.630836843069034 28.630836843069034 28.630836843069034 28.630836843069034 28.630836843069034 28.630836843069034 28.630836843069034 28.630836843069034 28.630836843069034 28.630836843069034 28.630836843069034 28.630836843069034 28.630836843069034 28.630836843069034 28.630836843069034 28.630836843069034 28.630836843069034 28.630836843069034 28.630836843069034 28.630836843069034 28.630836843069034 28.630836843069034 28.630836843069034 28.630836843069034 28.630836843069034 28.630836843069034 28.630836843069034 28.630836843069034 28.630836843069034 28.630836843069034 28.630836843069034 28.630836843069034 28.630836843069034 28.630836843069034 28.630836843069034 28.630836843069034 28.630836843069034 28.630836843069034 28.630836843069034 28.630836843069034 28.630836843069034 28.630836843069034 28.630836843069034 28.630836843069034 28.630836843069034 28.630836843069034 28.630836843069034 28.630836843069034 28.630836843069034 28.630836843069034 28.630836843069034 28.630836843069034 28.630836843069034 28.630836843069034 28.630836843069034 28.630836843069034 28.630836843069034 28.630836843069034 28.630836843069034 28.630836843069034 28.630836843069034 28.630836843069034 28.630836843069034 28.630836843069034 28.630836843069034 28.630836843069034 28.630836843069034 28.630836843069034 28.630836843069034 28.630836843069034 28.630836843069034 28.630836843069034 28.630836843069034 28.630836843069034 28.630836843069034 28.630836843069034 28.630836843069034 28.630836843069034 28.630836843069034 28.630836843069034 28.630836843069034 28.630836843069034 28.630836843069034 28.630836843069034 28.630836843069034 28.630836843069034 28.630836843069034 28.630836843069034 28.630836843069034 28.630836843069034 28.630836843069034 28.630836843069034 28.630836843069034 28.630836843069034 28.630836843069034 28.630836843069034 28.630836843069034 28.630836843069034 28.630836843069034 28.630836843069034 28.630836843069034 28.630836843069034 28.630836843069034 28.630836843069034 28.630836843069034 28.630836843069034 28.630836843069034 28.630836843069034 28.630836843069034 28.630836843069034 28.630836843069034 28.630836843069034 28.630836843069034 28.630836843069034 28.630836843069034 28.630836843069034 28.630836843069034 28.630836843069034 28.630836843069034 28.630836843069034 28.630836843069034 28.630836843069034 28.630836843069034 28.630836843069034 28.630836843069034 28.630836843069034 28.630836843069034 28.630836843069034 28.630836843069034 28.630836843069034 28.630836843069034 28.630836843069034 28.630836843069034 28.630836843069034 28.630836843069034 28.630836843069034 28.630836843069034 28.630836843069034 28.630836843069034 28.630836843069034 28.630836843069034 28.630836843069034 28.630836843069034 28.630836843069034 28.630836843069034 28.630836843069034 28.630836843069034 28.630836843069034 28.630836843069034 28.630836843069034 28.630836843069034 28.630836843069034 28.630836843069034 28.630836843069034 28.630836843069034 28.630836843069034 28.630836843069034 28.630836843069034 28.630836843069034 28.630836843069034 28.630836843069034 28.630836843069034 28.630836843069034 28.630836843069034 28.630836843069034 28.630836843069034 28.630836843069034 28.630836843069034 28.630836843069034 28.630836843069034 28.630836843069034 28.630836843069034 28.630836843069034 28.630836843069034 28.630836843069034 28.630836843069034 28.630836843069034 28.630836843069034 28.630836843069034 28.630836843069034 28.630836843069034 28.630836843069034 28.630836843069034 28.630836843069034 28.630836843069034 28.630836843069034 28.630836843069034 28.630836843069034 28.630836843069034 28.630836843069034 28.630836843069034 28.630836843069034 28.630836843069034 28.630836843069034 28.630836843069034 28.630836843069034 28.630836843069034 28.630836843069034 28.630836843069034 28.630836843069034 28.630836843069034 28.630836843069034 28.630836843069034 28.630836843069034 28.630836843069034 28.630836843069034 28.630836843069034 28.630836843069034 28.630836843069034 28.630836843069034 28.630836843069034 28.630836843069034 28.630836843069034 28.630836843069034 28.630836843069034 28.630836843069034 28.630836843069034 28.630836843069034 28.630836843069034 28.630836843069034 28.630836843069034 28.630836843069034 28.630836843069034 28.630836843069034 28.630836843069034 28.630836843069034 28.630836843069034 28.630836843069034 28.630836843069034 28.630836843069034 28.630836843069034 28.630836843069034 28.630836843069034 28.630836843069034 28.630836843069034 28.630836843069034 28.630836843069034 28.630836843069034 28.630836843069034 28.630836843069034 28.630836843069034 28.630836843069034 28.630836843069034 28.630836843069034 28.630836843069034 28.630836843069034 28.630836843069034 28.630836843069034 28.630836843069034 28.630836843069034 28.630836843069034 28.630836843069034 28.630836843069034 28.630836843069034 28.630836843069034 28.630836843069034 28.630836843069034 28.630836843069034 28.630836843069034 28.630836843069034 28.630836843069034 28.630836843069034 28.630836843069034 28.630836843069034 28.630836843069034 28.630836843069034 28.630836843069034 28.630836843069034 28.630836843069034 28.630836843069034 28.630836843069034 28.630836843069034 28.630836843069034 28.630836843069034 28.630836843069034 28.630836843069034 28.630836843069034 28.630836843069034 28.630836843069034 28.630836843069034 28.630836843069034 28.630836843069034 28.630836843069034 28.630836843069034 28.630836843069034 28.630836843069034 28.630836843069034 28.630836843069034 28.630836843069034 28.630836843069034 28.630836843069034 28.630836843069034 28.630836843069034 28.630836843069034 28.630836843069034 28.630836843069034 28.630836843069034 28.630836843069034 28.630836843069034 28.630836843069034 28.630836843069034 28.630836843069034 28.630836843069034 28.630836843069034 28.630836843069034 28.630836843069034 28.630836843069034 28.630836843069034 28.630836843069034 28.630836843069034 28.630836843069034 28.630836843069034 28.630836843069034 28.630836843069034 28.630836843069034 28.630836843069034 28.630836843069034 28.630836843069034 28.630836843069034 28.630836843069034 28.630836843069034 28.630836843069034 28.630836843069034 28.630836843069034 28.630836843069034 28.630836843069034 28.630836843069034 28.630836843069034 28.630836843069034 28.630836843069034 28.630836843069034 28.630836843069034 28.630836843069034 28.630836843069034 28.630836843069034 28.630836843069034 28.630836843069034 28.630836843069034 28.630836843069034 28.630836843069034 28.630836843069034 28.630836843069034 28.630836843069034 28.630836843069034 28.630836843069034 28.630836843069034 28.630836843069034 28.630836843069034 28.630836843069034 28.630836843069034 28.630836843069034 28.630836843069034 28.630836843069034 28.630836843069034 28.630836843069034 28.630836843069034 28.630836843069034 28.630836843069034 28.630836843069034 28.630836843069034 28.630836843069034 28.630836843069034 28.630836843069034 28.630836843069034 28.630836843069034 28.630836843069034 28.630836843069034 28.630836843069034 28.630836843069034 28.630836843069034 28.630836843069034 28.630836843069034 28.630836843069034 28.630836843069034 28.630836843069034 28.630836843069034 28.630836843069034 28.630836843069034 28.630836843069034 28.630836843069034 28.630836843069034 28.630836843069034 28.630836843069034 28.630836843069034 28.630836843069034 28.630836843069034 28.630836843069034 28.630836843069034 28.630836843069034 28.630836843069034 28.630836843069034 28.630836843069034 28.630836843069034 28.630836843069034 28.630836843069034 28.630836843069034 28.630836843069034 28.630836843069034 28.630836843069034 28.630836843069034 28.630836843069034 28.630836843069034 28.630836843069034 28.630836843069034 28.630836843069034 28.630836843069034 28.630836843069034 28.630836843069034 28.630836843069034 28.630836843069034 28.630836843069034 28.661600439479948 28.661600439479948 28.661600439479948 28.69236403589086 28.69236403589086 28.75389122871269 28.784654825123603 28.815418421534517 28.84618201794543 28.876945614356345 28.90770921076726 28.938472807178172 28.969236403589086 29.030763596410914 29.061527192821828 29.123054385643655 29.215345174876397 29.215345174876397 29.24610877128731 29.276872367698225 29.30763596410914 29.369163156930966 29.430690349752794 29.461453946163708 29.522981138985532 29.553744735396446 29.58450833180736 29.615271928218274 29.615271928218274 29.615271928218274 29.615271928218274 29.646035524629188 29.646035524629188 29.6767991210401 29.6767991210401 29.73832631386193 29.769089910272843 29.799853506683757 29.83061710309467 29.8921442959165 29.953671488738326 30.045962277971068 30.13825306720381 30.23054385643655 30.322834645669293 30.415125434902034 30.538179820545686 30.5689434169566 30.753524995422083 30.81505218824391 30.938106573887566 31.06116095953122 31.153451748763963 31.338033327229446 31.430324116462188 31.55337850210584 31.70719648416041 31.86101446621498 32.014832448269544 32.29170481596777 32.44552279802234 32.660867972898735 32.84544955136422 32.99926753341879 33.27613990111701 33.460721479582496 33.7068302508698 33.95293902215711 34.19904779344442 34.44515656473173 34.66050173960813 34.90661051089544 35.183482878593665 35.36806445705915 35.61417322834646 35.89104559604468 36.07562717451016 36.352499542208385 36.69089910272844 36.998535066837576 37.152353048892145 37.36769822376854 37.61380699505585 37.9522065555759 38.13678813404138 38.38289690532869 38.59824208020509 38.875114447903314 39.15198681560154 39.39809558688884 39.70573155099798 39.95184032228529 40.290239882805345 40.6286394433254 40.843984618201794 41.12085698590002 41.36696575718733 41.55154733565281 41.797656106940124 41.951474088994686 42.197582860282 42.412928035158394 42.59750961362388 42.72056399926753 42.812854788500275 42.84361838491119 42.966672770554844 43.058963559787585 43.15125434902033 43.305072331074896 43.39736312030763 43.5511811023622 43.67423548800586 43.79728987364952 43.92034425929317 44.01263504852591 44.135689434169564 44.28950741622413 44.41256180186779 44.59714338033327 44.781724958798755 44.935542940853324 45.15088811572972 45.27394250137337 45.5508148690716 45.76616004394799 45.91997802600257 46.07379600805713 46.38143197216627 46.56601355063175 46.965940303973625 47.27357626808276 47.519685039370074 47.85808459989013 48.104193371177445 48.44259293169749 48.81175608862846 49.08862845632668 49.48855520966856 49.76542757736678 50.16535433070866 50.56528108405054 50.96520783739241 51.33437099432338 51.58047976561069 51.826588536898 52.22651529023988 52.47262406152719 52.96484160410181 53.27247756821095 53.518586339498256 53.85698590001831 54.10309467130563 54.41073063541476 54.74913019593481 54.99523896722212 55.27211133492034 55.57974729902948 55.79509247390588 56.10272843801501 56.31807361289141 56.59494598058963 56.87181834828786 57.08716352316425 57.39479948727339 57.70243545138253 57.917780626258924 58.40999816883354 58.65610694012086 58.87145211499725 59.2098516755173 59.48672404321553 59.79436000732467 60.25581395348837 60.594213514008416 60.901849478117555 61.30177623145944 61.42483061710309 61.91704815967771 62.22468412378685 62.59384728071782 62.99377403405969 63.27064640175792 63.670573155099795 63.94744552279802 64.31660867972897 64.71653543307087 64.96264420435817 65.30104376487822 65.63944332539828 65.85478850027468 66.22395165720565 66.53158762131477 66.74693279619117 67.02380516388939 67.20838674235489 67.48525911005311 67.60831349569676 67.76213147775132 68.00824024903864 68.13129463468229 68.31587621314777 68.50045779161326 68.62351217725691 68.74656656290057 68.86962094854422 68.93114814136604 69.02343893059879 69.08496612342061 69.17725691265336 69.23878410547519 69.2695477018861 69.2695477018861 69.2695477018861 69.2695477018861 69.2695477018861 69.300311298297 69.2695477018861 69.2695477018861 69.2695477018861 69.2695477018861 69.2695477018861 69.2695477018861 69.23878410547519 69.23878410547519 69.2695477018861 69.2695477018861 69.2695477018861 69.2695477018861 69.2695477018861 69.2695477018861 69.2695477018861 69.300311298297 69.300311298297 69.300311298297 69.2695477018861 69.300311298297 69.300311298297 69.300311298297 69.2695477018861 69.300311298297 69.2695477018861 69.2695477018861 69.2695477018861 69.300311298297 69.300311298297 69.300311298297 69.2695477018861 69.300311298297 69.2695477018861 69.2695477018861 69.2695477018861 69.2695477018861 69.2695477018861 69.23878410547519 69.20802050906427 69.20802050906427 69.20802050906427 69.20802050906427 69.17725691265336 69.17725691265336 69.17725691265336 69.14649331624244 69.11572971983153 69.11572971983153 69.11572971983153 69.11572971983153 69.11572971983153 69.11572971983153 69.11572971983153 69.08496612342061 69.08496612342061 69.05420252700969 69.02343893059879 69.02343893059879 69.02343893059879 68.99267533418788 68.99267533418788 68.99267533418788 68.99267533418788 68.96191173777697 68.93114814136604 68.90038454495513 68.90038454495513 68.86962094854422 68.86962094854422 68.86962094854422 68.8388573521333 68.8388573521333 68.8080937557224 68.77733015931148 68.74656656290057 68.65427577366782 68.62351217725691 68.592748580846 68.56198498443507 68.53122138802416 68.50045779161326 68.46969419520234 68.46969419520234 68.46969419520234 68.46969419520234 68.46969419520234 68.46969419520234 68.43893059879143 68.40816700238051 68.40816700238051 68.40816700238051 68.40816700238051 68.3774034059696 68.3466398095587 68.31587621314777 68.31587621314777 68.25434902032595 68.22358542391504 68.22358542391504 68.19282182750412 68.1620582310932 68.1620582310932 68.13129463468229 68.1620582310932 68.13129463468229 68.10053103827138 68.10053103827138 68.10053103827138 68.10053103827138 68.10053103827138 68.10053103827138 68.10053103827138 68.10053103827138 68.10053103827138 68.10053103827138 68.10053103827138 68.10053103827138 68.10053103827138 68.10053103827138 68.10053103827138 68.10053103827138 68.10053103827138 68.10053103827138 68.06976744186046 68.06976744186046 68.00824024903864 67.97747665262773 67.94671305621681 67.91594945980589 67.88518586339498 67.88518586339498 67.88518586339498 67.88518586339498 67.85442226698407 67.85442226698407 67.85442226698407 67.82365867057315 67.82365867057315 67.82365867057315 67.79289507416223 67.79289507416223 67.76213147775132 67.76213147775132 67.73136788134042 67.73136788134042 67.73136788134042 67.7006042849295 67.66984068851858 67.60831349569676 67.57754989928584 67.57754989928584 67.54678630287492 67.51602270646401 67.51602270646401 67.48525911005311 67.45449551364219 67.45449551364219 67.42373191723127 67.42373191723127 67.42373191723127 67.42373191723127 67.42373191723127 67.42373191723127 67.42373191723127 67.45449551364219 67.45449551364219 67.45449551364219 67.45449551364219 67.45449551364219 67.45449551364219 67.45449551364219 67.45449551364219 67.42373191723127 67.45449551364219 67.45449551364219 67.42373191723127 67.42373191723127 67.42373191723127 67.45449551364219 67.45449551364219 67.42373191723127 67.42373191723127 67.42373191723127 67.42373191723127 67.45449551364219 67.42373191723127 67.42373191723127 67.42373191723127 67.45449551364219 67.42373191723127 67.45449551364219 67.45449551364219 67.45449551364219 67.45449551364219 67.45449551364219 67.45449551364219 67.45449551364219 67.45449551364219 67.45449551364219 67.45449551364219 67.45449551364219 67.45449551364219 67.45449551364219 67.45449551364219 67.45449551364219 67.45449551364219 67.45449551364219 67.42373191723127 67.42373191723127 67.42373191723127 67.42373191723127 67.39296832082036 67.39296832082036 67.36220472440945 67.33144112799853 67.33144112799853 67.30067753158761 67.2699139351767 67.2699139351767 67.2699139351767 67.2391503387658 67.2391503387658 67.17762314594395 67.17762314594395 67.17762314594395 67.17762314594395 67.17762314594395 67.17762314594395 67.17762314594395 67.17762314594395 67.17762314594395 67.17762314594395 67.14685954953305 67.14685954953305 67.14685954953305 67.11609595312214 67.11609595312214 67.08533235671122 67.08533235671122 67.05456876030031 67.05456876030031 67.02380516388939 67.02380516388939 66.99304156747849 67.02380516388939 66.99304156747849 66.99304156747849 66.99304156747849 67.02380516388939 66.99304156747849 66.99304156747849 66.96227797106756 66.99304156747849 66.99304156747849 66.99304156747849 66.99304156747849 66.99304156747849 67.02380516388939 66.99304156747849 66.99304156747849 66.99304156747849 66.99304156747849 67.02380516388939 67.02380516388939 67.02380516388939 67.02380516388939 67.02380516388939 67.02380516388939 66.99304156747849 66.99304156747849 66.99304156747849 66.99304156747849 66.99304156747849 66.99304156747849 66.99304156747849 66.99304156747849 66.99304156747849 66.99304156747849 66.99304156747849 66.96227797106756 66.96227797106756 66.96227797106756 66.93151437465664 66.96227797106756 66.96227797106756 66.96227797106756 66.96227797106756 66.96227797106756 66.96227797106756 66.96227797106756 66.96227797106756 66.96227797106756 66.96227797106756 66.96227797106756 66.96227797106756 66.93151437465664 66.93151437465664 66.90075077824574 66.90075077824574 66.90075077824574 66.90075077824574 66.90075077824574 66.90075077824574 66.90075077824574 66.90075077824574 66.90075077824574 66.86998718183483 66.86998718183483 66.86998718183483 66.86998718183483 66.80845998901299 66.77769639260208 66.71616919978025 66.68540560336935 66.5931148141366 66.47006042849296 66.40853323567111 66.31624244643838 66.19318806079472 66.03937007874015 65.9163156930965 65.73173411463102 65.57791613257645 65.42409815052187 65.2395165720564 65.08569859000184 64.93188060794725 64.62424464383813 64.43966306537264 64.19355429408533 63.94744552279802 63.73210034792162 63.4552279802234 63.14759201611426 62.93224684123786 62.68613806995056 62.50155649148507 62.19392052737594 61.91704815967771 61.64017579197949 61.36330342428126 61.17872184581578 61.02490386376122 60.80955868888482 60.655740706830244 60.440395531953854 60.25581395348837 60.132759567844715 59.94817798937923 59.82512360373558 59.60977842885918 59.45596044680461 59.39443325398278 59.30214246475004 59.086797289873644 58.87145211499725 58.65610694012086 58.47152536165537 58.13312580113532 57.94854422266984 57.763962644204355 57.517853872917044 57.33327229445156 57.08716352316425 56.748763962644205 56.56418238417872 56.348837209302324 56.16425563083684 56.041201245193186 55.85661966672771 55.61051089544039 55.36440212415309 55.149056949276684 54.9644753708112 54.7183665995239 54.5030214246475 54.31843984618202 54.072331074894706 53.94927668925105 53.70316791796374 53.48782274308734 53.33400476103277 53.057132393334555 52.903314411279986 52.78026002563632 52.56491485075993 52.411096868705364 52.19575169382897 51.949642922541656 51.703534151254345 51.488188976377955 51.33437099432338 51.18055301226882 50.934444240981506 50.74986266251602 50.56528108405054 50.34993590917414 50.16535433070866 49.91924555942135 49.70390038454495 49.51931880607947 49.30397363120308 49.119392052737595 48.93481047427211 48.6887017029848 48.53488372093023 48.28877494964292 48.073429774766524 47.91961179271196 47.67350302142465 47.519685039370074 47.24281267167186 47.02746749679545 46.93517670756272 46.62754074345358 46.41219556857718 46.25837758652261 45.91997802600257 45.67386925471526 45.45852407983885 45.21241530855154 45.02783373008606 44.781724958798755 44.59714338033327 44.381798205456874 44.16645303058048 44.04339864493682 43.828053470060425 43.64347189159494 43.366599523896724 43.12049075260941 42.99743636696576 42.812854788500275 42.53598242080205 42.38216443874748 42.07452847463834 41.85918329976195 41.705365317707376 41.459256546420065 41.3054385643655 41.15162058231093 40.843984618201794 40.72093023255814 40.536348654092656 40.35176707562717 40.22871268998352 40.07489470792895 39.982603918696206 39.82878593664164 39.70573155099798 39.582677165354326 39.428859183299764 39.275041201245195 39.18275041201245 38.93664164072514 38.8443508514924 38.721296465848745 38.59824208020509 38.50595129097235 38.35213330891778 38.10602453763047 37.98297015198681 37.82915216993224 37.70609778428859 37.58304339864493 37.33693462735763 37.21388024171397 37.02929866324849 36.87548068119392 36.72166269913935 36.56784471708478 36.444790331441126 36.1679179637429 36.01409998168833 35.86028199963376 35.706464017579194 35.52188243911371 35.39882805347006 35.15271928218275 34.99890130012818 34.8143197216627 34.66050173960813 34.537447353964474 34.32210217908808 34.26057498626625 34.075993407800766 33.983702618568024 33.922175425746204 33.829884636513455 33.79912104010255 33.76835744369163 33.73759384728072 33.7068302508698 33.64530305804798 33.614539461637065 33.614539461637065 33.58377586522615 33.55301226881524 33.55301226881524 33.49148507599341 33.49148507599341 33.39919428676067 33.33766709393884 33.27613990111701 33.18384911188427 33.09155832265153 33.060794726240616 32.968503937007874 32.93774034059696 32.84544955136422 32.75315876213148 32.69163156930965 32.63010437648782 32.568577183665994 32.507049990844166 32.414759201611425 32.38399560520051 32.29170481596777 32.19941402673503 32.168650430324114 32.107123237502286 32.07635964109137 32.014832448269544 31.984068851858634 31.95330525544772 31.95330525544772 31.922541659036806 31.922541659036806 31.891778062625892 31.891778062625892 31.830250869804065 31.79948727339315 31.768723676982237 31.737960080571323 31.64566929133858 31.614905694927668 31.55337850210584 31.522614905694926 31.461087712873102 31.430324116462188 31.36879692364036 31.338033327229446 31.307269730818533 31.27650613440762 31.27650613440762 31.245742537996705 31.184215345174877 31.12268815235305 31.06116095953122 30.96887017029848 30.81505218824391 30.72276139901117 30.630470609778428 30.538179820545686 30.47665262772386 30.353598242080206 30.261307452847465 30.199780260025637 30.107489470792896 30.07672587438198 30.015198681560154 29.98443508514924 29.953671488738326 29.953671488738326 29.953671488738326 29.922907892327412 29.8921442959165 29.8921442959165 29.861380699505585 29.861380699505585 29.861380699505585 29.861380699505585 29.83061710309467 29.83061710309467 29.83061710309467 29.83061710309467 29.799853506683757 29.799853506683757 29.799853506683757 29.769089910272843 29.769089910272843 29.769089910272843 29.73832631386193 29.73832631386193 29.707562717451015 29.707562717451015 29.707562717451015 29.6767991210401 29.6767991210401 29.6767991210401 29.646035524629188 29.615271928218274 29.615271928218274 29.615271928218274 29.615271928218274 29.58450833180736 29.58450833180736 29.58450833180736 29.58450833180736 29.58450833180736 29.58450833180736 29.58450833180736 29.58450833180736 29.553744735396446 29.553744735396446 29.553744735396446 29.553744735396446 29.553744735396446 29.553744735396446 29.553744735396446 29.522981138985532 29.522981138985532 29.522981138985532 29.522981138985532 29.49221754257462 29.49221754257462 29.49221754257462 29.49221754257462 29.49221754257462 29.49221754257462 29.49221754257462 29.49221754257462 29.49221754257462 29.49221754257462 29.49221754257462 29.461453946163708 29.461453946163708 29.461453946163708 29.461453946163708 29.461453946163708 29.461453946163708 29.430690349752794 29.430690349752794 29.430690349752794 29.430690349752794 29.430690349752794 29.430690349752794 29.430690349752794 29.430690349752794 29.39992675334188 29.39992675334188 29.39992675334188 29.39992675334188 29.39992675334188 29.39992675334188 29.39992675334188 29.39992675334188 29.39992675334188 29.39992675334188 29.39992675334188 29.39992675334188 29.39992675334188 29.39992675334188 29.39992675334188 29.39992675334188 29.39992675334188 29.39992675334188 29.39992675334188 29.369163156930966 29.39992675334188 29.369163156930966 29.369163156930966 29.369163156930966 29.369163156930966 29.338399560520052 29.369163156930966 29.338399560520052 29.338399560520052 29.338399560520052 29.338399560520052 29.338399560520052 29.338399560520052 29.338399560520052 29.338399560520052 29.338399560520052 29.338399560520052 29.338399560520052 29.338399560520052 29.30763596410914 29.30763596410914 29.30763596410914 29.338399560520052 29.30763596410914 29.338399560520052 29.30763596410914 29.30763596410914 29.338399560520052 29.338399560520052 29.30763596410914 29.30763596410914 29.30763596410914 29.30763596410914 29.30763596410914 29.30763596410914 29.30763596410914 29.276872367698225 29.276872367698225 29.276872367698225 29.276872367698225 29.276872367698225 29.276872367698225 29.276872367698225 29.276872367698225 29.276872367698225 29.276872367698225 29.276872367698225 29.276872367698225 29.24610877128731 29.24610877128731 29.24610877128731 29.24610877128731 29.215345174876397 29.215345174876397 29.215345174876397 29.215345174876397 29.215345174876397 29.215345174876397 29.215345174876397 29.215345174876397 29.215345174876397 29.215345174876397 29.215345174876397 29.215345174876397 29.215345174876397 29.215345174876397 29.215345174876397 29.215345174876397 29.215345174876397 29.215345174876397 29.215345174876397 29.215345174876397 29.215345174876397 29.215345174876397 29.215345174876397 29.215345174876397 29.215345174876397 29.215345174876397 29.215345174876397 29.215345174876397 29.215345174876397 29.215345174876397 29.215345174876397 29.215345174876397 29.215345174876397 29.215345174876397 29.215345174876397 29.215345174876397 29.215345174876397 29.215345174876397 29.215345174876397 29.215345174876397 29.215345174876397 29.215345174876397 29.215345174876397 29.215345174876397 29.215345174876397 29.215345174876397 29.215345174876397 29.184581578465483 29.215345174876397 29.215345174876397 29.184581578465483 29.215345174876397 29.215345174876397 29.215345174876397 29.215345174876397 29.215345174876397 29.215345174876397 29.215345174876397 29.215345174876397 29.215345174876397 29.184581578465483 29.184581578465483 29.215345174876397 29.184581578465483 29.184581578465483 29.184581578465483 29.184581578465483 29.184581578465483 29.184581578465483 29.184581578465483 29.184581578465483 29.215345174876397 29.184581578465483 29.184581578465483 29.184581578465483 29.184581578465483 29.184581578465483 29.184581578465483 29.184581578465483 29.184581578465483 29.184581578465483 29.184581578465483 29.184581578465483 29.184581578465483 29.184581578465483 29.184581578465483 29.184581578465483 29.184581578465483 29.184581578465483 29.184581578465483 29.184581578465483 29.184581578465483 29.184581578465483 29.184581578465483 29.184581578465483 29.184581578465483 29.184581578465483 29.184581578465483 29.184581578465483 29.184581578465483 29.184581578465483 29.184581578465483 29.184581578465483 29.184581578465483 29.184581578465483 29.184581578465483 29.184581578465483 29.184581578465483 29.15381798205457 29.15381798205457 29.15381798205457 29.15381798205457 29.15381798205457 29.15381798205457 29.15381798205457 29.15381798205457 29.15381798205457 29.15381798205457 29.15381798205457 29.15381798205457 29.15381798205457 29.15381798205457 29.15381798205457 29.15381798205457 29.15381798205457 29.15381798205457 29.15381798205457 29.15381798205457 29.15381798205457 29.15381798205457 29.15381798205457 29.15381798205457 29.123054385643655 29.123054385643655 29.123054385643655 29.15381798205457 29.123054385643655 29.123054385643655 29.123054385643655 29.123054385643655 29.123054385643655 29.123054385643655 29.123054385643655 29.123054385643655 29.123054385643655 29.123054385643655 29.123054385643655 29.123054385643655 29.123054385643655 29.123054385643655 29.123054385643655 29.123054385643655 29.123054385643655 29.123054385643655 29.123054385643655 29.123054385643655 29.123054385643655 29.123054385643655 29.123054385643655 29.123054385643655 29.123054385643655 29.123054385643655 29.15381798205457 29.123054385643655 29.123054385643655 29.123054385643655 29.123054385643655 29.123054385643655 29.123054385643655 29.123054385643655 29.123054385643655 29.123054385643655 29.123054385643655 29.123054385643655 29.123054385643655 29.123054385643655 29.123054385643655 29.123054385643655 29.123054385643655 29.123054385643655 29.123054385643655 29.123054385643655 29.123054385643655 29.123054385643655 29.123054385643655 29.123054385643655 29.123054385643655 29.123054385643655 29.123054385643655 29.123054385643655 29.123054385643655 29.123054385643655 29.123054385643655 29.123054385643655 29.123054385643655 29.123054385643655 29.123054385643655 29.123054385643655 29.123054385643655 29.123054385643655 29.123054385643655 29.123054385643655 29.123054385643655 29.123054385643655 29.123054385643655 29.123054385643655 29.123054385643655 29.09229078923274 29.123054385643655 29.123054385643655 29.09229078923274 29.123054385643655 29.09229078923274 29.09229078923274 29.09229078923274 29.09229078923274 29.09229078923274 29.09229078923274 29.123054385643655 29.09229078923274 29.09229078923274 29.09229078923274 29.09229078923274 29.09229078923274 29.09229078923274 29.09229078923274 29.09229078923274 29.09229078923274 29.09229078923274 29.09229078923274 29.09229078923274 29.09229078923274 29.09229078923274 29.09229078923274 29.09229078923274 29.09229078923274 29.09229078923274 29.09229078923274 29.09229078923274 29.09229078923274 29.09229078923274 29.09229078923274 29.09229078923274 29.09229078923274 29.09229078923274 29.09229078923274 29.09229078923274 29.09229078923274 29.09229078923274 29.09229078923274 29.09229078923274 29.09229078923274 29.09229078923274 29.09229078923274 29.09229078923274 29.09229078923274 29.09229078923274 29.09229078923274 29.09229078923274 29.09229078923274 29.09229078923274 29.09229078923274 29.09229078923274 29.09229078923274 29.09229078923274 29.09229078923274 29.09229078923274 29.09229078923274 29.09229078923274 29.09229078923274 29.09229078923274 29.09229078923274 29.09229078923274 29.09229078923274 29.09229078923274 29.09229078923274 29.09229078923274 29.09229078923274 29.09229078923274 29.09229078923274 29.09229078923274 29.09229078923274 29.09229078923274 29.09229078923274 29.09229078923274 29.09229078923274 29.09229078923274 29.09229078923274 29.09229078923274 29.09229078923274 29.09229078923274 29.09229078923274 29.09229078923274 29.09229078923274 29.09229078923274 29.09229078923274 29.09229078923274 29.09229078923274 29.09229078923274 29.09229078923274 29.09229078923274 29.09229078923274 29.09229078923274 29.09229078923274 29.09229078923274 29.09229078923274 29.09229078923274 29.09229078923274 29.09229078923274 29.09229078923274 29.09229078923274 29.09229078923274 29.09229078923274 29.09229078923274 29.09229078923274 29.09229078923274 29.09229078923274 29.09229078923274 29.09229078923274 29.09229078923274 29.09229078923274 29.09229078923274 29.09229078923274 29.09229078923274 29.09229078923274 29.09229078923274 29.09229078923274 29.09229078923274 29.09229078923274 29.09229078923274 29.09229078923274 29.09229078923274 29.09229078923274 29.09229078923274 29.09229078923274 29.09229078923274 29.09229078923274 29.09229078923274 29.09229078923274 29.09229078923274 29.09229078923274 29.09229078923274 29.09229078923274 29.09229078923274 29.09229078923274 29.09229078923274 29.09229078923274 29.09229078923274 29.09229078923274 29.09229078923274 29.09229078923274 29.09229078923274 29.09229078923274 29.09229078923274 29.09229078923274 29.09229078923274 29.09229078923274 29.09229078923274 29.09229078923274 29.09229078923274 29.09229078923274 29.09229078923274 29.09229078923274 29.09229078923274 29.09229078923274 29.09229078923274 29.09229078923274 29.09229078923274 29.09229078923274 29.09229078923274 29.09229078923274 29.09229078923274 29.09229078923274 29.09229078923274 29.09229078923274 29.09229078923274 29.09229078923274 29.09229078923274 29.09229078923274 29.09229078923274 29.09229078923274 29.09229078923274 29.09229078923274 29.09229078923274 29.09229078923274 29.09229078923274 29.09229078923274 29.09229078923274 29.09229078923274 29.09229078923274 29.09229078923274 29.09229078923274 29.09229078923274 29.09229078923274 29.09229078923274 29.09229078923274 29.09229078923274 29.09229078923274 29.09229078923274 29.09229078923274 29.09229078923274 29.09229078923274 29.09229078923274 29.09229078923274 29.09229078923274 29.09229078923274 29.09229078923274 29.09229078923274 29.09229078923274 29.09229078923274 29.09229078923274 29.09229078923274 29.09229078923274 29.09229078923274 29.09229078923274 29.09229078923274 29.09229078923274 29.09229078923274 29.09229078923274 29.09229078923274 29.09229078923274 29.09229078923274 29.09229078923274 29.09229078923274 29.09229078923274 29.09229078923274 29.09229078923274 29.09229078923274 29.09229078923274 29.09229078923274 29.09229078923274 29.09229078923274 29.09229078923274 29.09229078923274 29.09229078923274 29.09229078923274 29.09229078923274 29.09229078923274 29.09229078923274 29.09229078923274 29.09229078923274 29.09229078923274 29.09229078923274 29.09229078923274 29.09229078923274 29.09229078923274 29.09229078923274 29.09229078923274 29.123054385643655 29.09229078923274 29.09229078923274 29.09229078923274 29.09229078923274 29.09229078923274 29.09229078923274 29.09229078923274 29.09229078923274 29.09229078923274 29.09229078923274 29.09229078923274 29.09229078923274 29.09229078923274 29.09229078923274 29.09229078923274 29.09229078923274 29.09229078923274 29.09229078923274 29.09229078923274 29.09229078923274 29.09229078923274 29.09229078923274 29.09229078923274 29.09229078923274 29.09229078923274 29.09229078923274 29.09229078923274 29.09229078923274 29.09229078923274 29.09229078923274 29.09229078923274 29.09229078923274 29.09229078923274 29.09229078923274 29.09229078923274 29.09229078923274 29.09229078923274 29.09229078923274 29.09229078923274 29.09229078923274 29.09229078923274 29.09229078923274 29.09229078923274 29.09229078923274 29.09229078923274 29.09229078923274 29.09229078923274 29.09229078923274 29.09229078923274 29.09229078923274 29.09229078923274 29.09229078923274 29.09229078923274 29.09229078923274 29.09229078923274 29.09229078923274 29.09229078923274 29.09229078923274 29.09229078923274 29.09229078923274 29.09229078923274 29.09229078923274 29.09229078923274 29.09229078923274 29.09229078923274 29.09229078923274 29.09229078923274 29.09229078923274 29.09229078923274 29.09229078923274 29.09229078923274 29.09229078923274 29.09229078923274 29.09229078923274 29.09229078923274 29.09229078923274 29.09229078923274 29.09229078923274 29.09229078923274 29.09229078923274 29.09229078923274 29.09229078923274 29.09229078923274 29.09229078923274 29.09229078923274 29.09229078923274 29.09229078923274 29.09229078923274 29.09229078923274 29.09229078923274 29.09229078923274 29.09229078923274 29.09229078923274 29.09229078923274 29.09229078923274 29.09229078923274 29.09229078923274 29.09229078923274 29.09229078923274 29.09229078923274 29.09229078923274 29.09229078923274 29.09229078923274 29.09229078923274 29.09229078923274 29.09229078923274 29.09229078923274 29.09229078923274 29.09229078923274 29.09229078923274 29.09229078923274 29.09229078923274 29.09229078923274 29.09229078923274 29.09229078923274 29.09229078923274 29.09229078923274 29.09229078923274 29.09229078923274 29.09229078923274 29.09229078923274 29.09229078923274 29.09229078923274 29.09229078923274 29.09229078923274 29.09229078923274 29.09229078923274 29.09229078923274 29.09229078923274 29.09229078923274 29.09229078923274 29.09229078923274 29.09229078923274 29.09229078923274 29.09229078923274 29.09229078923274 29.09229078923274 29.09229078923274 29.09229078923274 29.09229078923274 29.09229078923274 29.09229078923274 29.09229078923274 29.09229078923274 29.09229078923274 29.09229078923274 29.09229078923274 29.09229078923274 29.09229078923274 29.09229078923274 29.09229078923274 29.09229078923274 29.09229078923274 29.09229078923274 29.09229078923274 29.09229078923274 29.09229078923274 29.09229078923274 29.09229078923274 29.09229078923274 29.09229078923274 29.09229078923274 29.09229078923274 29.09229078923274 29.09229078923274 29.09229078923274 29.09229078923274 29.09229078923274 29.09229078923274 29.09229078923274 29.09229078923274 29.09229078923274 29.09229078923274 29.09229078923274 29.09229078923274 29.09229078923274 29.09229078923274 29.09229078923274 29.09229078923274 29.09229078923274 29.09229078923274 29.09229078923274 29.09229078923274 29.09229078923274 29.09229078923274 29.09229078923274 29.09229078923274 29.09229078923274 29.09229078923274 29.09229078923274 29.09229078923274 29.09229078923274 29.09229078923274 29.09229078923274 29.09229078923274 29.09229078923274 29.09229078923274 29.09229078923274 29.09229078923274 29.09229078923274 29.09229078923274 29.09229078923274 29.09229078923274 29.09229078923274 29.09229078923274 29.09229078923274 29.09229078923274 29.09229078923274 29.09229078923274 29.09229078923274 29.09229078923274 29.09229078923274 29.09229078923274 29.09229078923274 29.09229078923274 29.09229078923274 29.09229078923274 29.123054385643655 29.15381798205457 29.215345174876397 29.30763596410914 29.338399560520052 29.39992675334188 29.461453946163708 29.49221754257462 29.553744735396446 29.615271928218274 29.646035524629188 29.707562717451015 29.769089910272843 29.83061710309467 29.8921442959165 29.922907892327412 29.953671488738326 29.98443508514924 30.045962277971068 30.107489470792896 30.13825306720381 30.169016663614723 30.199780260025637 30.199780260025637 30.261307452847465 30.322834645669293 30.353598242080206 30.415125434902034 30.445889031312948 30.507416224134772 30.538179820545686 30.630470609778428 30.72276139901117 30.81505218824391 30.907342977476652 30.96887017029848 31.06116095953122 31.184215345174877 31.27650613440762 31.27650613440762 31.338033327229446 31.338033327229446 31.399560520051274 31.430324116462188 31.522614905694926 31.614905694927668 31.70719648416041 31.79948727339315 31.984068851858634 32.107123237502286 32.29170481596777 32.507049990844166 32.660867972898735 32.87621314777513 33.0300311298297 33.2453763047061 33.460721479582496 33.64530305804798 33.829884636513455 34.04522981138985 34.29133858267716 34.475920161142646 34.66050173960813 34.90661051089544 35.15271928218275 35.337300860648234 35.67570042116829 35.9218091924556 36.106390770921074 36.32173594579747 36.506317524262954 36.752426295550265 36.998535066837576 37.152353048892145 37.36769822376854 37.64457059146676 37.767624977110415 38.10602453763047 38.29060611609595 38.475187694561434 38.69053286943783 38.967405237136056 39.21351400842337 39.45962277971067 39.921076725874386 40.22871268998352 40.50558505768174 40.90551181102362 41.243911371543675 41.490020142830986 41.9822376854056 42.22834645669291 42.62827321003479 43.028199963376665 43.33583592748581 43.70499908441677 44.10492583775865 44.381798205456874 44.75096136238784 45.02783373008606 45.396996887017025 45.735396447537084 45.98150521882439 46.41219556857718 46.658304339864486 46.904413111151804 47.212049075260936 47.45815784654825 47.85808459989013 48.35030214246475 48.62717451016297 48.96557407068302 49.24244643838125 49.45779161325764 49.85771836659953 49.95000915583226 50.380699505585056 50.71909906610511 50.995971433803334 51.211316608679724 51.457425379967034 51.64200695843252 51.91887932613075 52.13422450100714 52.44186046511628 52.74949642922542 52.96484160410181 53.3955319538546 53.610877128731005 53.826222303607395 54.13385826771653 54.31843984618202 54.626075810291155 55.05676616004395 55.30287493133125 55.67203808826222 55.97967405237136 56.225782823658676 56.62570957700055 56.841054751876946 57.179454312397 57.54861746932796 57.79472624061527 58.13312580113532 58.37923457242263 58.68687053653177 59.025270097051816 59.2098516755173 59.54825123603735 59.91741439296832 60.040468778611974 60.34810474272111 60.53268632118659 60.80955868888482 61.055667460172124 61.20948544222669 61.51712140633583 61.73246658121223 61.8862845632668 62.101629738143195 62.28621131660868 62.409265702252334 62.68613806995056 62.83995605200513 63.055301226881525 63.27064640175792 63.4552279802234 63.79362754074345 63.94744552279802 64.1320271012635 64.40889946896172 64.59348104742722 64.90111701153634 65.20875297564548 65.48562534334371 65.79326130745284 66.00860648232924 66.19318806079472 66.50082402490386 66.71616919978025 67.11609595312214 67.39296832082036 67.57754989928584 67.85442226698407 68.03900384544954 68.25434902032595 68.46969419520234 68.592748580846 68.77733015931148 68.96191173777697 69.08496612342061 69.20802050906427 69.33107489470792 69.42336568394066 69.51565647317341 69.57718366599524 69.66947445522797 69.73100164804981 69.76176524446072 69.82329243728255 69.82329243728255 69.88481963010437 69.91558322651528 69.9463468229262 70.00787401574803 70.10016480498078 70.19245559421351 70.25398278703534 70.31550997985717 70.377037172679 70.46932796191174 70.53085515473356 70.59238234755539 70.65390954037721 70.74620032960996 70.80772752243178 70.86925471525362 70.93078190807545 70.96154550448635 70.99230910089727 71.02307269730818 71.02307269730818 71.05383629371909 71.11536348654093 71.11536348654093 71.14612708295184 71.17689067936274 71.17689067936274 71.20765427577366 71.20765427577366 71.20765427577366 71.20765427577366 71.20765427577366 71.20765427577366 71.20765427577366 71.20765427577366 71.20765427577366 71.20765427577366 71.20765427577366 71.20765427577366 71.20765427577366 71.20765427577366 71.20765427577366 71.20765427577366 71.20765427577366 71.20765427577366 71.20765427577366 71.23841787218458 71.20765427577366 71.20765427577366 71.20765427577366 71.20765427577366 71.20765427577366 71.20765427577366 71.23841787218458 71.20765427577366 71.20765427577366 71.20765427577366 71.23841787218458 71.23841787218458 71.23841787218458 71.26918146859549 71.26918146859549 71.23841787218458 71.23841787218458 71.26918146859549 71.23841787218458 71.23841787218458 71.26918146859549 71.23841787218458 71.23841787218458 71.23841787218458 71.26918146859549 71.23841787218458 71.23841787218458 71.23841787218458 71.23841787218458 71.26918146859549 71.26918146859549 71.23841787218458 71.23841787218458 71.23841787218458 71.26918146859549 71.23841787218458 71.23841787218458 71.23841787218458 71.23841787218458 71.26918146859549 71.23841787218458 71.23841787218458 71.23841787218458 71.26918146859549 71.23841787218458 71.23841787218458 71.23841787218458 71.23841787218458 71.23841787218458 71.23841787218458 71.23841787218458 71.23841787218458 71.23841787218458 71.23841787218458 71.23841787218458 71.23841787218458 71.23841787218458 71.23841787218458 71.23841787218458 71.23841787218458 71.23841787218458 71.23841787218458 71.23841787218458 71.23841787218458 71.23841787218458 71.23841787218458 71.23841787218458 71.23841787218458 71.23841787218458 71.23841787218458 71.23841787218458 71.23841787218458 71.23841787218458 71.26918146859549 71.23841787218458 71.23841787218458 71.23841787218458 71.23841787218458 71.23841787218458 71.23841787218458 71.26918146859549 71.26918146859549 71.26918146859549 71.2999450650064 71.26918146859549 71.26918146859549 71.2999450650064 71.2999450650064 71.2999450650064 71.26918146859549 71.26918146859549 71.26918146859549 71.2999450650064 71.26918146859549 71.26918146859549 71.26918146859549 71.2999450650064 71.26918146859549 71.26918146859549 71.26918146859549 71.26918146859549 71.26918146859549 71.26918146859549 71.26918146859549 71.26918146859549 71.26918146859549 71.26918146859549 71.26918146859549 71.26918146859549 71.26918146859549 71.2999450650064 71.26918146859549 71.26918146859549 71.26918146859549 71.26918146859549 71.26918146859549 71.26918146859549 71.26918146859549 71.26918146859549 71.26918146859549 71.26918146859549 71.26918146859549 71.26918146859549 71.26918146859549 71.26918146859549 71.26918146859549 71.26918146859549 71.26918146859549 71.23841787218458 71.23841787218458 71.26918146859549 71.23841787218458 71.23841787218458 71.23841787218458 71.23841787218458 71.23841787218458 71.23841787218458 71.23841787218458 71.23841787218458 71.23841787218458 71.23841787218458 71.20765427577366 71.20765427577366 71.23841787218458 71.23841787218458 71.23841787218458 71.23841787218458 71.23841787218458 71.20765427577366 71.23841787218458 71.23841787218458 71.23841787218458 71.20765427577366 71.17689067936274 71.17689067936274 71.14612708295184 71.14612708295184 71.14612708295184 71.14612708295184 71.11536348654093 71.11536348654093 71.11536348654093 71.11536348654093 71.11536348654093 71.11536348654093 71.11536348654093 71.11536348654093 71.11536348654093 71.11536348654093 71.11536348654093 71.08459989013001 71.08459989013001 71.05383629371909 71.02307269730818 70.99230910089727 70.99230910089727 70.99230910089727 70.99230910089727 70.96154550448635 70.96154550448635 70.96154550448635 70.96154550448635 70.96154550448635 70.93078190807545 70.93078190807545 70.96154550448635 70.93078190807545 70.96154550448635 70.96154550448635 70.93078190807545 70.93078190807545 70.93078190807545 70.93078190807545 70.93078190807545 70.90001831166452 70.90001831166452 70.90001831166452 70.86925471525362 70.8384911188427 70.8384911188427 70.80772752243178 70.80772752243178 70.80772752243178 70.80772752243178 70.77696392602087 70.77696392602087 70.77696392602087 70.77696392602087 70.77696392602087 70.77696392602087 70.77696392602087 70.77696392602087 70.77696392602087 70.77696392602087 70.74620032960996 70.74620032960996 70.71543673319906 70.71543673319906 70.71543673319906 70.68467313678812 70.68467313678812 70.71543673319906 70.68467313678812 70.68467313678812 70.68467313678812 70.65390954037721 70.65390954037721 70.65390954037721 70.65390954037721 70.65390954037721 70.65390954037721 70.59238234755539 70.53085515473356 70.50009155832265 70.4078007690899 70.31550997985717 70.25398278703534 70.10016480498078 70.00787401574803 69.91558322651528 69.79252884087163 69.70023805163889 69.51565647317341 69.36183849111885 69.14649331624244 68.96191173777697 68.8080937557224 68.65427577366782 68.43893059879143 68.28511261673685 67.97747665262773 67.73136788134042 67.54678630287492 67.36220472440945 67.20838674235489 67.02380516388939 66.65464200695843 66.43929683208202 66.1624244643838 65.85478850027468 65.67020692180918 65.39333455411096 65.11646218641275 64.90111701153634 64.62424464383813 64.37813587255081 64.07049990844168 63.73210034792162 63.39370078740157 63.055301226881525 62.80919245559421 62.59384728071782 62.255447720197765 62.009338948910454 61.701702984801315 61.27101263504852 60.994140267350296 60.71726789965207 60.47115912836477 60.25581395348837 59.79436000732467 59.54825123603735 59.24061527192821 58.90221571140816 58.68687053653177 58.37923457242263 58.19465299395715 57.8562534334371 57.517853872917044 57.302508698040654 56.93334554110969 56.59494598058963 56.348837209302324 56.01043764878227 55.73356528108405 55.51822010620765 55.24134773850943 55.05676616004395 54.65683940670207 54.44149423182567 54.16462186412745 53.88774949642922 53.70316791796374 53.48782274308734 53.18018677897821 52.96484160410181 52.74949642922542 52.503387657938106 52.34956967588353 52.103460904596226 51.91887932613075 51.67277055484343 51.39589818714521 51.18055301226882 50.934444240981506 50.688335469694195 50.380699505585056 50.16535433070866 49.95000915583226 49.55008240249039 49.365500824024906 49.027101263504846 48.75022889580663 48.53488372093023 48.28877494964292 48.073429774766524 47.95037538912287 47.7965574070683 47.64273942501373 47.48892144295917 47.33510346090459 47.212049075260936 46.996703900384546 46.750595129097235 46.504486357809924 46.350668375755355 46.104559604468044 45.88921442959165 45.67386925471526 45.48928767624977 45.15088811572972 44.874015748031496 44.72019776597693 44.50485259110053 44.35103460904596 44.19721662699139 43.981871452114994 43.828053470060425 43.612708295184035 43.366599523896724 43.18201794543124 42.93590917414393 42.659036806445705 42.47445522798022 42.197582860282 42.04376487822743 41.7668925105292 41.490020142830986 41.27467496795458 41.02856619666728 40.843984618201794 40.65940303973631 40.47482146127083 40.290239882805345 40.044131111518034 39.7364951474089 39.55191356894342 39.30580479765611 39.15198681560154 38.967405237136056 38.629005676616 38.475187694561434 38.19831532686321 37.9522065555759 37.767624977110415 37.521516205823104 37.2754074345358 37.060062259659404 36.78318989196118 36.56784471708478 36.26020875297564 35.952572788866505 35.76799121040103 35.429591649880976 35.24501007141549 35.09119208936092 34.87584691448453 34.72202893242996 34.50668375755356 34.229811389855335 34.10675700421168 33.983702618568024 33.89141182933528 33.829884636513455 33.73759384728072 33.67606665445889 33.614539461637065 33.55301226881524 33.49148507599341 33.39919428676067 33.33766709393884 33.27613990111701 33.214612708295185 33.15308551547336 33.09155832265153 32.99926753341879 32.906976744186046 32.814685954953305 32.72239516572056 32.660867972898735 32.59934078007691 32.53781358725508 32.44552279802234 32.38399560520051 32.3532320087896 32.29170481596777 32.19941402673503 32.1378868339132 32.07635964109137 32.07635964109137 32.04559604468046 32.04559604468046 32.014832448269544 31.95330525544772 31.922541659036806 31.86101446621498 31.79948727339315 31.737960080571323 31.676432887749495 31.55337850210584 31.491851309284012 31.399560520051274 31.338033327229446 31.307269730818533 31.21497894158579 31.153451748763963 31.030397363120308 30.938106573887566 30.87657938106574 30.81505218824391 30.72276139901117 30.66123420618934 30.5689434169566 30.507416224134772 30.415125434902034 30.353598242080206 30.261307452847465 30.169016663614723 30.107489470792896 30.045962277971068 30.015198681560154 30.015198681560154 30.015198681560154 30.015198681560154 29.98443508514924 29.953671488738326 29.922907892327412 29.8921442959165 29.861380699505585 29.83061710309467 29.83061710309467 29.83061710309467 29.799853506683757 29.769089910272843 29.769089910272843 29.769089910272843 29.769089910272843 29.73832631386193 29.73832631386193 29.707562717451015 29.707562717451015 29.6767991210401 29.6767991210401 29.646035524629188 29.615271928218274 29.615271928218274 29.615271928218274 29.58450833180736 29.58450833180736 29.553744735396446 29.553744735396446 29.522981138985532 29.522981138985532 29.49221754257462 29.49221754257462 29.49221754257462 29.461453946163708 29.461453946163708 29.430690349752794 29.430690349752794 29.430690349752794 29.430690349752794 29.430690349752794 29.430690349752794 29.430690349752794 29.39992675334188 29.39992675334188 29.39992675334188 29.39992675334188 29.39992675334188 29.39992675334188 29.39992675334188 29.369163156930966 29.369163156930966 29.369163156930966 29.369163156930966 29.369163156930966 29.369163156930966 29.369163156930966 29.369163156930966 29.369163156930966 29.369163156930966 29.369163156930966 29.338399560520052 29.369163156930966 29.369163156930966 29.369163156930966 29.369163156930966 29.369163156930966 29.369163156930966 29.338399560520052 29.369163156930966 29.338399560520052 29.338399560520052 29.338399560520052 29.338399560520052 29.338399560520052 29.338399560520052 29.338399560520052 29.338399560520052 29.338399560520052 29.30763596410914 29.338399560520052 29.338399560520052 29.30763596410914 29.30763596410914 29.30763596410914 29.338399560520052 29.30763596410914 29.30763596410914 29.30763596410914 29.338399560520052 29.30763596410914 29.338399560520052 29.30763596410914 29.30763596410914 29.30763596410914 29.30763596410914 29.30763596410914 29.30763596410914 29.30763596410914 29.30763596410914 29.30763596410914 29.30763596410914 29.30763596410914 29.30763596410914 29.30763596410914 29.30763596410914 29.338399560520052 29.30763596410914 29.30763596410914 29.30763596410914 29.30763596410914 29.30763596410914 29.30763596410914 29.30763596410914 29.30763596410914 29.30763596410914 29.30763596410914 29.30763596410914 29.30763596410914 29.30763596410914 29.30763596410914 29.30763596410914 29.30763596410914 29.30763596410914 29.30763596410914 29.30763596410914 29.30763596410914 29.30763596410914 29.30763596410914 29.30763596410914 29.30763596410914 29.30763596410914 29.30763596410914 29.30763596410914 29.30763596410914 29.30763596410914 29.30763596410914 29.30763596410914 29.30763596410914 29.30763596410914 29.30763596410914 29.30763596410914 29.30763596410914 29.30763596410914 29.30763596410914 29.30763596410914 29.30763596410914 29.30763596410914 29.30763596410914 29.30763596410914 29.30763596410914 29.30763596410914 29.30763596410914 29.30763596410914 29.30763596410914 29.30763596410914 29.30763596410914 29.30763596410914 29.30763596410914 29.30763596410914 29.30763596410914 29.30763596410914 29.30763596410914 29.30763596410914 29.30763596410914 29.30763596410914 29.30763596410914 29.30763596410914 29.30763596410914 29.30763596410914 29.30763596410914 29.30763596410914 29.30763596410914 29.30763596410914 29.30763596410914 29.30763596410914 29.30763596410914 29.30763596410914 29.30763596410914 29.30763596410914 29.30763596410914 29.30763596410914 29.30763596410914 29.30763596410914 29.30763596410914 29.30763596410914 29.30763596410914 29.30763596410914 29.30763596410914 29.30763596410914 29.30763596410914 29.30763596410914 29.30763596410914 29.30763596410914 29.30763596410914 29.30763596410914 29.30763596410914 29.30763596410914 29.30763596410914 29.30763596410914 29.30763596410914 29.30763596410914 29.30763596410914 29.30763596410914 29.30763596410914 29.30763596410914 29.30763596410914 29.30763596410914 29.30763596410914 29.30763596410914 29.30763596410914 29.30763596410914 29.30763596410914 29.30763596410914 29.30763596410914 29.30763596410914 29.30763596410914 29.30763596410914 29.30763596410914 29.30763596410914 29.30763596410914 29.30763596410914 29.30763596410914 29.30763596410914 29.30763596410914 29.30763596410914 29.30763596410914 29.30763596410914 29.30763596410914 29.30763596410914 29.30763596410914 29.30763596410914 29.30763596410914 29.30763596410914 29.30763596410914 29.30763596410914 29.30763596410914 29.30763596410914 29.30763596410914 29.30763596410914 29.30763596410914 29.30763596410914 29.30763596410914 29.30763596410914 29.30763596410914 29.30763596410914 29.30763596410914 29.30763596410914 29.30763596410914 29.30763596410914 29.30763596410914 29.30763596410914 29.30763596410914 29.30763596410914 29.30763596410914 29.30763596410914 29.30763596410914 29.30763596410914 29.30763596410914 29.30763596410914 29.30763596410914 29.30763596410914 29.30763596410914 29.30763596410914 29.30763596410914 29.30763596410914 29.30763596410914 29.30763596410914 29.30763596410914 29.30763596410914 29.30763596410914 29.30763596410914 29.30763596410914 29.30763596410914 29.30763596410914 29.30763596410914 29.30763596410914 29.30763596410914 29.30763596410914 29.30763596410914 29.30763596410914 29.30763596410914 29.30763596410914 29.30763596410914 29.30763596410914 29.338399560520052 29.30763596410914 29.30763596410914 29.30763596410914 29.338399560520052 29.30763596410914 29.30763596410914 29.30763596410914 29.30763596410914 29.30763596410914 29.30763596410914 29.30763596410914 29.30763596410914 29.30763596410914 29.30763596410914 29.30763596410914 29.30763596410914 29.30763596410914 29.30763596410914 29.30763596410914 29.30763596410914 29.30763596410914 29.30763596410914 29.30763596410914 29.30763596410914 29.30763596410914 29.30763596410914 29.30763596410914 29.30763596410914 29.30763596410914 29.30763596410914 29.30763596410914 29.30763596410914 29.30763596410914 29.30763596410914 29.30763596410914 29.30763596410914 29.30763596410914 29.30763596410914 29.338399560520052 29.30763596410914 29.30763596410914 29.30763596410914 29.30763596410914 29.30763596410914 29.30763596410914 29.30763596410914 29.30763596410914 29.30763596410914 29.30763596410914 29.30763596410914 29.30763596410914 29.30763596410914 29.30763596410914 29.30763596410914 29.30763596410914 29.30763596410914 29.30763596410914 29.30763596410914 29.30763596410914 29.30763596410914 29.30763596410914 29.30763596410914 29.30763596410914 29.30763596410914 29.30763596410914 29.30763596410914 29.30763596410914 29.30763596410914 29.30763596410914 29.30763596410914 29.30763596410914 29.30763596410914 29.30763596410914 29.30763596410914 29.30763596410914 29.30763596410914 29.30763596410914 29.30763596410914 29.30763596410914 29.338399560520052 29.30763596410914 29.30763596410914 29.30763596410914 29.30763596410914 29.30763596410914 29.30763596410914 29.30763596410914 29.30763596410914 29.30763596410914 29.30763596410914 29.30763596410914 29.30763596410914 29.30763596410914 29.30763596410914 29.30763596410914 29.30763596410914 29.30763596410914 29.30763596410914 29.30763596410914 29.30763596410914 29.30763596410914 29.30763596410914 29.30763596410914 29.30763596410914 29.30763596410914 29.30763596410914 29.30763596410914 29.30763596410914 29.30763596410914 29.30763596410914 29.30763596410914 29.30763596410914 29.30763596410914 29.30763596410914 29.30763596410914 29.30763596410914 29.30763596410914 29.30763596410914 29.30763596410914 29.30763596410914 29.30763596410914 29.30763596410914 29.30763596410914 29.30763596410914 29.30763596410914 29.30763596410914 29.30763596410914 29.30763596410914 29.30763596410914 29.30763596410914 29.30763596410914 29.30763596410914 29.30763596410914 29.30763596410914 29.30763596410914 29.30763596410914 29.30763596410914 29.30763596410914 29.30763596410914 29.30763596410914 29.30763596410914 29.30763596410914 29.30763596410914 29.30763596410914 29.30763596410914 29.30763596410914 29.30763596410914 29.30763596410914 29.30763596410914 29.338399560520052 29.30763596410914 29.30763596410914 29.30763596410914 29.30763596410914 29.30763596410914 29.30763596410914 29.30763596410914 29.30763596410914 29.30763596410914 29.30763596410914 29.30763596410914 29.30763596410914 29.30763596410914 29.30763596410914 29.30763596410914 29.30763596410914 29.30763596410914 29.30763596410914 29.30763596410914 29.30763596410914 29.30763596410914 29.30763596410914 29.30763596410914 29.30763596410914 29.30763596410914 29.30763596410914 29.30763596410914 29.30763596410914 29.30763596410914 29.30763596410914 29.30763596410914 29.30763596410914 29.30763596410914 29.30763596410914 29.30763596410914 29.30763596410914 29.30763596410914 29.30763596410914 29.30763596410914 29.30763596410914 29.30763596410914 29.30763596410914 29.30763596410914 29.30763596410914 29.30763596410914 29.30763596410914 29.30763596410914 29.30763596410914 29.30763596410914 29.30763596410914 29.30763596410914 29.30763596410914 29.30763596410914 29.30763596410914 29.30763596410914 29.30763596410914 29.30763596410914 29.30763596410914 29.30763596410914 29.30763596410914 29.30763596410914 29.30763596410914 29.30763596410914 29.30763596410914 29.30763596410914 29.30763596410914 29.30763596410914 29.30763596410914 29.30763596410914 29.30763596410914 29.30763596410914 29.30763596410914 29.30763596410914 29.30763596410914 29.30763596410914 29.30763596410914 29.30763596410914 29.30763596410914 29.30763596410914 29.30763596410914 29.30763596410914 29.30763596410914 29.30763596410914 29.30763596410914 29.30763596410914 29.30763596410914 29.30763596410914 29.30763596410914 29.30763596410914 29.30763596410914 29.30763596410914 29.30763596410914 29.30763596410914 29.30763596410914 29.30763596410914 29.30763596410914 29.30763596410914 29.30763596410914 29.30763596410914 29.30763596410914 29.30763596410914 29.30763596410914 29.30763596410914 29.30763596410914 29.30763596410914 29.30763596410914 29.30763596410914 29.30763596410914 29.30763596410914 29.30763596410914 29.30763596410914 29.30763596410914 29.30763596410914 29.30763596410914 29.30763596410914 29.30763596410914 29.30763596410914 29.30763596410914 29.30763596410914 29.30763596410914 29.30763596410914 29.30763596410914 29.30763596410914 29.30763596410914 29.30763596410914 29.30763596410914 29.30763596410914 29.30763596410914 29.276872367698225 29.30763596410914 29.276872367698225 29.276872367698225 29.30763596410914 29.276872367698225 29.276872367698225 29.276872367698225 29.276872367698225 29.276872367698225 29.276872367698225 29.276872367698225 29.276872367698225 29.276872367698225 29.276872367698225 29.276872367698225 29.276872367698225 29.276872367698225 29.276872367698225 29.276872367698225 29.276872367698225 29.276872367698225 29.276872367698225 29.276872367698225 29.276872367698225 29.276872367698225 29.276872367698225 29.276872367698225 29.276872367698225 29.30763596410914 29.30763596410914 29.276872367698225 29.276872367698225 29.276872367698225 29.276872367698225 29.276872367698225 29.30763596410914 29.276872367698225 29.276872367698225 29.276872367698225 29.276872367698225 29.276872367698225 29.276872367698225 29.276872367698225 29.276872367698225 29.276872367698225 29.276872367698225 29.276872367698225 29.276872367698225 29.276872367698225 29.276872367698225 29.276872367698225 29.276872367698225 29.30763596410914 29.276872367698225 29.276872367698225 29.276872367698225 29.276872367698225 29.276872367698225 29.276872367698225 29.276872367698225 29.276872367698225 29.276872367698225 29.276872367698225 29.276872367698225 29.276872367698225 29.276872367698225 29.276872367698225 29.276872367698225 29.276872367698225 29.276872367698225 29.276872367698225 29.276872367698225 29.276872367698225 29.276872367698225 29.276872367698225 29.276872367698225 29.276872367698225 29.276872367698225 29.276872367698225 29.276872367698225 29.276872367698225 29.276872367698225 29.276872367698225 29.276872367698225 29.276872367698225 29.276872367698225 29.276872367698225 29.276872367698225 29.276872367698225 29.276872367698225 29.276872367698225 29.276872367698225 29.276872367698225 29.276872367698225 29.276872367698225 29.30763596410914 29.276872367698225 29.276872367698225 29.276872367698225 29.276872367698225 29.276872367698225 29.276872367698225 29.276872367698225 29.276872367698225 29.276872367698225 29.276872367698225 29.276872367698225 29.276872367698225 29.276872367698225 29.276872367698225 29.276872367698225 29.276872367698225 29.276872367698225 29.276872367698225 29.276872367698225 29.276872367698225 29.276872367698225 29.276872367698225 29.276872367698225 29.276872367698225 29.276872367698225 29.276872367698225 29.276872367698225 29.276872367698225 29.276872367698225 29.276872367698225 29.276872367698225 29.276872367698225 29.276872367698225 29.276872367698225 29.276872367698225 29.276872367698225 29.276872367698225 29.276872367698225 29.24610877128731 29.24610877128731 29.24610877128731 29.24610877128731 29.24610877128731 29.24610877128731 29.24610877128731 29.24610877128731 29.215345174876397 29.24610877128731 29.215345174876397 29.215345174876397 29.215345174876397 29.215345174876397 29.215345174876397 29.215345174876397 29.215345174876397 29.215345174876397 29.215345174876397 29.215345174876397 29.215345174876397 29.215345174876397 29.215345174876397 29.215345174876397 29.215345174876397 29.215345174876397 29.215345174876397 29.215345174876397 29.215345174876397 29.215345174876397 29.215345174876397 29.215345174876397 29.215345174876397 29.215345174876397 29.215345174876397 29.215345174876397 29.215345174876397 29.215345174876397 29.215345174876397 29.24610877128731 29.215345174876397 29.24610877128731 29.215345174876397 29.24610877128731 29.24610877128731 29.24610877128731 29.24610877128731 29.24610877128731 29.24610877128731 29.24610877128731 29.24610877128731 29.24610877128731 29.276872367698225 29.30763596410914 29.430690349752794 29.461453946163708 29.522981138985532 29.58450833180736 29.707562717451015 29.799853506683757 29.861380699505585 29.8921442959165 29.98443508514924 30.07672587438198 30.13825306720381 30.199780260025637 30.261307452847465 30.29207104925838 30.38436183849112 30.445889031312948 30.507416224134772 30.599707013367514 30.66123420618934 30.753524995422083 30.81505218824391 30.938106573887566 31.153451748763963 31.307269730818533 31.430324116462188 31.55337850210584 31.676432887749495 31.86101446621498 32.014832448269544 32.107123237502286 32.32246841237868 32.47628639443325 32.660867972898735 32.84544955136422 33.12232191906244 33.39919428676067 33.64530305804798 33.922175425746204 34.16828419703351 34.383629371909905 34.66050173960813 34.84508331807361 35.12195568577184 35.39882805347006 35.61417322834646 35.9218091924556 36.352499542208385 36.62937190990661 36.96777147042666 37.09082585607032 37.42922541659037 37.73686138069951 38.04449734480864 38.38289690532869 38.69053286943783 38.93664164072514 39.21351400842337 39.45962277971067 39.70573155099798 40.136421900750776 40.413294268449 40.75169382896905 41.05932979307819 41.336202160776416 41.705365317707376 42.105292071049256 42.412928035158394 42.812854788500275 43.18201794543124 43.48965390954038 43.88958066288225 44.32027101263505 44.72019776597693 44.96630653726424 45.27394250137337 45.643105658304336 45.88921442959165 46.442959164988096 46.81212232191906 47.08899468961728 47.45815784654825 47.73503021424648 48.104193371177445 48.62717451016297 48.780992492217536 49.18091924555942 49.642373191723124 49.980772752243176 50.442226698406884 50.934444240981506 51.39589818714521 51.703534151254345 52.0419337117744 52.411096868705364 52.718732832814496 53.14942318256729 53.73393151437466 54.01080388207288 54.34920344259293 54.68760300311298 54.90294817798937 55.27211133492034 55.45669291338582 55.70280168467313 56.01043764878227 56.225782823658676 56.59494598058963 56.964109137520595 57.27174510162973 57.67167185497162 57.94854422266984 58.34847097601172 58.7483977293536 59.05603369346274 59.67130562168101 59.978941585790146 60.3173411463102 60.686504303241165 60.994140267350296 61.57864859915766 61.855520966855885 62.31697491301959 62.716901666361466 63.08606482329243 63.48599157663431 63.88591832997619 64.19355429408533 64.62424464383813 65.0549349935909 65.33180736128914 65.82402490386376 66.25471525361655 66.56235121772569 66.99304156747849 67.2391503387658 67.66984068851858 68.13129463468229 68.3774034059696 68.56198498443507 68.90038454495513 69.11572971983153 69.39260208752975 69.70023805163889 69.91558322651528 70.10016480498078 70.22321919062442 70.4078007690899 70.56161875114448 70.71543673319906 70.86925471525362 70.96154550448635 71.05383629371909 71.17689067936274 71.23841787218458 71.39223585423915 71.45376304706097 71.60758102911555 71.76139901117011 71.88445339681377 72.06903497527925 72.22285295733383 72.28438015015564 72.37667093938839 72.43819813221022 72.49972532503205 72.56125251785386 72.5920161142648 72.6227797106757 72.6227797106757 72.6227797106757 72.6227797106757 72.6227797106757 72.6227797106757 72.6227797106757 72.6227797106757 72.6227797106757 72.6227797106757 72.6227797106757 72.6227797106757 72.6227797106757 72.5920161142648 72.6227797106757 72.6227797106757 72.5920161142648 72.5920161142648 72.5920161142648 72.56125251785386 72.56125251785386 72.56125251785386 72.56125251785386 72.56125251785386 72.56125251785386 72.56125251785386 72.53048892144295 72.53048892144295 72.49972532503205 72.49972532503205 72.46896172862114 72.49972532503205 72.43819813221022 72.43819813221022 72.4074345357993 72.37667093938839 72.34590734297747 72.31514374656656 72.31514374656656 72.31514374656656 72.28438015015564 72.25361655374473 72.19208936092289 72.13056216810108 72.09979857169017 72.09979857169017 72.09979857169017 72.09979857169017 72.09979857169017 72.09979857169017 72.09979857169017 72.03827137886833 72.00750778245742 71.9459805896356 71.91521699322467 71.88445339681377 71.85368980040286 71.85368980040286 71.82292620399194 71.76139901117011 71.7306354147592 71.69987181834829 71.66910822193736 71.66910822193736 71.63834462552646 71.60758102911555 71.60758102911555 71.54605383629371 71.54605383629371 71.5152902398828 71.4845266434719 71.45376304706097 71.42299945065005 71.42299945065005 71.42299945065005 71.42299945065005 71.42299945065005 71.39223585423915 71.42299945065005 71.39223585423915 71.39223585423915 71.39223585423915 71.39223585423915 71.39223585423915 71.39223585423915 71.42299945065005 71.39223585423915 71.42299945065005 71.39223585423915 71.39223585423915 71.39223585423915 71.39223585423915 71.39223585423915 71.39223585423915 71.39223585423915 71.36147225782824 71.36147225782824 71.33070866141732 71.33070866141732 71.33070866141732 71.33070866141732 71.2999450650064 71.26918146859549 71.26918146859549 71.26918146859549 71.23841787218458 71.23841787218458 71.20765427577366 71.17689067936274 71.17689067936274 71.17689067936274 71.14612708295184 71.14612708295184 71.14612708295184 71.17689067936274 71.14612708295184 71.14612708295184 71.14612708295184 71.17689067936274 71.14612708295184 71.14612708295184 71.14612708295184 71.14612708295184 71.14612708295184 71.14612708295184 71.14612708295184 71.14612708295184 71.14612708295184 71.14612708295184 71.14612708295184 71.14612708295184 71.14612708295184 71.14612708295184 71.11536348654093 71.08459989013001 71.02307269730818 70.99230910089727 70.96154550448635 70.90001831166452 70.8384911188427 70.80772752243178 70.77696392602087 70.77696392602087 70.71543673319906 70.68467313678812 70.68467313678812 70.65390954037721 70.65390954037721 70.65390954037721 70.65390954037721 70.65390954037721 70.65390954037721 70.65390954037721 70.6231459439663 70.6231459439663 70.6231459439663 70.6231459439663 70.59238234755539 70.59238234755539 70.59238234755539 70.56161875114448 70.56161875114448 70.53085515473356 70.50009155832265 70.43856436550081 70.4078007690899 70.377037172679 70.31550997985717 70.25398278703534 70.25398278703534 70.22321919062442 70.19245559421351 70.16169199780259 70.13092840139169 70.10016480498078 70.10016480498078 70.10016480498078 70.06940120856986 70.06940120856986 70.10016480498078 70.10016480498078 70.06940120856986 70.06940120856986 70.03863761215894 70.03863761215894 70.03863761215894 70.00787401574803 70.00787401574803 70.00787401574803 70.00787401574803 70.00787401574803 69.97711041933712 69.97711041933712 69.9463468229262 69.9463468229262 