25.0 25.021973997436366 25.021973997436366 25.021973997436366 25.021973997436366 25.021973997436366 25.021973997436366 25.021973997436366 25.021973997436366 25.021973997436366 25.021973997436366 25.021973997436366 25.021973997436366 25.021973997436366 25.021973997436366 25.021973997436366 25.021973997436366 25.021973997436366 25.021973997436366 25.021973997436366 25.021973997436366 25.021973997436366 25.021973997436366 25.021973997436366 25.021973997436366 25.021973997436366 25.021973997436366 25.021973997436366 25.021973997436366 25.021973997436366 25.021973997436366 25.0 25.021973997436366 25.021973997436366 25.021973997436366 25.021973997436366 25.021973997436366 25.021973997436366 25.021973997436366 25.021973997436366 25.021973997436366 25.0 25.0 25.0 25.0 25.021973997436366 25.021973997436366 25.021973997436366 25.021973997436366 25.021973997436366 25.021973997436366 25.021973997436366 25.021973997436366 25.021973997436366 25.021973997436366 25.021973997436366 25.021973997436366 25.0 25.021973997436366 25.021973997436366 25.021973997436366 25.021973997436366 25.021973997436366 25.021973997436366 25.021973997436366 25.021973997436366 25.021973997436366 25.021973997436366 25.0 25.021973997436366 25.021973997436366 25.021973997436366 25.021973997436366 25.021973997436366 25.021973997436366 25.021973997436366 25.021973997436366 25.021973997436366 25.021973997436366 25.021973997436366 25.0 25.021973997436366 25.021973997436366 25.021973997436366 25.021973997436366 25.021973997436366 25.021973997436366 25.021973997436366 25.021973997436366 25.021973997436366 25.021973997436366 25.0 25.021973997436366 25.021973997436366 25.021973997436366 25.021973997436366 25.021973997436366 25.021973997436366 25.021973997436366 25.021973997436366 25.021973997436366 25.021973997436366 25.021973997436366 25.021973997436366 25.021973997436366 25.021973997436366 25.021973997436366 25.021973997436366 25.021973997436366 25.021973997436366 25.043947994872735 25.021973997436366 25.021973997436366 25.021973997436366 25.021973997436366 25.021973997436366 25.021973997436366 25.021973997436366 25.021973997436366 25.021973997436366 25.021973997436366 25.021973997436366 25.021973997436366 25.021973997436366 25.021973997436366 25.021973997436366 25.021973997436366 25.021973997436366 25.021973997436366 25.021973997436366 25.021973997436366 25.021973997436366 25.021973997436366 25.021973997436366 25.021973997436366 25.021973997436366 25.021973997436366 25.0 25.021973997436366 25.021973997436366 25.021973997436366 25.021973997436366 25.021973997436366 25.021973997436366 25.021973997436366 25.021973997436366 25.021973997436366 25.021973997436366 25.021973997436366 25.021973997436366 25.021973997436366 25.021973997436366 25.021973997436366 25.021973997436366 25.021973997436366 25.021973997436366 25.021973997436366 25.021973997436366 25.021973997436366 25.021973997436366 25.021973997436366 25.021973997436366 25.021973997436366 25.021973997436366 25.021973997436366 25.021973997436366 25.021973997436366 25.021973997436366 25.043947994872735 25.021973997436366 25.021973997436366 25.021973997436366 25.043947994872735 25.021973997436366 25.021973997436366 25.021973997436366 25.021973997436366 25.043947994872735 25.021973997436366 25.021973997436366 25.021973997436366 25.021973997436366 25.021973997436366 25.021973997436366 25.021973997436366 25.021973997436366 25.021973997436366 25.021973997436366 25.021973997436366 25.021973997436366 25.021973997436366 25.021973997436366 25.021973997436366 25.021973997436366 25.021973997436366 25.021973997436366 25.021973997436366 25.021973997436366 25.021973997436366 25.021973997436366 25.021973997436366 25.021973997436366 25.021973997436366 25.021973997436366 25.021973997436366 25.021973997436366 25.021973997436366 25.021973997436366 25.021973997436366 25.021973997436366 25.021973997436366 25.021973997436366 25.021973997436366 25.021973997436366 25.021973997436366 25.0 25.021973997436366 25.0 25.0 25.0 25.0 25.0 25.0 25.0 25.0 25.0 25.0 25.0 25.0 25.0 25.021973997436366 25.0 25.0 25.0 25.0 25.0 25.0 25.0 25.0 25.0 25.021973997436366 25.0 25.0 25.0 25.0 25.021973997436366 25.0 25.0 25.0 25.0 25.021973997436366 25.0 25.0 25.021973997436366 25.021973997436366 25.021973997436366 25.021973997436366 25.021973997436366 25.0 25.0 25.0 25.021973997436366 25.0 25.021973997436366 25.0 25.021973997436366 25.0 25.0 25.0 25.0 25.0 25.0 25.0 25.0 25.0 25.0 25.0 25.0 24.978026002563634 25.0 25.0 24.978026002563634 25.0 25.0 25.0 25.0 25.0 25.0 25.0 25.0 25.0 25.0 25.0 25.0 25.0 25.0 25.0 25.0 25.021973997436366 25.0 25.021973997436366 25.0 25.021973997436366 25.021973997436366 25.021973997436366 25.021973997436366 25.021973997436366 25.021973997436366 25.021973997436366 25.021973997436366 25.021973997436366 25.021973997436366 25.021973997436366 25.021973997436366 25.021973997436366 25.021973997436366 25.0 25.0 25.021973997436366 25.0 25.0 25.0 25.0 25.0 25.0 25.0 25.0 25.0 25.0 25.0 25.0 24.978026002563634 24.978026002563634 24.978026002563634 24.978026002563634 24.978026002563634 24.978026002563634 24.978026002563634 24.978026002563634 24.978026002563634 24.978026002563634 24.978026002563634 24.978026002563634 24.978026002563634 24.978026002563634 24.978026002563634 24.978026002563634 24.978026002563634 24.978026002563634 25.0 25.0 24.978026002563634 24.978026002563634 25.0 25.0 25.0 25.0 25.0 25.0 25.0 25.0 25.0 25.021973997436366 25.021973997436366 25.0 25.021973997436366 25.0 25.021973997436366 25.021973997436366 25.021973997436366 25.0 25.021973997436366 25.0 25.021973997436366 25.021973997436366 25.021973997436366 25.021973997436366 25.021973997436366 25.021973997436366 25.021973997436366 25.021973997436366 25.0 25.0 25.0 25.0 25.0 24.978026002563634 24.978026002563634 24.978026002563634 24.978026002563634 25.0 24.978026002563634 24.978026002563634 24.978026002563634 24.978026002563634 24.978026002563634 24.978026002563634 24.978026002563634 24.978026002563634 24.978026002563634 24.978026002563634 24.978026002563634 24.978026002563634 24.978026002563634 24.978026002563634 24.956052005127265 24.978026002563634 24.978026002563634 24.978026002563634 24.978026002563634 24.978026002563634 24.978026002563634 24.978026002563634 24.978026002563634 24.978026002563634 24.978026002563634 24.978026002563634 24.978026002563634 24.978026002563634 24.978026002563634 24.978026002563634 24.978026002563634 24.978026002563634 24.978026002563634 24.978026002563634 24.978026002563634 24.978026002563634 24.978026002563634 24.978026002563634 24.978026002563634 24.978026002563634 24.978026002563634 24.978026002563634 24.978026002563634 24.978026002563634 24.978026002563634 24.978026002563634 24.978026002563634 24.978026002563634 24.978026002563634 24.978026002563634 24.978026002563634 24.978026002563634 24.978026002563634 24.978026002563634 24.956052005127265 24.978026002563634 24.978026002563634 24.978026002563634 24.956052005127265 24.978026002563634 24.956052005127265 24.956052005127265 24.956052005127265 24.978026002563634 24.978026002563634 24.978026002563634 24.978026002563634 24.956052005127265 24.956052005127265 24.956052005127265 24.956052005127265 24.956052005127265 24.956052005127265 24.956052005127265 24.956052005127265 24.956052005127265 24.956052005127265 24.956052005127265 24.956052005127265 24.956052005127265 24.956052005127265 24.956052005127265 24.956052005127265 24.956052005127265 24.956052005127265 24.956052005127265 24.956052005127265 24.956052005127265 24.956052005127265 24.956052005127265 24.956052005127265 24.956052005127265 24.956052005127265 24.956052005127265 24.956052005127265 24.978026002563634 24.956052005127265 24.978026002563634 24.956052005127265 24.956052005127265 24.978026002563634 24.956052005127265 24.978026002563634 24.978026002563634 24.978026002563634 24.978026002563634 24.978026002563634 24.978026002563634 24.978026002563634 24.978026002563634 24.978026002563634 24.978026002563634 24.978026002563634 24.978026002563634 24.978026002563634 24.978026002563634 24.978026002563634 24.978026002563634 24.978026002563634 24.978026002563634 24.978026002563634 24.978026002563634 24.978026002563634 24.978026002563634 24.978026002563634 24.978026002563634 25.0 25.0 24.978026002563634 25.0 24.978026002563634 25.0 25.0 25.0 25.0 25.0 25.0 25.0 25.0 25.0 25.0 25.0 25.0 25.0 24.978026002563634 25.0 25.0 25.0 25.0 25.0 25.0 25.0 25.0 25.0 25.0 25.0 25.0 25.0 25.0 25.0 25.0 25.0 25.0 25.0 25.0 25.0 25.0 25.0 25.0 25.0 25.0 25.021973997436366 25.021973997436366 25.021973997436366 25.021973997436366 25.021973997436366 25.021973997436366 25.021973997436366 25.021973997436366 25.021973997436366 25.021973997436366 25.021973997436366 25.021973997436366 25.021973997436366 25.021973997436366 25.043947994872735 25.043947994872735 25.043947994872735 25.043947994872735 25.043947994872735 25.0659219923091 25.0659219923091 25.08789598974547 25.08789598974547 25.109869987181835 25.1318439846182 25.15381798205457 25.197765976927304 25.21973997436367 25.263687969236404 25.30763596410914 25.35158395898187 25.395531953854604 25.43947994872734 25.50540194103644 25.593297930781908 25.703167917963743 25.813037905145578 25.944881889763778 26.098699871818347 26.29646584874565 26.58212781541842 26.911737776963925 27.263321735945798 27.702801684673137 28.16425563083684 28.62570957700055 29.131111518036988 29.61453946163706 30.14191540010987 30.669291338582678 31.21864127449185 31.81193920527376 32.3173411463102 32.95458707196484 33.503937007874015 34.09723493865592 34.69053286943783 35.32777879509247 35.96502472074712 36.646218641274494 37.28346456692913 37.96465848745651 38.62387841054752 39.28309833363853 39.964292254165905 40.71140816700238 41.50247207471159 42.31550997985717 43.172495879875484 44.007507782457424 44.90844167734847 45.69950558505768 46.490569492766895 47.36952939022157 48.22651529023988 49.03955319538546 49.89653909540377 50.709577000549345 51.52261490569492 52.22578282365867 52.95092473905878 53.61014466214979 54.29133858267717 54.90661051089544 55.56583043398645 56.22505035707746 56.9282182750412 57.67533418787768 58.44442409815052 59.23548800585973 60.004577916132575 60.75169382896905 61.5207837392419 62.28987364951474 62.88317158029665 63.718183482878594 64.55319538546054 65.34425929316976 66.20124519318806 67.08020509064274 68.06903497527925 68.92602087529757 69.84892876762498 70.74986266251602 71.73869254715254 72.57370444973449 73.47463834462553 74.33162424464385 75.12268815235305 75.93572605749863 76.63889397546237 77.34206189342612 78.06720380882624 78.79234572422632 79.38564365500824 80.00091558322652 80.55026551913569 81.1435634499176 81.71488738326315 82.33015931148142 82.92345724226331 83.45083318073613 84.02215711408166 84.54953305255447 85.01098699871818 85.58231093206373 86.15363486540927 86.70298480131844 87.27430873466398 87.84563266800953 88.41695660135505 88.9882805347006 89.49368247573705 89.91118842702802 90.24079838857352 90.52646035524629 90.7242263321736 90.81212232191906 90.83409631935542 90.83409631935542 90.74620032960996 90.4605383629372 90.24079838857352 89.91118842702802 89.16407251419155 88.57077458340964 88.06537264237319 87.14246475004578 86.70298480131844 86.04376487822742 85.38454495513642 84.1320271012635 83.40688518586339 82.46200329609962 81.75883537813587 80.63816150888115 79.89104559604468 78.6165537447354 77.53982787035342 76.83665995238968 75.67203808826221 74.59531221388025 73.8262223036074 72.31001648049809 71.2992125984252 70.24446072147958 69.47537081120674 68.66233290606115 67.58560703167919 66.42098516755172 65.38820728804248 64.3774034059696 63.322651529023986 62.64145760849661 61.5207837392419 60.729719831532684 59.652993957150706 58.77403405969603 57.76323017762314 56.664530305804796 55.82951840322285 54.57700054934993 53.434352682658854 52.68723676982238 51.6105108954404 50.84142098516755 49.808643105658305 48.81981322102179 47.83098333638527 46.842153451748764 46.16095953122139 45.61160959531222 44.4909357260575 43.831715802966485 42.68906793627541 41.94195202343893 41.37062809009339 40.667460172129644 39.8324482695477 39.28309833363853 38.57993041567478 38.07452847463834 37.5032045412928 36.953854605383626 36.624244643838125 36.118842702801686 35.65738875663798 35.37172678996521 34.93224684123787 34.58066288225599 33.943416956601354 33.54788500274675 33.218275041201245 32.84471708478301 32.4491851309284 32.27339315143747 31.74601721296466 31.482329243728255 31.108771287310017 30.735213330891778 30.44955136421901 30.185863394982604 29.8562534334371 29.63651345907343 29.372825489837027 29.175059512909723 28.933345541109688 28.71360556674602 28.449917597509614 28.230177623145945 28.12030763596411 27.90056766160044 27.636879692364037 27.417139718000367 27.153451748763963 27.04358176158213 26.999633766709394 26.95568577183666 26.933711774400294 26.911737776963925 26.911737776963925 26.911737776963925 26.911737776963925 26.911737776963925 26.88976377952756 26.88976377952756 26.867789782091194 26.845815784654825 26.845815784654825 26.80186778978209 26.779893792345725 26.757919794909355 26.713971800036624 26.691997802600255 26.67002380516389 26.626075810291155 26.58212781541842 26.560153817982055 26.51620582310932 26.494231825672955 26.45028383080022 26.42830983336385 26.38436183849112 26.340413843618386 26.29646584874565 26.274491851309286 26.252517853872916 26.208569859000182 26.164621864127447 26.120673869254716 26.098699871818347 26.032777879509247 25.988829884636512 25.966855887200147 25.922907892327412 25.900933894891047 25.900933894891047 25.878959897454678 25.856985900018312 25.813037905145578 25.791063907709212 25.769089910272843 25.72514191540011 25.703167917963743 25.637245925654643 25.615271928218274 25.593297930781908 25.571323933345543 25.549349935909174 25.549349935909174 25.527375938472808 25.50540194103644 25.483427943600073 25.483427943600073 25.461453946163708 25.461453946163708 25.43947994872734 25.43947994872734 25.417505951290973 25.417505951290973 25.417505951290973 25.417505951290973 25.417505951290973 25.395531953854604 25.395531953854604 25.395531953854604 25.395531953854604 25.37355795641824 25.37355795641824 25.37355795641824 25.37355795641824 25.37355795641824 25.37355795641824 25.37355795641824 25.37355795641824 25.37355795641824 25.35158395898187 25.35158395898187 25.35158395898187 25.37355795641824 25.37355795641824 25.37355795641824 25.37355795641824 25.35158395898187 25.35158395898187 25.35158395898187 25.37355795641824 25.35158395898187 25.35158395898187 25.37355795641824 25.37355795641824 25.37355795641824 25.37355795641824 25.37355795641824 25.37355795641824 25.37355795641824 25.37355795641824 25.37355795641824 25.37355795641824 25.35158395898187 25.37355795641824 25.35158395898187 25.35158395898187 25.37355795641824 25.37355795641824 25.37355795641824 25.37355795641824 25.37355795641824 25.35158395898187 25.37355795641824 25.35158395898187 25.37355795641824 25.35158395898187 25.37355795641824 25.37355795641824 25.37355795641824 25.37355795641824 25.37355795641824 25.37355795641824 25.37355795641824 25.37355795641824 25.37355795641824 25.37355795641824 25.37355795641824 25.37355795641824 25.37355795641824 25.37355795641824 25.37355795641824 25.37355795641824 25.37355795641824 25.37355795641824 25.37355795641824 25.37355795641824 25.37355795641824 25.37355795641824 25.37355795641824 25.37355795641824 25.37355795641824 25.37355795641824 25.37355795641824 25.37355795641824 25.37355795641824 25.35158395898187 25.37355795641824 25.37355795641824 25.37355795641824 25.37355795641824 25.37355795641824 25.35158395898187 25.37355795641824 25.37355795641824 25.37355795641824 25.35158395898187 25.35158395898187 25.35158395898187 25.35158395898187 25.35158395898187 25.35158395898187 25.35158395898187 25.35158395898187 25.35158395898187 25.35158395898187 25.35158395898187 25.35158395898187 25.35158395898187 25.35158395898187 25.35158395898187 25.35158395898187 25.35158395898187 25.35158395898187 25.35158395898187 25.35158395898187 25.35158395898187 25.35158395898187 25.35158395898187 25.35158395898187 25.35158395898187 25.35158395898187 25.35158395898187 25.35158395898187 25.35158395898187 25.35158395898187 25.35158395898187 25.35158395898187 25.329609961545504 25.35158395898187 25.35158395898187 25.35158395898187 25.35158395898187 25.35158395898187 25.35158395898187 25.35158395898187 25.35158395898187 25.35158395898187 25.35158395898187 25.35158395898187 25.35158395898187 25.35158395898187 25.35158395898187 25.35158395898187 25.35158395898187 25.35158395898187 25.35158395898187 25.35158395898187 25.35158395898187 25.35158395898187 25.35158395898187 25.35158395898187 25.35158395898187 25.35158395898187 25.35158395898187 25.35158395898187 25.35158395898187 25.35158395898187 25.35158395898187 25.35158395898187 25.35158395898187 25.329609961545504 25.35158395898187 25.35158395898187 25.35158395898187 25.35158395898187 25.35158395898187 25.35158395898187 25.35158395898187 25.35158395898187 25.35158395898187 25.35158395898187 25.35158395898187 25.35158395898187 25.35158395898187 25.35158395898187 25.35158395898187 25.35158395898187 25.35158395898187 25.35158395898187 25.35158395898187 25.35158395898187 25.35158395898187 25.35158395898187 25.35158395898187 25.35158395898187 25.35158395898187 25.35158395898187 25.35158395898187 25.35158395898187 25.35158395898187 25.35158395898187 25.35158395898187 25.35158395898187 25.35158395898187 25.35158395898187 25.35158395898187 25.35158395898187 25.35158395898187 25.35158395898187 25.35158395898187 25.35158395898187 25.35158395898187 25.35158395898187 25.35158395898187 25.35158395898187 25.35158395898187 25.35158395898187 25.37355795641824 25.35158395898187 25.35158395898187 25.37355795641824 25.37355795641824 25.37355795641824 25.37355795641824 25.37355795641824 25.37355795641824 25.37355795641824 25.37355795641824 25.37355795641824 25.37355795641824 25.37355795641824 25.37355795641824 25.37355795641824 25.37355795641824 25.37355795641824 25.37355795641824 25.395531953854604 25.37355795641824 25.37355795641824 25.37355795641824 25.395531953854604 25.37355795641824 25.395531953854604 25.395531953854604 25.395531953854604 25.395531953854604 25.395531953854604 25.417505951290973 25.417505951290973 25.417505951290973 25.43947994872734 25.461453946163708 25.483427943600073 25.549349935909174 25.593297930781908 25.769089910272843 25.835011902581943 26.01080388207288 26.274491851309286 26.73594579747299 27.219373741073063 27.570957700054933 28.208203625709576 28.69163156930965 29.219007507782457 29.900201428309835 30.559421351400843 31.064823292437282 31.987731184764694 32.53708112067387 32.778795092473906 33.525911005310384 34.33894891045596 35.15198681560154 36.052920710492586 36.690166636147225 37.59110053103827 38.55795641823842 39.08533235671123 40.315876213147774 40.77733015931148 41.59036806445706 42.35945797472991 42.996703900384546 44.073429774766524 44.93041567478484 45.58963559787585 46.248855520966856 47.30360739791247 47.56729536714887 48.68796923640359 49.237319172312766 50.050357077458344 50.88536898004028 51.12708295184032 52.57736678264054 53.170664713422454 53.698040651895255 54.4671305621681 55.08240249038637 55.69767441860465 56.444790331441126 56.950192272477565 57.80717817249588 58.51034609045962 59.367331990477936 60.33418787767808 61.03735579564182 62.0481596777147 63.146859549533055 64.13568943416956 65.0366233290606 65.76176524446072 66.9044131111518 67.62955502655191 69.1018128547885 69.80498077275224 70.50814869071598 71.2992125984252 72.63962644204358 73.32082036257097 74.28767624977111 75.18861014466215 75.93572605749863 76.66086797289874 77.23219190624428 78.06720380882624 78.83629371909907 79.45156564731734 80.17670756271745 80.96777147042667 81.78080937557223 82.63779527559055 82.79161325764511 83.802417139718 84.43966306537266 85.07690899102728 85.7361289141183 86.3953488372093 86.87877678080937 87.47207471159129 87.84563266800953 88.30708661417323 88.6586705731551 88.83446255264604 89.01025453213697 89.09815052188245 89.09815052188245 89.07617652444607 89.07617652444607 89.07617652444607 88.87841054751877 88.76854056033693 88.52682658853689 88.30708661417323 87.99945065006409 87.64786669108221 87.34023072697309 87.03259476286395 86.5271928218275 86.15363486540927 85.3405969602637 84.65940303973632 84.17597509613624 83.42885918329976 82.85753524995422 82.02252334737227 81.23145943966307 80.61618751144479 79.78117560886285 79.20985167551731 78.33089177806264 77.42995788317158 76.83665995238968 75.65006409082585 75.05676616004395 74.44149423182567 73.67240432155283 73.14502838308002 72.33199047793445 71.18934261124336 70.57407068302508 69.73905878044314 69.03589086247939 68.37667093938839 67.58560703167919 66.53085515473356 65.49807727522432 64.5092473905878 63.74015748031496 62.72935359824208 61.74052371360557 61.05932979307819 59.82878593664164 59.16956601355063 58.55429408533236 57.87310016480498 57.060062259659404 56.26899835195019 55.69767441860465 55.12635048525911 54.335286577549894 53.434352682658854 52.64328877494964 51.91814685954954 51.01721296465848 50.160227064640175 48.97363120307636 48.81981322102179 47.69913935176707 47.10584142098517 46.314777513275956 45.50173960813038 44.97436366965757 44.205273759384724 43.414209851675515 42.842885918329976 42.05182201062077 41.23878410547519 40.535616187511444 40.052188243911374 39.546786302874935 38.79967039003846 37.59110053103827 37.129646584874564 36.646218641274494 36.20673869254715 35.72331074894708 35.23988280534701 35.0421168284197 34.53671488738326 34.31697491301959 34.11920893609229 33.789598974546784 33.54788500274675 33.39406702069218 33.196301043764876 33.04248306171031 32.800769089910276 32.60300311298297 32.3832631386193 32.09760117194653 31.87786119758286 31.37245925654642 30.998901300128182 30.735213330891778 30.405603369346274 30.22981138985534 29.9880974180553 29.76835744369163 29.592565464200696 29.306903497527927 29.175059512909723 29.065189525727888 28.955319538546053 28.867423548800588 28.71360556674602 28.47189159494598 28.27412561801868 27.922541659036806 27.570957700054933 27.329243728254898 27.219373741073063 27.10950375389123 27.065555759018494 26.999633766709394 26.97765976927303 26.95568577183666 26.933711774400294 26.933711774400294 26.933711774400294 26.911737776963925 26.911737776963925 26.911737776963925 26.911737776963925 26.911737776963925 26.88976377952756 26.88976377952756 26.88976377952756 26.88976377952756 26.88976377952756 26.867789782091194 26.88976377952756 26.867789782091194 26.867789782091194 26.867789782091194 26.867789782091194 26.867789782091194 26.82384178721846 26.845815784654825 26.82384178721846 26.82384178721846 26.82384178721846 26.82384178721846 26.82384178721846 26.82384178721846 26.82384178721846 26.82384178721846 26.82384178721846 26.82384178721846 26.82384178721846 26.82384178721846 26.80186778978209 26.80186778978209 26.80186778978209 26.80186778978209 26.82384178721846 26.80186778978209 26.80186778978209 26.80186778978209 26.779893792345725 26.779893792345725 26.779893792345725 26.779893792345725 26.779893792345725 26.779893792345725 26.779893792345725 26.779893792345725 26.779893792345725 26.779893792345725 26.779893792345725 26.779893792345725 26.779893792345725 26.779893792345725 26.779893792345725 26.779893792345725 26.779893792345725 26.779893792345725 26.779893792345725 26.779893792345725 26.779893792345725 26.779893792345725 26.779893792345725 26.779893792345725 26.779893792345725 26.779893792345725 26.779893792345725 26.779893792345725 26.779893792345725 26.779893792345725 26.779893792345725 26.779893792345725 26.779893792345725 26.779893792345725 26.779893792345725 26.779893792345725 26.779893792345725 26.779893792345725 26.779893792345725 26.779893792345725 26.779893792345725 26.779893792345725 26.779893792345725 26.779893792345725 26.779893792345725 26.779893792345725 26.779893792345725 26.779893792345725 26.757919794909355 26.779893792345725 26.779893792345725 26.779893792345725 26.779893792345725 26.779893792345725 26.757919794909355 26.757919794909355 26.757919794909355 26.757919794909355 26.757919794909355 26.757919794909355 26.757919794909355 26.779893792345725 26.779893792345725 26.757919794909355 26.779893792345725 26.779893792345725 26.757919794909355 26.779893792345725 26.757919794909355 26.779893792345725 26.757919794909355 26.779893792345725 26.779893792345725 26.779893792345725 26.779893792345725 26.757919794909355 26.757919794909355 26.779893792345725 26.757919794909355 26.779893792345725 26.779893792345725 26.779893792345725 26.779893792345725 26.779893792345725 26.779893792345725 26.779893792345725 26.757919794909355 26.779893792345725 26.757919794909355 26.757919794909355 26.779893792345725 26.779893792345725 26.779893792345725 26.757919794909355 26.757919794909355 26.757919794909355 26.757919794909355 26.757919794909355 26.757919794909355 26.757919794909355 26.757919794909355 26.757919794909355 26.757919794909355 26.757919794909355 26.757919794909355 26.757919794909355 26.757919794909355 26.757919794909355 26.73594579747299 26.73594579747299 26.73594579747299 26.73594579747299 26.73594579747299 26.73594579747299 26.73594579747299 26.73594579747299 26.73594579747299 26.73594579747299 26.73594579747299 26.73594579747299 26.73594579747299 26.73594579747299 26.73594579747299 26.73594579747299 26.73594579747299 26.73594579747299 26.73594579747299 26.713971800036624 26.73594579747299 26.73594579747299 26.73594579747299 26.713971800036624 26.73594579747299 26.73594579747299 26.73594579747299 26.73594579747299 26.73594579747299 26.73594579747299 26.73594579747299 26.73594579747299 26.713971800036624 26.73594579747299 26.73594579747299 26.73594579747299 26.73594579747299 26.73594579747299 26.73594579747299 26.73594579747299 26.73594579747299 26.73594579747299 26.73594579747299 26.73594579747299 26.73594579747299 26.73594579747299 26.73594579747299 26.73594579747299 26.73594579747299 26.73594579747299 26.73594579747299 26.73594579747299 26.73594579747299 26.73594579747299 26.73594579747299 26.73594579747299 26.73594579747299 26.73594579747299 26.73594579747299 26.73594579747299 26.73594579747299 26.73594579747299 26.73594579747299 26.73594579747299 26.73594579747299 26.73594579747299 26.713971800036624 26.713971800036624 26.713971800036624 26.713971800036624 26.713971800036624 26.691997802600255 26.691997802600255 26.691997802600255 26.691997802600255 26.691997802600255 26.691997802600255 26.691997802600255 26.691997802600255 26.691997802600255 26.691997802600255 26.691997802600255 26.691997802600255 26.67002380516389 26.691997802600255 26.691997802600255 26.691997802600255 26.67002380516389 26.691997802600255 26.67002380516389 26.67002380516389 26.67002380516389 26.67002380516389 26.67002380516389 26.691997802600255 26.67002380516389 26.691997802600255 26.67002380516389 26.67002380516389 26.691997802600255 26.691997802600255 26.691997802600255 26.67002380516389 26.67002380516389 26.691997802600255 26.691997802600255 26.67002380516389 26.67002380516389 26.67002380516389 26.67002380516389 26.67002380516389 26.691997802600255 26.67002380516389 26.67002380516389 26.67002380516389 26.67002380516389 26.67002380516389 26.67002380516389 26.67002380516389 26.67002380516389 26.67002380516389 26.67002380516389 26.67002380516389 26.691997802600255 26.691997802600255 26.691997802600255 26.691997802600255 26.713971800036624 26.73594579747299 26.73594579747299 26.80186778978209 26.88976377952756 26.97765976927303 27.153451748763963 27.307269730818533 27.570957700054933 27.87859366416407 28.12030763596411 28.53781358725508 28.999267533418788 29.284929500091557 29.76835744369163 30.097967405237135 30.625343343709943 31.28456326680095 32.07562717451016 32.5151071232375 33.020509064273945 33.723676982237684 34.58066288225599 35.54751876945615 36.07489470792895 37.063724592565464 37.78886650796557 38.79967039003846 39.788500274674966 40.33785021058414 41.45852407983885 42.44735396447537 43.414209851675515 43.941585790148324 44.5568577183666 45.50173960813038 46.66636147225783 46.952023438930595 47.80900933894891 48.33638527742171 49.105475187694566 50.116279069767444 50.379967039003844 51.34682292620399 52.006042849295 52.2697308185314 52.88500274674968 53.346456692913385 54.04962461087713 55.03845449551364 55.58780443142282 56.422816334004764 57.14795824940487 57.80717817249588 58.81798205456876 59.47720197765977 60.378135872550814 61.27906976744186 61.93828969053287 62.88317158029665 63.498443508514924 64.39937740340596 65.30031129829702 65.91558322651528 66.81651712140633 67.71745101629739 68.35469694195203 69.60721479582494 70.31038271378868 70.92565464200696 71.93645852407984 72.52975645486175 73.8262223036074 74.55136421900751 75.47427211133493 76.4850759934078 77.21021790880792 78.06720380882624 79.01208569859 79.69327961911739 80.63816150888115 81.53909540377221 82.50595129097235 83.2091192089361 83.84636513459074 84.50558505768174 85.31862296282733 85.84599890130013 86.63706280900934 87.45010071415491 88.15326863211865 88.63669657571873 89.18604651162791 90.17487639626442 90.90001831166454 91.49331624244644 92.04266617835562 92.63596410913752 93.0534700604285 93.60281999633767 93.99835195019227 94.45980589635599 94.98718183482879 95.36073979124703 95.86614173228347 96.28364768357443 96.5693096502472 97.07471159128364 97.27247756821096 97.49221754257462 97.77787950924738 97.88774949642922 97.9756454861747 97.99761948361106 97.9756454861747 97.8438015015565 97.5801135323201 97.29445156564732 96.70115363486542 96.28364768357443 95.29481779893793 94.72349386559239 93.80058597326497 92.74583409631936 91.97674418604652 90.81212232191906 89.64750045779161 88.7905145577733 87.55997070133675 86.68101080388207 85.42849295000916 84.15400109869987 82.74766526277239 81.2754074345358 80.24262955502655 79.34169566013551 77.91338582677164 76.7487639626442 75.45229811389855 73.54056033693463 72.55173045229812 71.18934261124336 70.22248672404322 69.32155282915217 68.09100897271563 66.42098516755172 65.62992125984252 64.26753341878776 63.300677531587624 61.9822376854056 60.70774583409632 59.76286394433254 58.40047610327779 57.43362021607764 56.07123237502289 54.18146859549533 53.61014466214979 52.1378868339132 50.99523896722212 50.226149056949275 49.237319172312766 48.86376121589453 48.11664530305805 47.193737410730634 46.73228346456693 46.09503753891229 45.56766160043948 45.10620765427578 44.6227797106757 44.09540377220289 43.787767808093754 43.392235854239146 43.106573887566384 42.64511994140267 42.35945797472991 41.78813404138436 41.52444607214796 41.23878410547519 40.75535616187511 40.118110236220474 39.7665262772386 39.41494231825673 38.84361838491119 38.44808643105658 37.89873649514741 37.34938655923823 36.843984618201794 36.294634682292624 35.87712873100165 35.34975279252884 34.95422083867423 34.6465848745651 34.05328694378319 33.789598974546784 33.372093023255815 33.04248306171031 32.866691082219376 32.60300311298297 32.40523713605567 32.14154916681926 31.87786119758286 31.636147225782825 31.50430324116462 31.30653726423732 31.28456326680095 31.24061527192822 31.196667277055482 31.15271928218275 31.064823292437282 30.954953305255447 30.58139534883721 30.383629371909905 30.14191540010987 29.812305438564366 29.570591466764327 29.219007507782457 28.867423548800588 28.603735579564184 28.34004761032778 28.09833363852774 27.87859366416407 27.724775682109502 27.592931697491302 27.505035707745833 27.417139718000367 27.395165720564 27.373191723127633 27.351217725691264 27.351217725691264 27.351217725691264 27.351217725691264 27.351217725691264 27.351217725691264 27.329243728254898 27.329243728254898 27.307269730818533 27.307269730818533 27.307269730818533 27.285295733382164 27.263321735945798 27.263321735945798 27.241347738509432 27.219373741073063 27.197399743636698 27.197399743636698 27.131477751327594 27.10950375389123 27.065555759018494 27.04358176158213 26.999633766709394 26.95568577183666 26.933711774400294 26.88976377952756 26.845815784654825 26.82384178721846 26.80186778978209 26.779893792345725 26.757919794909355 26.73594579747299 26.691997802600255 26.691997802600255 26.691997802600255 26.691997802600255 26.691997802600255 26.67002380516389 26.648049807727524 26.626075810291155 26.60410181285479 26.60410181285479 26.60410181285479 26.60410181285479 26.60410181285479 26.60410181285479 26.60410181285479 26.58212781541842 26.58212781541842 26.58212781541842 26.58212781541842 26.560153817982055 26.560153817982055 26.538179820545686 26.538179820545686 26.51620582310932 26.494231825672955 26.494231825672955 26.472257828236586 26.472257828236586 26.45028383080022 26.45028383080022 26.45028383080022 26.45028383080022 26.45028383080022 26.45028383080022 26.45028383080022 26.45028383080022 26.45028383080022 26.45028383080022 26.45028383080022 26.45028383080022 26.45028383080022 26.45028383080022 26.45028383080022 26.45028383080022 26.45028383080022 26.45028383080022 26.45028383080022 26.45028383080022 26.45028383080022 26.45028383080022 26.42830983336385 26.42830983336385 26.42830983336385 26.42830983336385 26.406335835927486 26.406335835927486 26.406335835927486 26.42830983336385 26.406335835927486 26.406335835927486 26.406335835927486 26.406335835927486 26.406335835927486 26.406335835927486 26.38436183849112 26.406335835927486 26.406335835927486 26.406335835927486 26.406335835927486 26.38436183849112 26.406335835927486 26.38436183849112 26.38436183849112 26.38436183849112 26.406335835927486 26.406335835927486 26.406335835927486 26.406335835927486 26.38436183849112 26.406335835927486 26.406335835927486 26.38436183849112 26.406335835927486 26.406335835927486 26.406335835927486 26.406335835927486 26.406335835927486 26.406335835927486 26.406335835927486 26.38436183849112 26.406335835927486 26.406335835927486 26.406335835927486 26.406335835927486 26.406335835927486 26.406335835927486 26.38436183849112 26.406335835927486 26.406335835927486 26.38436183849112 26.406335835927486 26.38436183849112 26.38436183849112 26.38436183849112 26.38436183849112 26.38436183849112 26.38436183849112 26.38436183849112 26.38436183849112 26.38436183849112 26.38436183849112 26.38436183849112 26.38436183849112 26.38436183849112 26.38436183849112 26.38436183849112 26.38436183849112 26.406335835927486 26.38436183849112 26.38436183849112 26.38436183849112 26.38436183849112 26.38436183849112 26.38436183849112 26.38436183849112 26.406335835927486 26.38436183849112 26.38436183849112 26.38436183849112 26.38436183849112 26.406335835927486 26.38436183849112 26.38436183849112 26.38436183849112 26.38436183849112 26.38436183849112 26.38436183849112 26.38436183849112 26.36238784105475 26.38436183849112 26.38436183849112 26.38436183849112 26.38436183849112 26.38436183849112 26.38436183849112 26.38436183849112 26.38436183849112 26.38436183849112 26.38436183849112 26.38436183849112 26.38436183849112 26.38436183849112 26.38436183849112 26.38436183849112 26.38436183849112 26.38436183849112 26.38436183849112 26.38436183849112 26.38436183849112 26.38436183849112 26.38436183849112 26.38436183849112 26.38436183849112 26.38436183849112 26.38436183849112 26.38436183849112 26.38436183849112 26.38436183849112 26.38436183849112 26.38436183849112 26.36238784105475 26.38436183849112 26.36238784105475 26.38436183849112 26.36238784105475 26.38436183849112 26.38436183849112 26.36238784105475 26.38436183849112 26.36238784105475 26.36238784105475 26.38436183849112 26.38436183849112 26.38436183849112 26.38436183849112 26.38436183849112 26.38436183849112 26.38436183849112 26.36238784105475 26.38436183849112 26.38436183849112 26.38436183849112 26.38436183849112 26.38436183849112 26.36238784105475 26.38436183849112 26.38436183849112 26.36238784105475 26.38436183849112 26.36238784105475 26.38436183849112 26.38436183849112 26.38436183849112 26.38436183849112 26.38436183849112 26.38436183849112 26.38436183849112 26.38436183849112 26.36238784105475 26.38436183849112 26.38436183849112 26.36238784105475 26.38436183849112 26.36238784105475 26.36238784105475 26.36238784105475 26.38436183849112 26.36238784105475 26.36238784105475 26.36238784105475 26.36238784105475 26.38436183849112 26.36238784105475 26.36238784105475 26.36238784105475 26.36238784105475 26.36238784105475 26.36238784105475 26.38436183849112 26.36238784105475 26.36238784105475 26.38436183849112 26.38436183849112 26.38436183849112 26.38436183849112 26.406335835927486 26.406335835927486 26.45028383080022 26.51620582310932 26.648049807727524 26.779893792345725 27.065555759018494 27.307269730818533 27.68082768723677 28.16425563083684 28.669657571873284 29.240981505218826 29.658487456509796 30.29573338216444 30.779161325764512 31.21864127449185 32.09760117194653 32.62497711041934 33.39406702069218 34.141182933528654 34.73448086431057 35.43764878227431 36.16279069767442 37.261490569492764 37.81084050540194 38.09650247207471 38.93151437465666 40.074162241347736 40.73338216443875 41.70023805163889 42.31550997985717 43.062625892693646 44.05145577733016 44.86449368247574 46.358725508148694 47.523347372276135 48.33638527742171 49.83061710309467 50.599707013367514 51.63248489287676 52.357626808276876 53.14869071598608 54.335286577549894 55.49990844167735 56.466764328877495 57.52151620582311 58.73008606482329 59.806811939205275 60.729719831532684 61.56473173411463 62.72935359824208 63.93792345724226 65.08057132393334 66.26716718549716 67.05823109320637 67.84929500091559 68.90404687786119 69.78300677531587 70.8377586522615 72.37593847280718 73.21095037538913 74.28767624977111 75.03479216260759 75.80388207288043 77.10034792162608 77.80351583958982 78.81431972166271 79.78117560886285 80.44039553195387 81.40725141915401 82.13239333455411 83.42885918329976 84.0661051089544 84.68137703717268 85.58231093206373 86.76890679362754 87.40615271928218 88.32906061160959 88.9223585423915 89.82329243728255 90.43856436550082 91.07581029115548 92.10858817066472 92.89965207837392 93.383080021974 94.04229994506501 94.45980589635599 94.96520783739241 95.38271378868339 95.62442776048343 95.95403772202894 96.19575169382897 96.3056216810108 96.3715436733199 96.3715436733199 96.3715436733199 96.28364768357443 96.08588170664714 95.6464017579198 95.11902581944699 94.63559787584691 93.86650796557407 93.383080021974 92.63596410913752 92.13056216810108 91.2516022706464 90.41659036806446 89.64750045779161 88.83446255264604 87.88958066288225 87.16443874748215 85.8020509064274 85.14283098333638 84.41768906793627 83.38491118842703 82.65976927302691 81.49514740889947 80.06683757553562 79.07800769089911 78.33089177806264 77.29811389855337 76.44112799853508 75.29848013184399 74.48544222669841 72.85936641640725 71.60684856253434 70.66196667277055 69.431422816334 68.42061893426111 67.62955502655191 65.80571323933346 64.68503937007874 63.586339498260394 62.35579564182384 61.47683574436916 59.784837941768906 58.97180003662333 58.13678813404138 56.972166269913934 55.78557040835012 54.62094854422267 53.500274674967955 52.59934078007691 51.58853689800403 50.445889031312944 49.984435085149244 48.90770921076726 48.16059329793078 46.842153451748764 45.853323567112255 44.97436366965757 44.22724775682109 43.260391869620946 42.64511994140267 41.9639260208753 41.10694012085699 39.656656290056766 39.173228346456696 38.64585240798389 38.16242446438381 37.4372825489837 37.041750595129095 36.778062625892694 36.51437465665629 36.250686687419886 35.85515473356528 35.45962277971068 35.0421168284197 34.75645486174693 34.49276689251053 34.09723493865592 33.789598974546784 33.284197033510345 32.712873100164806 32.40523713605567 32.07562717451016 31.74601721296466 31.636147225782825 31.262589269364586 31.196667277055482 30.954953305255447 30.691265336019043 30.51547335652811 30.29573338216444 30.07599340780077 29.9221754257462 29.658487456509796 29.438747482146127 29.219007507782457 28.97729353598242 28.77952755905512 28.603735579564184 28.427943600073245 28.296099615455045 28.208203625709576 28.12030763596411 27.988463651345906 27.922541659036806 27.87859366416407 27.790697674418606 27.702801684673137 27.614905694927668 27.548983702618568 27.527009705182202 27.483061710309467 27.439113715436733 27.417139718000367 27.395165720564 27.351217725691264 27.329243728254898 27.285295733382164 27.241347738509432 27.219373741073063 27.17542574620033 27.153451748763963 27.153451748763963 27.153451748763963 27.131477751327594 27.10950375389123 27.065555759018494 27.02160776414576 26.999633766709394 26.97765976927303 26.95568577183666 26.933711774400294 26.911737776963925 26.867789782091194 26.845815784654825 26.80186778978209 26.779893792345725 26.73594579747299 26.713971800036624 26.67002380516389 26.67002380516389 26.626075810291155 26.60410181285479 26.58212781541842 26.560153817982055 26.538179820545686 26.51620582310932 26.494231825672955 26.494231825672955 26.472257828236586 26.472257828236586 26.45028383080022 26.45028383080022 26.45028383080022 26.42830983336385 26.42830983336385 26.406335835927486 26.38436183849112 26.38436183849112 26.340413843618386 26.340413843618386 26.318439846182017 26.29646584874565 26.29646584874565 26.274491851309286 26.29646584874565 26.29646584874565 26.274491851309286 26.29646584874565 26.29646584874565 26.29646584874565 26.29646584874565 26.29646584874565 26.29646584874565 26.274491851309286 26.29646584874565 26.29646584874565 26.29646584874565 26.29646584874565 26.29646584874565 26.274491851309286 26.274491851309286 26.274491851309286 26.274491851309286 26.29646584874565 26.274491851309286 26.29646584874565 26.29646584874565 26.274491851309286 26.274491851309286 26.29646584874565 26.274491851309286 26.274491851309286 26.274491851309286 26.274491851309286 26.274491851309286 26.29646584874565 26.274491851309286 26.274491851309286 26.274491851309286 26.274491851309286 26.274491851309286 26.274491851309286 26.274491851309286 26.274491851309286 26.274491851309286 26.274491851309286 26.274491851309286 26.274491851309286 26.274491851309286 26.274491851309286 26.274491851309286 26.274491851309286 26.274491851309286 26.274491851309286 26.274491851309286 26.274491851309286 26.274491851309286 26.274491851309286 26.274491851309286 26.274491851309286 26.274491851309286 26.274491851309286 26.274491851309286 26.274491851309286 26.29646584874565 26.274491851309286 26.274491851309286 26.274491851309286 26.274491851309286 26.274491851309286 26.274491851309286 26.274491851309286 26.274491851309286 26.274491851309286 26.274491851309286 26.274491851309286 26.274491851309286 26.274491851309286 26.274491851309286 26.274491851309286 26.274491851309286 26.274491851309286 26.274491851309286 26.274491851309286 26.274491851309286 26.274491851309286 26.274491851309286 26.274491851309286 26.274491851309286 26.274491851309286 26.274491851309286 26.274491851309286 26.274491851309286 26.274491851309286 26.274491851309286 26.274491851309286 26.274491851309286 26.274491851309286 26.274491851309286 26.274491851309286 26.274491851309286 26.274491851309286 26.274491851309286 26.274491851309286 26.274491851309286 26.274491851309286 26.274491851309286 26.274491851309286 26.274491851309286 26.274491851309286 26.274491851309286 26.274491851309286 26.274491851309286 26.274491851309286 26.274491851309286 26.274491851309286 26.252517853872916 26.252517853872916 26.274491851309286 26.274491851309286 26.274491851309286 26.274491851309286 26.252517853872916 26.274491851309286 26.252517853872916 26.252517853872916 26.252517853872916 26.252517853872916 26.252517853872916 26.274491851309286 26.274491851309286 26.252517853872916 26.252517853872916 26.252517853872916 26.252517853872916 26.274491851309286 26.252517853872916 26.274491851309286 26.274491851309286 26.274491851309286 26.252517853872916 26.252517853872916 26.252517853872916 26.274491851309286 26.252517853872916 26.274491851309286 26.274491851309286 26.274491851309286 26.274491851309286 26.274491851309286 26.274491851309286 26.274491851309286 26.274491851309286 26.252517853872916 26.274491851309286 26.274491851309286 26.274491851309286 26.274491851309286 26.274491851309286 26.274491851309286 26.274491851309286 26.274491851309286 26.274491851309286 26.252517853872916 26.252517853872916 26.274491851309286 26.274491851309286 26.252517853872916 26.252517853872916 26.252517853872916 26.252517853872916 26.252517853872916 26.252517853872916 26.252517853872916 26.252517853872916 26.252517853872916 26.252517853872916 26.274491851309286 26.252517853872916 26.252517853872916 26.252517853872916 26.274491851309286 26.274491851309286 26.252517853872916 26.252517853872916 26.252517853872916 26.252517853872916 26.252517853872916 26.274491851309286 26.274491851309286 26.274491851309286 26.274491851309286 26.274491851309286 26.252517853872916 26.252517853872916 26.252517853872916 26.274491851309286 26.274491851309286 26.274491851309286 26.252517853872916 26.252517853872916 26.252517853872916 26.252517853872916 26.252517853872916 26.252517853872916 26.252517853872916 26.252517853872916 26.252517853872916 26.252517853872916 26.252517853872916 26.252517853872916 26.252517853872916 26.252517853872916 26.252517853872916 26.252517853872916 26.252517853872916 26.252517853872916 26.252517853872916 26.252517853872916 26.252517853872916 26.252517853872916 26.252517853872916 26.252517853872916 26.252517853872916 26.252517853872916 26.252517853872916 26.252517853872916 26.252517853872916 26.252517853872916 26.252517853872916 26.252517853872916 26.252517853872916 26.252517853872916 26.252517853872916 26.252517853872916 26.252517853872916 26.274491851309286 26.274491851309286 26.274491851309286 26.274491851309286 26.274491851309286 26.274491851309286 26.274491851309286 26.29646584874565 26.29646584874565 26.29646584874565 26.318439846182017 26.36238784105475 26.36238784105475 26.406335835927486 26.472257828236586 26.538179820545686 26.67002380516389 26.867789782091194 27.04358176158213 27.285295733382164 27.81267167185497 28.010437648782275 28.31807361289141 28.75755356161875 29.219007507782457 29.790331441127996 30.22981138985534 30.86705731550998 31.548251236037355 31.81193920527376 32.75682109503754 33.32814502838308 34.03131294634682 34.73448086431057 35.26185680278337 36.03094671305622 36.756088628456325 37.28346456692913 38.18439846182018 38.55795641823842 39.01941036440212 39.590734297747666 40.162058231093205 40.62351217725691 41.019044131111514 41.48049807727523 42.05182201062077 42.667093938839045 43.260391869620946 43.897637795275585 44.33711774400293 45.0183116645303 45.78740157480315 46.02911554660319 47.017945431239696 47.78703534151254 48.44625526460355 49.2812671671855 49.89653909540377 50.73155099798572 51.50064090825856 52.006042849295 52.88500274674968 53.302508698040654 53.895806628822555 54.73081853140451 55.65372642373192 56.444790331441126 57.060062259659404 57.89507416224135 58.44442409815052 59.01574803149606 60.136421900750776 61.03735579564182 61.60867972898736 62.39974363669658 62.94909357260575 63.718183482878594 64.46529939571508 64.97070133675152 65.69584325215162 66.42098516755172 66.94836110602454 67.71745101629739 68.48654092657023 69.25563083684307 69.80498077275224 70.37630470609778 71.01355063175242 71.7606665445889 72.48580845998902 73.18897637795277 73.6943783189892 74.37557223951657 74.83702618568029 75.29848013184399 76.00164804980773 76.8146859549533 77.29811389855337 77.84746383446256 78.26496978575352 79.05603369346274 79.45156564731734 79.89104559604468 80.44039553195387 80.85790148324483 81.36330342428127 81.91265336019043 82.30818531404505 82.79161325764511 83.27504120124519 83.69254715253618 84.02215711408166 84.37374107306354 84.85716901666362 85.27467496795458 85.9338948910456 86.28547885002747 86.59311481413661 86.90075077824574 87.29628273210035 87.58194469877311 87.99945065006409 88.35103460904597 88.61472257828237 88.9882805347006 89.29591649880975 89.55960446804615 89.77934444240981 89.93316242446438 90.15290239882806 90.35066837575536 90.39461637062809 90.4605383629372 90.48251236037356 90.48251236037356 90.48251236037356 90.48251236037356 90.39461637062809 90.21882439113715 90.08698040651895 89.88921442959166 89.62552646035525 89.42776048342795 89.12012451931881 88.94433253982787 88.61472257828237 88.30708661417323 88.10932063724593 87.66984068851858 87.45010071415491 87.20838674235489 86.87877678080937 86.63706280900934 86.28547885002747 85.8020509064274 85.58231093206373 85.25270097051822 84.96703900384546 84.79124702435452 84.5275590551181 84.30781908075444 83.9342611243362 83.62662516022706 83.45083318073613 83.18714521149973 83.01135323200879 82.76963926020875 82.46200329609962 82.30818531404505 82.13239333455411 81.93462735762681 81.75883537813587 81.42922541659037 81.25343343709943 80.96777147042667 80.81395348837209 80.63816150888115 80.37447353964475 80.06683757553562 79.71525361655375 79.36366965757188 79.07800769089911 78.83629371909907 78.50668375755356 78.2869437831899 77.91338582677164 77.47390587804432 77.21021790880792 76.8806079472624 76.616919978026 76.24336202160777 75.86980406518953 75.60611609595313 75.18861014466215 74.79307819080753 74.50741622413477 74.08991027284381 73.8262223036074 73.25489837026186 73.03515839589818 72.74949642922542 72.33199047793445 71.91448452664348 71.60684856253434 71.01355063175242 70.70591466764328 70.22248672404322 69.91485075993407 69.58524079838858 68.9699688701703 68.61838491118843 68.22285295733383 67.78337300860647 67.47573704449735 67.01428309833364 66.59677714704267 66.3111151803699 65.89360922907892 65.52005127266068 65.23438930598792 64.79490935726056 64.5092473905878 64.1137154367332 63.67423548800586 63.432521516205824 63.058963559787585 62.79527559055118 62.26789965207837 62.00421168284197 61.7185497161692 61.16919978026002 60.88353781358725 60.597875846914484 60.004577916132575 59.674967954587075 59.08167002380517 58.77403405969603 58.42245010071415 57.96099615455045 57.43362021607764 57.104010254532135 56.57663431605933 56.15912836476836 55.71964841604102 55.21424647500458 54.51107855704083 54.37923457242263 53.87383263138619 53.54422266984069 53.01684673136788 52.44552279802234 51.85222486724043 51.21497894158579 50.79747299029482 50.160227064640175 49.69877311847647 49.303241164621866 48.42428126716719 47.96282732100348 47.259659403039734 46.314777513275956 46.07306354147592 45.26002563633034 44.820545687603 44.4250137337484 43.765793810657385 43.282365867057315 42.68906793627541 42.0298480131844 41.30470609778429 40.579564182384175 39.942318256729536 39.5028383080022 39.08533235671123 38.57993041567478 38.03058047976561 37.52517853872917 37.21754257462003 36.778062625892694 36.338582677165356 36.052920710492586 35.61344076176525 35.32777879509247 34.9102728438015 34.58066288225599 34.27302691814686 33.635780992492215 33.438015015564915 33.086431056583045 32.75682109503754 32.62497711041934 32.2514191540011 31.74601721296466 31.50430324116462 31.130745284746382 30.911005310382713 30.691265336019043 30.493499359091743 30.383629371909905 30.20783739241897 29.966123420618935 29.812305438564366 29.70243545138253 29.570591466764327 29.460721479582496 29.306903497527927 29.153085515473357 28.955319538546053 28.735579564182384 28.515839589818714 28.25215162058231 28.03241164621864 27.658853689800402 27.505035707745833 27.417139718000367 27.329243728254898 27.263321735945798 27.197399743636698 27.197399743636698 27.17542574620033 27.17542574620033 27.17542574620033 27.17542574620033 27.153451748763963 27.153451748763963 27.131477751327594 27.131477751327594 27.131477751327594 27.131477751327594 27.131477751327594 27.131477751327594 27.10950375389123 27.10950375389123 27.131477751327594 27.10950375389123 27.10950375389123 27.10950375389123 27.10950375389123 27.087529756454863 27.065555759018494 27.065555759018494 27.065555759018494 27.04358176158213 27.04358176158213 27.04358176158213 27.02160776414576 27.02160776414576 27.02160776414576 27.02160776414576 27.02160776414576 27.02160776414576 27.02160776414576 27.02160776414576 27.02160776414576 27.02160776414576 26.999633766709394 26.999633766709394 26.999633766709394 26.999633766709394 26.999633766709394 26.999633766709394 26.999633766709394 26.999633766709394 26.999633766709394 26.999633766709394 26.999633766709394 26.999633766709394 26.999633766709394 26.999633766709394 26.97765976927303 26.999633766709394 26.999633766709394 26.999633766709394 26.999633766709394 26.999633766709394 26.999633766709394 26.999633766709394 26.999633766709394 26.999633766709394 26.999633766709394 26.999633766709394 26.999633766709394 26.999633766709394 26.999633766709394 26.999633766709394 26.999633766709394 26.999633766709394 26.999633766709394 26.999633766709394 26.999633766709394 26.999633766709394 26.999633766709394 26.999633766709394 26.999633766709394 26.999633766709394 26.999633766709394 26.999633766709394 26.999633766709394 26.97765976927303 26.97765976927303 26.95568577183666 26.95568577183666 26.95568577183666 26.933711774400294 26.933711774400294 26.933711774400294 26.911737776963925 26.933711774400294 26.911737776963925 26.911737776963925 26.933711774400294 26.911737776963925 26.911737776963925 26.911737776963925 26.911737776963925 26.911737776963925 26.911737776963925 26.911737776963925 26.911737776963925 26.911737776963925 26.911737776963925 26.911737776963925 26.911737776963925 26.911737776963925 26.911737776963925 26.911737776963925 26.911737776963925 26.911737776963925 26.911737776963925 26.911737776963925 26.911737776963925 26.911737776963925 26.88976377952756 26.88976377952756 26.88976377952756 26.911737776963925 26.911737776963925 26.88976377952756 26.88976377952756 26.88976377952756 26.88976377952756 26.88976377952756 26.88976377952756 26.88976377952756 26.88976377952756 26.88976377952756 26.88976377952756 26.911737776963925 26.88976377952756 26.88976377952756 26.88976377952756 26.88976377952756 26.88976377952756 26.88976377952756 26.88976377952756 26.88976377952756 26.88976377952756 26.867789782091194 26.88976377952756 26.88976377952756 26.88976377952756 26.88976377952756 26.88976377952756 26.88976377952756 26.88976377952756 26.867789782091194 26.867789782091194 26.867789782091194 26.88976377952756 26.867789782091194 26.867789782091194 26.88976377952756 26.867789782091194 26.867789782091194 26.867789782091194 26.867789782091194 26.867789782091194 26.867789782091194 26.867789782091194 26.867789782091194 26.867789782091194 26.867789782091194 26.867789782091194 26.867789782091194 26.867789782091194 26.867789782091194 26.867789782091194 26.867789782091194 26.867789782091194 26.867789782091194 26.867789782091194 26.867789782091194 26.867789782091194 26.867789782091194 26.867789782091194 26.867789782091194 26.867789782091194 26.867789782091194 26.867789782091194 26.867789782091194 26.867789782091194 26.88976377952756 26.867789782091194 26.867789782091194 26.88976377952756 26.867789782091194 26.867789782091194 26.867789782091194 26.867789782091194 26.867789782091194 26.867789782091194 26.867789782091194 26.867789782091194 26.88976377952756 26.867789782091194 26.867789782091194 26.867789782091194 26.867789782091194 26.867789782091194 26.867789782091194 26.867789782091194 26.867789782091194 26.867789782091194 26.867789782091194 26.867789782091194 26.867789782091194 26.867789782091194 26.867789782091194 26.867789782091194 26.867789782091194 26.867789782091194 26.845815784654825 26.867789782091194 26.867789782091194 26.867789782091194 26.88976377952756 26.95568577183666 26.999633766709394 27.17542574620033 27.307269730818533 27.570957700054933 28.03241164621864 28.16425563083684 28.55978758469145 29.153085515473357 29.48269547701886 29.9221754257462 30.317707379600805 30.669291338582678 31.130745284746382 31.50430324116462 32.53708112067387 32.95458707196484 33.416041018128546 34.141182933528654 34.66855887200147 35.41567478483794 36.184764695110786 36.712140633583594 37.415308551547334 38.20637245925654 38.66782640542025 39.590734297747666 40.074162241347736 40.55759018494781 41.17286211316609 41.63431605932979 42.27156198498443 43.128547885002746 43.590001831166454 44.205273759384724 44.8864676799121 45.54568760300312 46.09503753891229 46.534517487639626 46.995971433803334 47.63321735945797 48.09467130562168 49.01757919794909 49.479033144112805 49.940487090276505 50.46786302874931 51.30287493133126 51.76432887749496 52.3356528108405 52.75315876213148 53.302508698040654 53.87383263138619 54.401208569859 54.75279252884087 55.10437648782275 55.63175242629555 56.02728438015016 56.752426295550265 57.30177623145944 57.67533418787768 58.20271012635048 58.51034609045962 58.81798205456876 59.301409998168836 59.69694195202344 60.136421900750776 60.55392785204175 60.86156381615089 61.32301776231459 61.80644570591467 62.18000366233291 62.707379600805716 63.124885552096686 63.608313495696756 64.15766343160593 64.5751693828969 65.25636330342428 65.65189525727888 66.00347921626076 66.55282915216993 67.14612708295184 67.51968503937007 68.24482695477019 68.68430690349753 69.21168284197034 69.60721479582494 70.17853872917048 70.74986266251602 71.18934261124336 71.73869254715254 72.33199047793445 72.92528840871636 73.29884636513458 73.87017029848013 74.28767624977111 74.83702618568029 75.32045412928035 75.80388207288043 76.33125801135323 76.6828419703351 77.23219190624428 77.80351583958982 78.0891778062626 78.6165537447354 78.99011170115364 79.671305621681 80.22065555759019 80.57223951657207 80.96777147042667 81.42922541659037 81.75883537813587 82.19831532686322 82.54989928584509 82.96740523713606 83.42885918329976 83.89031312946346 84.1979490935726 84.50558505768174 84.94506500640908 85.36257095770006 85.7361289141183 86.06573887566381 86.61508881157297 86.85680278337301 87.23036073979125 87.38417872184581 87.69181468595497 87.99945065006409 88.19721662699139 88.54880058597325 88.6586705731551 88.7245925654642 88.7245925654642 88.7245925654642 88.7245925654642 88.68064457059147 88.54880058597325 88.28511261673685 87.95550265519137 87.60391869620949 87.20838674235489 86.9227247756821 86.5271928218275 86.17560886284564 85.8020509064274 85.29664896539094 84.5275590551181 84.11005310382714 83.51675517304523 83.09924922175426 82.52792528840871 82.15436733199049 81.73686138069951 81.09961545504487 80.61618751144479 80.26460355246292 79.84709760117195 79.5394616370628 79.1439296832082 78.79234572422632 78.57260574986266 78.24299578831716 77.93535982420804 77.69364585240798 77.38600988829884 77.21021790880792 76.77073796008057 76.50704999084417 76.24336202160777 75.86980406518953 75.45229811389855 75.14466214978941 74.46346822926205 74.06793627540745 73.45266434718917 72.99121040102546 72.57370444973449 71.71671854971618 71.4310565830434 70.50814869071598 69.7610327778795 69.18970884453397 68.37667093938839 67.47573704449735 66.81651712140633 65.87163523164256 65.19044131111518 64.1796374290423 63.212781541842155 62.50961362387841 61.19117377769639 60.48800585973265 59.872733931514375 59.01574803149606 58.42245010071415 57.36769822376854 56.818348287859365 56.00531038271379 55.30214246475005 54.75279252884087 54.11554660318623 53.412378685222485 53.01684673136788 52.40157480314961 51.78630287493133 51.32484892876762 50.73155099798572 50.116279069767444 49.720747115912836 49.14942318256729 48.49020325947629 48.11664530305805 47.67716535433071 47.127815418421534 46.776231459439664 46.292803515839594 45.94121955685772 45.41384361838491 44.84251968503937 44.2931697491302 43.655923823475554 43.282365867057315 42.60117194652994 42.07379600805713 41.81010803882073 40.99707013367515 40.601538179820544 39.986266251602274 39.26112433620216 38.73374839772936 38.38216443874748 38.07452847463834 37.72294451565647 37.3054385643655 36.997802600256364 36.58029664896539 36.184764695110786 35.70133675151071 35.50357077458341 35.28383080021974 35.0421168284197 34.75645486174693 34.58066288225599 34.22907892327412 33.98736495147409 33.81157297198315 33.438015015564915 33.240249038637614 33.020509064273945 32.82274308734664 32.646951107855706 32.3832631386193 32.0536531770738 31.89983519501923 31.74601721296466 31.548251236037355 31.28456326680095 31.21864127449185 31.15271928218275 31.108771287310017 31.020875297564547 30.976927302691813 30.779161325764512 30.735213330891778 30.58139534883721 30.44955136421901 30.163889397546235 30.054019410364404 29.746383446255265 29.41677348470976 29.19703351034609 28.955319538546053 28.362021607764145 28.142281633400476 27.988463651345906 27.834645669291337 27.724775682109502 27.702801684673137 27.68082768723677 27.658853689800402 27.68082768723677 27.68082768723677 27.68082768723677 27.658853689800402 27.658853689800402 27.658853689800402 27.636879692364037 27.636879692364037 27.636879692364037 27.636879692364037 27.614905694927668 27.614905694927668 27.592931697491302 27.592931697491302 27.570957700054933 27.548983702618568 27.527009705182202 27.505035707745833 27.483061710309467 27.439113715436733 27.439113715436733 27.395165720564 27.373191723127633 27.351217725691264 27.351217725691264 27.351217725691264 27.329243728254898 27.329243728254898 27.307269730818533 27.307269730818533 27.307269730818533 27.307269730818533 27.285295733382164 27.263321735945798 27.263321735945798 27.241347738509432 27.219373741073063 27.197399743636698 27.197399743636698 27.17542574620033 27.17542574620033 27.17542574620033 27.17542574620033 27.153451748763963 27.153451748763963 27.153451748763963 27.131477751327594 27.131477751327594 27.131477751327594 27.10950375389123 27.10950375389123 27.10950375389123 27.087529756454863 27.065555759018494 27.04358176158213 27.02160776414576 27.02160776414576 26.999633766709394 26.999633766709394 26.97765976927303 26.999633766709394 26.999633766709394 26.97765976927303 26.97765976927303 26.97765976927303 26.97765976927303 26.97765976927303 26.97765976927303 26.97765976927303 26.97765976927303 26.95568577183666 26.97765976927303 26.95568577183666 26.95568577183666 26.97765976927303 26.97765976927303 26.95568577183666 26.97765976927303 26.95568577183666 26.95568577183666 26.95568577183666 26.95568577183666 26.933711774400294 26.933711774400294 26.911737776963925 26.911737776963925 26.88976377952756 26.88976377952756 26.867789782091194 26.867789782091194 26.867789782091194 26.867789782091194 26.867789782091194 26.867789782091194 26.867789782091194 26.867789782091194 26.867789782091194 26.867789782091194 26.867789782091194 26.867789782091194 26.867789782091194 26.867789782091194 26.867789782091194 26.867789782091194 26.867789782091194 26.867789782091194 26.867789782091194 26.845815784654825 26.845815784654825 26.845815784654825 26.845815784654825 26.845815784654825 26.867789782091194 26.845815784654825 26.845815784654825 26.845815784654825 26.845815784654825 26.845815784654825 26.845815784654825 26.845815784654825 26.845815784654825 26.845815784654825 26.845815784654825 26.845815784654825 26.845815784654825 26.845815784654825 26.845815784654825 26.845815784654825 26.845815784654825 26.845815784654825 26.845815784654825 26.845815784654825 26.845815784654825 26.82384178721846 26.845815784654825 26.845815784654825 26.82384178721846 26.82384178721846 26.82384178721846 26.82384178721846 26.845815784654825 26.82384178721846 26.82384178721846 26.82384178721846 26.82384178721846 26.82384178721846 26.82384178721846 26.845815784654825 26.845815784654825 26.845815784654825 26.82384178721846 26.845815784654825 26.82384178721846 26.82384178721846 26.82384178721846 26.82384178721846 26.82384178721846 26.82384178721846 26.82384178721846 26.82384178721846 26.82384178721846 26.82384178721846 26.82384178721846 26.82384178721846 26.82384178721846 26.82384178721846 26.82384178721846 26.82384178721846 26.82384178721846 26.82384178721846 26.82384178721846 26.82384178721846 26.82384178721846 26.82384178721846 26.82384178721846 26.82384178721846 26.82384178721846 26.82384178721846 26.82384178721846 26.82384178721846 26.82384178721846 26.82384178721846 26.82384178721846 26.82384178721846 26.82384178721846 26.82384178721846 26.82384178721846 26.82384178721846 26.82384178721846 26.82384178721846 26.82384178721846 26.82384178721846 26.82384178721846 26.82384178721846 26.82384178721846 26.82384178721846 26.82384178721846 26.82384178721846 26.82384178721846 26.82384178721846 26.82384178721846 26.80186778978209 26.82384178721846 26.82384178721846 26.82384178721846 26.82384178721846 26.845815784654825 26.845815784654825 26.845815784654825 26.845815784654825 26.867789782091194 26.867789782091194 26.88976377952756 26.88976377952756 26.911737776963925 26.95568577183666 26.97765976927303 27.065555759018494 27.153451748763963 27.241347738509432 27.351217725691264 27.592931697491302 27.74674967954587 28.010437648782275 28.31807361289141 28.53781358725508 28.91137154367332 29.175059512909723 29.61453946163706 30.097967405237135 30.44955136421901 30.911005310382713 31.636147225782825 32.2514191540011 32.42721113349204 33.020509064273945 33.657754989928584 34.141182933528654 34.82237685405603 35.52554477201978 36.16279069767442 36.624244643838125 37.3054385643655 37.96465848745651 38.44808643105658 39.15125434902033 39.6346822926204 40.381798205456874 41.15088811572972 41.65629005676616 42.667093938839045 43.172495879875484 43.87566379783922 44.60080571323933 44.86449368247574 45.50173960813038 46.33675151071232 46.952023438930595 47.3475553927852 47.74308734663981 48.31441127998535 48.68796923640359 49.25929316974913 49.852591100531036 50.29207104925838 50.90734297747665 51.5445889031313 52.006042849295 52.906976744186046 53.324482695477016 53.851858633949824 54.57700054934993 55.36806445705915 55.96136238784105 56.906244277604834 57.45559421351401 58.20271012635048 58.75206006225966 59.499175975096136 60.026551913568944 60.575901849478115 61.586705731551 62.59750961362388 63.212781541842155 63.718183482878594 64.1796374290423 64.75096136238784 65.45412928035158 65.91558322651528 66.88243911371544 67.34389305987915 67.84929500091559 68.53048892144295 69.27760483427943 69.71708478300678 70.44222669840688 70.94762863944334 71.65079655740706 72.37593847280718 73.14502838308002 73.8262223036074 74.46346822926205 74.74913019593481 75.29848013184399 75.93572605749863 76.3532320087896 77.49587987548068 78.02325581395348 78.44076176524446 79.01208569859 79.38564365500824 80.00091558322652 80.39644753708112 80.98974546786303 81.56106940120857 82.11041933711775 82.46200329609962 82.96740523713606 83.31898919611793 83.84636513459074 84.37374107306354 84.74729902948178 85.23072697308186 85.62625892693646 86.3953488372093 86.76890679362754 87.16443874748215 87.64786669108221 88.17524262955503 88.63669657571873 89.0542025270097 89.31789049624611 89.69144845266435 89.93316242446438 90.19685039370079 90.52646035524629 90.68027833730086 90.83409631935542 90.94396630653726 90.98791430141 90.98791430141 90.98791430141 90.96594030397362 90.94396630653726 90.83409631935542 90.5923823475554 90.21882439113715 89.99908441677348 89.62552646035525 89.38381248855521 89.01025453213697 88.6586705731551 88.35103460904597 88.06537264237319 87.69181468595497 87.36220472440945 86.9227247756821 86.54916681926387 86.15363486540927 85.69218091924556 85.18677897820913 84.87914301409998 84.43966306537266 84.08807910639078 83.45083318073613 83.09924922175426 82.59384728071782 82.24226332173595 81.89067936275407 81.36330342428127 80.61618751144479 80.22065555759019 79.64933162424464 79.25379967039004 78.66050173960812 78.26496978575352 77.84746383446256 77.03442592931697 76.3532320087896 75.957700054935 75.27650613440761 74.72715619849845 74.11188427028017 73.4306903497528 72.90331441127998 72.17817249587988 71.60684856253434 70.9036806445706 70.11261673686138 69.27760483427943 68.39864493682475 67.87126899835195 67.29994506500641 66.39901117011536 65.69584325215162 64.68503937007874 63.915949459805894 63.366599523896724 62.487639626442046 61.89434169566014 61.08130379051456 60.136421900750776 59.587071964841606 58.70811206738693 57.80717817249588 57.060062259659404 56.181102362204726 55.23622047244095 54.57700054934993 53.74198864676799 53.14869071598608 52.24775682109504 51.43471891594946 50.77549899285845 49.874565097967405 49.303241164621866 48.90770921076726 48.18256729536715 47.47939937740341 46.79820545687603 46.182933528657756 45.65555759018495 44.9523896722212 44.31514374656656 43.80974180553012 43.260391869620946 42.864859915766345 42.0957700054935 41.76616004394799 41.41457608496612 40.88720014649331 40.184032228529574 39.920344259293174 39.5028383080022 39.19520234389306 38.79967039003846 38.25032045412928 38.09650247207471 37.74491851309284 37.15162058231093 37.063724592565464 36.822010620765425 36.558322651529025 36.03094671305622 35.61344076176525 35.32777879509247 34.86632484892877 34.53671488738326 34.207104925837754 33.67972898736495 33.438015015564915 33.130379051455776 32.84471708478301 32.55905511811024 32.14154916681926 32.00970518220106 31.81193920527376 31.57022523347372 31.35048525911005 31.08679728987365 30.713239333455412 30.537447353964474 30.317707379600805 30.185863394982604 30.054019410364404 29.966123420618935 29.878227430873466 29.680461453946165 29.394799487273392 29.306903497527927 29.043215528291523 28.867423548800588 28.49386559238235 28.362021607764145 28.010437648782275 27.81267167185497 27.68082768723677 27.614905694927668 27.548983702618568 27.505035707745833 27.461087712873102 27.461087712873102 27.417139718000367 27.373191723127633 27.307269730818533 27.241347738509432 27.197399743636698 27.153451748763963 27.087529756454863 27.065555759018494 27.04358176158213 26.999633766709394 26.95568577183666 26.95568577183666 26.911737776963925 26.911737776963925 26.88976377952756 26.88976377952756 26.88976377952756 26.88976377952756 26.88976377952756 26.88976377952756 26.867789782091194 26.867789782091194 26.845815784654825 26.845815784654825 26.845815784654825 26.845815784654825 26.82384178721846 26.82384178721846 26.80186778978209 26.80186778978209 26.779893792345725 26.779893792345725 26.757919794909355 26.73594579747299 26.713971800036624 26.691997802600255 26.648049807727524 26.626075810291155 26.60410181285479 26.560153817982055 26.560153817982055 26.538179820545686 26.51620582310932 26.51620582310932 26.494231825672955 26.51620582310932 26.494231825672955 26.494231825672955 26.494231825672955 26.494231825672955 26.494231825672955 26.494231825672955 26.494231825672955 26.494231825672955 26.494231825672955 26.494231825672955 26.494231825672955 26.494231825672955 26.494231825672955 26.494231825672955 26.494231825672955 26.472257828236586 26.472257828236586 26.472257828236586 26.45028383080022 26.45028383080022 26.42830983336385 26.42830983336385 26.42830983336385 26.42830983336385 26.42830983336385 26.42830983336385 26.42830983336385 26.42830983336385 26.42830983336385 26.42830983336385 26.42830983336385 26.42830983336385 26.42830983336385 26.42830983336385 26.42830983336385 26.42830983336385 26.42830983336385 26.42830983336385 26.42830983336385 26.42830983336385 26.42830983336385 26.406335835927486 26.42830983336385 26.42830983336385 26.42830983336385 26.42830983336385 26.42830983336385 26.42830983336385 26.406335835927486 26.406335835927486 26.406335835927486 26.406335835927486 26.406335835927486 26.406335835927486 26.406335835927486 26.406335835927486 26.406335835927486 26.406335835927486 26.406335835927486 26.406335835927486 26.42830983336385 26.406335835927486 26.406335835927486 26.406335835927486 26.406335835927486 26.406335835927486 26.406335835927486 26.406335835927486 26.406335835927486 26.406335835927486 26.406335835927486 26.406335835927486 26.406335835927486 26.406335835927486 26.406335835927486 26.406335835927486 26.406335835927486 26.406335835927486 26.406335835927486 26.406335835927486 26.406335835927486 26.406335835927486 26.406335835927486 26.406335835927486 26.406335835927486 26.406335835927486 26.42830983336385 26.42830983336385 26.406335835927486 26.42830983336385 26.42830983336385 26.42830983336385 26.42830983336385 26.406335835927486 26.42830983336385 26.406335835927486 26.42830983336385 26.406335835927486 26.406335835927486 26.406335835927486 26.406335835927486 26.406335835927486 26.406335835927486 26.406335835927486 26.406335835927486 26.406335835927486 26.406335835927486 26.406335835927486 26.406335835927486 26.406335835927486 26.406335835927486 26.406335835927486 26.406335835927486 26.406335835927486 26.406335835927486 26.406335835927486 26.406335835927486 26.406335835927486 26.406335835927486 26.406335835927486 26.406335835927486 26.406335835927486 26.406335835927486 26.406335835927486 26.406335835927486 26.406335835927486 26.406335835927486 26.406335835927486 26.406335835927486 26.406335835927486 26.406335835927486 26.406335835927486 26.406335835927486 26.406335835927486 26.406335835927486 26.406335835927486 26.406335835927486 26.406335835927486 26.406335835927486 26.406335835927486 26.38436183849112 26.406335835927486 26.38436183849112 26.38436183849112 26.406335835927486 26.406335835927486 26.406335835927486 26.38436183849112 26.406335835927486 26.38436183849112 26.38436183849112 26.406335835927486 26.406335835927486 26.406335835927486 26.38436183849112 26.406335835927486 26.406335835927486 26.406335835927486 26.406335835927486 26.42830983336385 26.406335835927486 26.406335835927486 26.42830983336385 26.42830983336385 26.42830983336385 26.42830983336385 26.45028383080022 26.45028383080022 26.45028383080022 26.472257828236586 26.494231825672955 26.538179820545686 26.60410181285479 26.73594579747299 26.845815784654825 27.04358176158213 27.395165720564 27.505035707745833 27.81267167185497 28.05438564365501 28.427943600073245 28.955319538546053 29.240981505218826 29.570591466764327 29.966123420618935 30.273759384728073 30.932979307819082 31.328511261673686 31.78996520783739 32.14154916681926 32.5151071232375 33.459989013001284 33.877494964292254 34.36092290789233 35.06409082585607 35.61344076176525 36.338582677165356 37.15162058231093 37.7009705182201 38.47006042849295 39.305072331074896 39.744552279802235 40.49166819263871 40.86522614905695 41.50247207471159 42.0957700054935 42.53524995422084 43.216443874748215 44.02948177989379 44.44698773118476 44.84251968503937 45.65555759018495 46.051089544039556 46.44662149789416 46.842153451748764 47.67716535433071 48.31441127998535 48.77586522614906 49.45705914667643 49.962461087712875 50.599707013367514 51.32484892876762 51.85222486724043 52.55539278520418 53.03882072880425 53.720014649331624 54.68687053653177 55.71964841604102 56.15912836476836 56.664530305804796 57.21388024171397 57.74125618018678 58.37850210584142 59.1256180186779 59.872733931514375 60.40010986998718 61.19117377769639 61.7185497161692 62.44369163156931 63.212781541842155 63.718183482878594 64.39937740340596 65.10254532136972 65.5859732649698 66.46493316242447 66.7725691265336 67.40981505218824 68.09100897271563 68.86009888298847 69.2995788317158 70.26643471891595 70.79381065738875 71.51895257278886 72.11225050357078 72.61765244460722 73.45266434718917 74.13385826771653 75.14466214978941 75.91375206006227 76.50704999084417 77.25416590368064 78.00128181651712 78.66050173960812 79.23182567295368 79.69327961911739 80.33052554477202 80.98974546786303 81.40725141915401 82.00054934993591 82.79161325764511 83.14319721662699 83.49478117560886 83.84636513459074 84.30781908075444 84.72532503204542 85.07690899102728 85.42849295000916 85.82402490386376 86.10968687053654 86.3953488372093 86.74693279619117 86.98864676799121 87.49404870902765 87.73576268082769 88.08734663980957 88.32906061160959 88.6586705731551 88.9882805347006 89.22999450650065 89.51565647317341 89.80131843984618 90.02105841420986 90.24079838857352 90.41659036806446 90.9219923091009 90.98791430141 91.07581029115548 91.16370628090094 91.22962827321004 91.27357626808276 91.3175242629555 91.3175242629555 91.3175242629555 91.3175242629555 91.3175242629555 91.3175242629555 91.29555026551914 91.2516022706464 91.14173228346456 90.96594030397362 90.7901483244827 90.54843435268266 90.35066837575536 90.06500640908259 89.77934444240981 89.53763047060978 89.16407251419155 88.87841054751877 88.48287859366417 88.04339864493683 87.73576268082769 87.23036073979125 86.48324482695477 86.06573887566381 85.36257095770006 85.16480498077274 84.1979490935726 83.64859915766343 82.90148324482695 81.78080937557223 81.20948544222671 80.57223951657207 79.5394616370628 78.8802417139718 78.02325581395348 77.03442592931697 75.957700054935 75.38637612158945 74.48544222669841 73.8921442959165 72.68357443691632 71.93645852407984 71.40908258560702 70.68394067020692 70.09064273942502 69.21168284197034 68.59641091375207 67.54165903680644 66.75059512909723 66.1792711957517 65.32228529573338 64.79490935726056 64.09174143929684 63.388573521333086 62.88317158029665 62.18000366233291 61.43288774949643 60.90551181102362 60.114447903314414 59.191540010987 58.64219007507782 57.85112616736861 57.30177623145944 56.488738326313864 55.65372642373192 54.77476652627723 54.04962461087713 53.478300677531585 53.01684673136788 52.2697308185314 51.76432887749496 50.84142098516755 50.204175059512906 49.786669108221936 49.19337117744003 48.79783922358543 48.11664530305805 47.69913935176707 47.2816334004761 46.886101446621495 46.380699505585056 45.87529756454862 45.39186962094854 44.9523896722212 44.820545687603 44.38106573887566 44.073429774766524 43.699871818348285 43.48013184398462 43.238417872184584 42.68906793627541 42.293535982420806 42.13971800036623 41.70023805163889 41.39260208752975 40.86522614905695 40.27192821827504 39.964292254165905 39.5028383080022 39.107306354147596 38.79967039003846 38.40413843618385 38.07452847463834 37.78886650796557 37.4372825489837 37.15162058231093 36.778062625892694 36.51437465665629 36.16279069767442 35.921076725874386 35.67936275407435 35.37172678996521 34.95422083867423 34.7125068668742 34.44881889763779 33.96539095403772 33.723676982237684 33.459989013001284 33.174327046328514 32.66892510529207 32.14154916681926 32.09760117194653 31.89983519501923 31.74601721296466 31.57022523347372 31.41640725141915 31.328511261673686 31.262589269364586 31.24061527192822 31.21864127449185 31.108771287310017 31.064823292437282 30.932979307819082 30.757187328328143 30.625343343709943 30.383629371909905 30.07599340780077 29.878227430873466 29.680461453946165 29.54861746932796 29.328877494964292 29.175059512909723 29.021241530855153 28.75755356161875 28.53781358725508 28.38399560520051 28.18622962827321 28.076359641091376 27.87859366416407 27.856619666727706 27.790697674418606 27.724775682109502 27.658853689800402 27.636879692364037 27.592931697491302 27.548983702618568 27.505035707745833 27.461087712873102 27.439113715436733 27.417139718000367 27.395165720564 27.351217725691264 27.329243728254898 27.307269730818533 27.285295733382164 27.263321735945798 27.263321735945798 27.219373741073063 27.219373741073063 27.17542574620033 27.153451748763963 27.131477751327594 27.087529756454863 27.065555759018494 27.04358176158213 27.02160776414576 26.999633766709394 26.97765976927303 26.95568577183666 26.95568577183666 26.933711774400294 26.933711774400294 26.933711774400294 26.933711774400294 26.911737776963925 26.911737776963925 26.911737776963925 26.911737776963925 26.911737776963925 26.911737776963925 26.911737776963925 26.911737776963925 26.911737776963925 26.911737776963925 26.88976377952756 26.911737776963925 26.88976377952756 26.88976377952756 26.911737776963925 26.88976377952756 26.88976377952756 26.88976377952756 26.911737776963925 26.88976377952756 26.88976377952756 26.88976377952756 26.88976377952756 26.88976377952756 26.88976377952756 26.88976377952756 26.88976377952756 26.88976377952756 26.88976377952756 26.88976377952756 26.88976377952756 26.88976377952756 26.88976377952756 26.88976377952756 26.88976377952756 26.88976377952756 26.88976377952756 26.88976377952756 26.88976377952756 26.88976377952756 26.88976377952756 26.88976377952756 26.88976377952756 26.88976377952756 26.88976377952756 26.88976377952756 26.88976377952756 26.88976377952756 26.88976377952756 26.88976377952756 26.88976377952756 26.88976377952756 26.88976377952756 26.88976377952756 26.88976377952756 26.911737776963925 26.88976377952756 26.88976377952756 26.88976377952756 26.88976377952756 26.88976377952756 26.88976377952756 26.88976377952756 26.88976377952756 26.88976377952756 26.88976377952756 26.88976377952756 26.88976377952756 26.88976377952756 26.88976377952756 26.88976377952756 26.88976377952756 26.88976377952756 26.88976377952756 26.88976377952756 26.88976377952756 26.88976377952756 26.867789782091194 26.88976377952756 26.867789782091194 26.867789782091194 26.88976377952756 26.867789782091194 26.867789782091194 26.867789782091194 26.867789782091194 26.867789782091194 26.867789782091194 26.867789782091194 26.867789782091194 26.867789782091194 26.867789782091194 26.867789782091194 26.867789782091194 26.867789782091194 26.867789782091194 26.867789782091194 26.867789782091194 26.867789782091194 26.867789782091194 26.867789782091194 26.867789782091194 26.867789782091194 26.867789782091194 26.867789782091194 26.867789782091194 26.867789782091194 26.867789782091194 26.867789782091194 26.867789782091194 26.867789782091194 26.867789782091194 26.867789782091194 26.867789782091194 26.867789782091194 26.867789782091194 26.867789782091194 26.867789782091194 26.867789782091194 26.867789782091194 26.867789782091194 26.867789782091194 26.867789782091194 26.867789782091194 26.867789782091194 26.867789782091194 26.867789782091194 26.867789782091194 26.867789782091194 26.867789782091194 26.867789782091194 26.867789782091194 26.867789782091194 26.867789782091194 26.867789782091194 26.867789782091194 26.867789782091194 26.867789782091194 26.867789782091194 26.867789782091194 26.867789782091194 26.867789782091194 26.867789782091194 26.867789782091194 26.867789782091194 26.867789782091194 26.867789782091194 26.867789782091194 26.867789782091194 26.845815784654825 26.867789782091194 26.845815784654825 26.867789782091194 26.845815784654825 26.845815784654825 26.867789782091194 26.845815784654825 26.845815784654825 26.867789782091194 26.867789782091194 26.867789782091194 26.845815784654825 26.867789782091194 26.867789782091194 26.867789782091194 26.867789782091194 26.867789782091194 26.867789782091194 26.867789782091194 26.867789782091194 26.88976377952756 26.88976377952756 26.88976377952756 26.88976377952756 26.911737776963925 26.911737776963925 26.911737776963925 26.933711774400294 26.95568577183666 26.97765976927303 27.02160776414576 27.087529756454863 27.17542574620033 27.241347738509432 27.351217725691264 27.483061710309467 27.614905694927668 27.834645669291337 28.05438564365501 28.208203625709576 28.49386559238235 28.69163156930965 29.043215528291523 29.460721479582496 29.812305438564366 30.273759384728073 30.779161325764512 31.21864127449185 31.68009522065556 32.4491851309284 32.800769089910276 33.196301043764876 33.61380699505585 34.31697491301959 34.9102728438015 35.21790880791064 35.83318073612892 36.250686687419886 36.822010620765425 37.2395165720564 37.85478850027467 38.49203442592932 39.08533235671123 39.524812305438566 40.184032228529574 40.645486174693275 41.28273210034792 42.00787401574803 42.51327595678447 43.238417872184584 44.02948177989379 44.66672770554844 45.39186962094854 45.94121955685772 46.973997436366965 47.523347372276135 47.91887932613075 48.64402124153085 49.39113715436733 50.138253067203806 50.84142098516755 51.36879692364036 52.09393883904047 52.68723676982238 53.302508698040654 53.98370261856803 54.44515656473173 55.10437648782275 55.76359641091375 56.22505035707746 56.8622962827321 57.58743819813221 58.07086614173228 58.79600805713239 59.301409998168836 60.092473905878045 61.12525178538729 61.89434169566014 62.42171763413294 63.080937557223955 63.630287493133125 64.5751693828969 65.49807727522432 66.39901117011536 67.25599707013367 67.89324299578831 68.75022889580663 69.32155282915217 69.95879875480682 70.9036806445706 71.45303058047976 72.20014649331624 72.94726240615272 73.4306903497528 74.48544222669841 75.05676616004395 75.47427211133493 75.86980406518953 76.2213880241714 76.59494598058964 77.34206189342612 77.78154184215344 78.24299578831716 78.81431972166271 79.01208569859 79.60538362937191 80.22065555759019 80.81395348837209 81.38527742171763 81.80278337300861 82.37410730635415 82.9454312396997 83.2091192089361 83.89031312946346 84.43966306537266 84.74729902948178 85.23072697308186 85.56033693462736 86.15363486540927 86.46127082951841 86.74693279619117 87.12049075260941 87.38417872184581 87.75773667826405 88.08734663980957 88.50485259110053 88.70261856802784 88.90038454495513 89.09815052188245 89.36183849111885 89.55960446804615 89.91118842702802 90.13092840139169 90.28474638344626 90.50448635780992 90.65830433986449 90.7901483244827 91.0538362937191 91.20765427577368 91.36147225782824 91.55923823475554 91.7130562168101 91.88884819630104 92.06464017579198 92.30635414759202 92.43819813221022 92.57004211682842 92.74583409631936 92.8557040835012 92.9216260758103 93.03149606299212 93.0534700604285 93.07544405786486 93.0534700604285 93.0534700604285 93.03149606299212 92.83373008606483 92.6579381065739 92.32832814502838 92.13056216810108 91.80095220655558 91.42739425013734 91.09778428859184 90.74620032960996 90.28474638344626 89.91118842702802 89.14209851675518 88.96630653726424 88.35103460904597 87.77971067570043 87.31825672953671 86.74693279619117 85.8679728987365 85.38454495513642 84.87914301409998 84.28584508331807 83.56070316791798 83.0772752243179 82.24226332173595 81.45119941402675 80.87987548068119 79.78117560886285 79.31972166269914 78.81431972166271 78.06720380882624 77.32008789598976 76.6828419703351 76.0895440395532 75.54019410364401 74.88097418055301 73.95806628822561 73.47463834462553 72.99121040102546 72.37593847280718 71.87053653177074 71.12342061893426 70.37630470609778 69.4973448086431 68.77220289324299 68.17890496246109 67.27797106757004 66.5748031496063 65.95953122138803 64.61911737776964 63.850027467496794 62.839223585423916 61.7185497161692 60.99340780076909 59.69694195202344 59.01574803149606 58.37850210584142 57.56546420069584 56.906244277604834 56.00531038271379 55.14832448269547 54.24739058780443 53.500274674967955 52.731184764695115 52.357626808276876 51.8082768723677 51.43471891594946 50.643655008240245 50.116279069767444 49.720747115912836 49.2153451748764 48.77586522614906 48.44625526460355 47.96282732100348 47.72111334920344 47.325581395348834 46.908075444057864 46.622413477385095 46.248855520966856 45.65555759018495 45.34792162607581 45.0842336568394 44.79857169016664 44.5568577183666 44.16132576451199 44.05145577733016 43.45815784654825 43.040651895257284 42.75498992858451 42.35945797472991 42.0298480131844 41.50247207471159 40.68943416956601 40.315876213147774 40.008240249038636 39.722578282365866 39.41494231825673 38.99743636696576 38.75572239516572 38.29426844900202 38.05255447720198 37.78886650796557 37.4372825489837 37.15162058231093 36.668192638710856 36.38253067203809 36.14081670023805 35.76725874381981 35.28383080021974 35.17396081303791 34.69053286943783 34.38289690532869 34.075260941219554 33.877494964292254 33.569859000183115 33.306171030946714 33.086431056583045 32.95458707196484 32.800769089910276 32.712873100164806 32.55905511811024 32.42721113349204 32.29536714887384 32.09760117194653 31.921809192455594 31.74601721296466 31.482329243728255 31.30653726423732 31.064823292437282 30.823109320637247 30.537447353964474 30.339681377037174 30.054019410364404 29.878227430873466 29.63651345907343 29.438747482146127 29.131111518036988 29.043215528291523 28.77952755905512 28.55978758469145 28.38399560520051 28.16425563083684 28.010437648782275 27.90056766160044 27.81267167185497 27.768723676982237 27.74674967954587 27.724775682109502 27.702801684673137 27.68082768723677 27.636879692364037 27.614905694927668 27.570957700054933 27.527009705182202 27.483061710309467 27.483061710309467 27.439113715436733 27.417139718000367 27.395165720564 27.395165720564 27.351217725691264 27.351217725691264 27.329243728254898 27.307269730818533 27.307269730818533 27.285295733382164 27.263321735945798 27.263321735945798 27.241347738509432 27.241347738509432 27.219373741073063 27.197399743636698 27.197399743636698 27.17542574620033 27.153451748763963 27.131477751327594 27.10950375389123 27.087529756454863 27.087529756454863 27.065555759018494 27.065555759018494 27.065555759018494 27.065555759018494 27.065555759018494 27.065555759018494 27.065555759018494 27.065555759018494 27.04358176158213 27.065555759018494 27.065555759018494 27.065555759018494 27.065555759018494 27.065555759018494 27.04358176158213 27.04358176158213 27.065555759018494 27.04358176158213 27.04358176158213 27.04358176158213 27.04358176158213 27.04358176158213 27.04358176158213 27.04358176158213 27.04358176158213 27.04358176158213 27.02160776414576 27.02160776414576 27.02160776414576 27.02160776414576 27.02160776414576 27.02160776414576 26.999633766709394 26.999633766709394 26.999633766709394 26.999633766709394 26.97765976927303 26.97765976927303 26.97765976927303 26.999633766709394 26.97765976927303 26.97765976927303 26.97765976927303 26.97765976927303 26.97765976927303 26.97765976927303 26.97765976927303 26.97765976927303 26.999633766709394 26.97765976927303 26.97765976927303 26.97765976927303 26.97765976927303 26.999633766709394 26.97765976927303 26.97765976927303 26.999633766709394 26.999633766709394 26.97765976927303 26.999633766709394 26.999633766709394 26.97765976927303 26.97765976927303 26.999633766709394 26.97765976927303 26.97765976927303 26.97765976927303 26.97765976927303 26.97765976927303 26.97765976927303 26.97765976927303 26.97765976927303 26.97765976927303 26.97765976927303 26.97765976927303 26.999633766709394 26.97765976927303 26.97765976927303 26.97765976927303 26.97765976927303 26.97765976927303 26.97765976927303 26.97765976927303 26.97765976927303 26.95568577183666 26.95568577183666 26.95568577183666 26.95568577183666 26.97765976927303 26.95568577183666 26.95568577183666 26.95568577183666 26.95568577183666 26.95568577183666 26.95568577183666 26.95568577183666 26.95568577183666 26.95568577183666 26.95568577183666 26.95568577183666 26.95568577183666 26.95568577183666 26.95568577183666 26.95568577183666 26.95568577183666 26.95568577183666 26.95568577183666 26.95568577183666 26.95568577183666 26.95568577183666 26.95568577183666 26.95568577183666 26.95568577183666 26.95568577183666 26.95568577183666 26.95568577183666 26.95568577183666 26.95568577183666 26.95568577183666 26.97765976927303 26.95568577183666 26.95568577183666 26.95568577183666 26.95568577183666 26.97765976927303 26.95568577183666 26.95568577183666 26.95568577183666 26.95568577183666 26.95568577183666 26.95568577183666 26.95568577183666 26.95568577183666 26.95568577183666 26.95568577183666 26.95568577183666 26.95568577183666 26.95568577183666 26.95568577183666 26.95568577183666 26.95568577183666 26.95568577183666 26.95568577183666 26.95568577183666 26.95568577183666 26.95568577183666 26.95568577183666 26.95568577183666 26.95568577183666 26.95568577183666 26.95568577183666 26.97765976927303 26.95568577183666 26.95568577183666 26.95568577183666 26.95568577183666 26.95568577183666 26.95568577183666 26.95568577183666 26.95568577183666 26.95568577183666 26.95568577183666 26.95568577183666 26.95568577183666 26.95568577183666 26.95568577183666 26.95568577183666 26.95568577183666 26.95568577183666 26.95568577183666 26.95568577183666 26.95568577183666 26.95568577183666 26.95568577183666 26.97765976927303 26.999633766709394 27.02160776414576 27.065555759018494 27.087529756454863 27.131477751327594 27.197399743636698 27.329243728254898 27.483061710309467 27.592931697491302 27.724775682109502 27.922541659036806 28.076359641091376 28.47189159494598 28.669657571873284 28.999267533418788 29.262955502655192 29.790331441127996 29.944149423182566 30.471525361655374 30.86705731550998 31.174693279619117 31.702069218091925 31.987731184764694 32.3173411463102 32.97656106940121 33.306171030946714 33.943416956601354 34.207104925837754 34.55868888481963 34.9102728438015 35.37172678996521 35.70133675151071 36.404504669474456 36.931880607947264 37.28346456692913 37.65702252334737 38.29426844900202 38.99743636696576 39.34902032594763 40.008240249038636 40.601538179820544 41.019044131111514 41.76616004394799 42.20563999267533 42.62314594396631 43.08459989013001 43.45815784654825 44.007507782457424 44.60080571323933 45.06225965940304 45.83134956967588 46.292803515839594 46.71030946713056 47.36952939022157 48.09467130562168 48.60007324665812 49.544955136421905 50.094305072331075 50.90734297747665 51.50064090825856 52.31367881340414 53.104742721113354 53.720014649331624 54.57700054934993 55.52188243911371 56.02728438015016 56.906244277604834 57.87310016480498 58.73008606482329 59.367331990477936 60.004577916132575 60.97143380333272 62.24592565464201 62.707379600805716 63.586339498260394 64.83885735213332 65.49807727522432 66.1792711957517 67.12415308551547 68.04706097784288 68.92602087529757 69.87090276506135 70.44222669840688 71.32118659586156 72.00238051638894 72.74949642922542 73.32082036257097 74.08991027284381 74.79307819080753 75.27650613440761 76.19941402673503 76.7487639626442 77.34206189342612 77.78154184215344 78.26496978575352 79.18787767808094 79.86907159860831 80.33052554477202 81.20948544222671 81.56106940120857 81.97857535249955 82.41805530122689 82.98937923457243 83.51675517304523 84.11005310382714 84.61545504486358 85.07690899102728 85.4724409448819 86.02179088079106 86.5271928218275 86.90075077824574 87.36220472440945 87.82365867057317 88.10932063724593 88.6586705731551 88.90038454495513 89.18604651162791 89.53763047060978 89.73539644753708 90.06500640908259 90.39461637062809 90.70225233473722 91.0538362937191 91.29555026551914 91.64713422450102 91.80095220655558 91.99871818348288 92.26240615271928 92.43819813221022 92.5260941219557 92.61399011170116 92.6579381065739 92.723860098883 92.81175608862846 92.8557040835012 92.9216260758103 93.00952206555576 93.03149606299212 93.07544405786486 93.07544405786486 93.07544405786486 93.07544405786486 93.0534700604285 93.03149606299212 92.89965207837392 92.74583409631936 92.37227613990112 92.04266617835562 91.69108221937374 91.3834462552646 90.81212232191906 90.26277238600989 89.66947445522798 89.22999450650065 88.592748580846 88.10932063724593 87.42812671671855 86.72495879875481 86.21955685771837 85.49441494231826 85.01098699871818 84.3297930781908 83.69254715253618 83.23109320637246 82.39608130379051 81.97857535249955 81.29738143197216 80.83592748580847 80.08881157297199 79.34169566013551 78.57260574986266 77.84746383446256 77.21021790880792 76.59494598058964 75.78190807544406 74.99084416773485 74.37557223951657 73.65043032411646 72.88134041384362 72.33199047793445 71.54092657022522 70.77183665995238 70.20051272660686 69.3655008240249 68.64035890862479 67.98113898553379 66.83849111884271 66.22321919062443 65.60794726240616 64.83885735213332 64.2455594213514 63.432521516205824 62.55356161875115 61.7185497161692 60.83958981871452 60.158395898187145 59.41127998535067 58.51034609045962 58.20271012635048 57.08203625709577 56.400842336568395 55.60977842885919 54.79674052371361 54.203442592931694 53.08276872367698 52.51144479033144 52.02801684673137 51.19300494414942 50.577733015931145 49.940487090276505 48.86376121589453 48.40230726973082 47.63321735945797 47.039919428676065 46.776231459439664 46.16095953122139 45.50173960813038 44.93041567478484 44.33711774400293 43.80974180553012 43.348287859366415 42.95275590551181 42.38143197216627 41.76616004394799 41.37062809009339 40.84325215162058 40.315876213147774 39.942318256729536 39.21717634132943 38.88756637978392 38.53598242080205 38.09650247207471 37.7668925105292 37.3713605566746 37.041750595129095 36.690166636147225 36.38253067203809 36.07489470792895 35.81120673869255 35.50357077458341 35.28383080021974 35.0421168284197 34.58066288225599 34.207104925837754 33.943416956601354 33.701702984801315 33.306171030946714 32.91063907709211 32.646951107855706 32.27339315143747 31.987731184764694 31.81193920527376 31.57022523347372 31.394433253982786 31.042849295000916 30.823109320637247 30.647317341146312 30.36165537447354 30.20783739241897 30.07599340780077 29.76835744369163 29.63651345907343 29.48269547701886 29.372825489837027 29.240981505218826 29.065189525727888 28.889397546236953 28.55978758469145 28.34004761032778 28.18622962827321 28.05438564365501 28.010437648782275 27.96648965390954 27.922541659036806 27.87859366416407 27.834645669291337 27.81267167185497 27.790697674418606 27.768723676982237 27.74674967954587 27.724775682109502 27.724775682109502 27.702801684673137 27.68082768723677 27.658853689800402 27.636879692364037 27.592931697491302 27.570957700054933 27.548983702618568 27.505035707745833 27.505035707745833 27.483061710309467 27.461087712873102 27.439113715436733 27.439113715436733 27.417139718000367 27.395165720564 27.395165720564 27.395165720564 27.373191723127633 27.351217725691264 27.351217725691264 27.329243728254898 27.329243728254898 27.307269730818533 27.307269730818533 27.285295733382164 27.285295733382164 27.285295733382164 27.241347738509432 27.241347738509432 27.241347738509432 27.219373741073063 27.219373741073063 27.197399743636698 27.197399743636698 27.197399743636698 27.197399743636698 27.17542574620033 27.17542574620033 27.17542574620033 27.197399743636698 27.197399743636698 27.17542574620033 27.17542574620033 27.17542574620033 27.17542574620033 27.153451748763963 27.17542574620033 27.153451748763963 27.153451748763963 27.153451748763963 27.131477751327594 27.131477751327594 27.131477751327594 27.131477751327594 27.131477751327594 27.131477751327594 27.131477751327594 27.131477751327594 27.131477751327594 27.10950375389123 27.10950375389123 27.10950375389123 27.10950375389123 27.10950375389123 27.10950375389123 27.10950375389123 27.10950375389123 27.10950375389123 27.10950375389123 27.10950375389123 27.10950375389123 27.10950375389123 27.10950375389123 27.10950375389123 27.10950375389123 27.10950375389123 27.10950375389123 27.10950375389123 27.087529756454863 27.087529756454863 27.10950375389123 27.10950375389123 27.10950375389123 27.10950375389123 27.087529756454863 27.087529756454863 27.10950375389123 27.087529756454863 27.10950375389123 27.10950375389123 27.10950375389123 27.10950375389123 27.10950375389123 27.10950375389123 27.087529756454863 27.087529756454863 27.087529756454863 27.087529756454863 27.065555759018494 27.065555759018494 27.065555759018494 27.065555759018494 27.04358176158213 27.04358176158213 27.065555759018494 27.065555759018494 27.065555759018494 27.065555759018494 27.04358176158213 27.065555759018494 27.04358176158213 27.04358176158213 27.04358176158213 27.04358176158213 27.04358176158213 27.04358176158213 27.04358176158213 27.04358176158213 27.04358176158213 27.04358176158213 27.04358176158213 27.04358176158213 27.065555759018494 27.04358176158213 27.065555759018494 27.04358176158213 27.04358176158213 27.04358176158213 27.04358176158213 27.04358176158213 27.04358176158213 27.04358176158213 27.065555759018494 27.04358176158213 27.04358176158213 27.04358176158213 27.04358176158213 27.04358176158213 27.04358176158213 27.04358176158213 27.04358176158213 27.04358176158213 27.04358176158213 27.04358176158213 27.04358176158213 27.04358176158213 27.04358176158213 27.04358176158213 27.04358176158213 27.04358176158213 27.04358176158213 27.04358176158213 27.04358176158213 27.04358176158213 27.04358176158213 27.04358176158213 27.04358176158213 27.04358176158213 27.04358176158213 27.04358176158213 27.04358176158213 27.04358176158213 27.04358176158213 27.04358176158213 27.04358176158213 27.04358176158213 27.04358176158213 27.04358176158213 27.04358176158213 27.04358176158213 27.04358176158213 27.04358176158213 27.04358176158213 27.02160776414576 27.04358176158213 27.02160776414576 27.02160776414576 27.02160776414576 27.04358176158213 27.02160776414576 27.02160776414576 27.02160776414576 27.02160776414576 27.02160776414576 27.02160776414576 27.02160776414576 27.02160776414576 27.02160776414576 27.02160776414576 27.02160776414576 27.02160776414576 27.02160776414576 27.02160776414576 27.02160776414576 27.02160776414576 27.02160776414576 27.02160776414576 27.02160776414576 27.02160776414576 27.02160776414576 27.02160776414576 27.02160776414576 27.02160776414576 27.02160776414576 27.02160776414576 27.02160776414576 27.02160776414576 27.02160776414576 27.02160776414576 27.02160776414576 27.02160776414576 27.02160776414576 27.02160776414576 27.02160776414576 27.02160776414576 26.999633766709394 27.02160776414576 27.02160776414576 27.02160776414576 27.02160776414576 27.02160776414576 27.02160776414576 27.04358176158213 27.04358176158213 27.04358176158213 27.04358176158213 27.04358176158213 27.04358176158213 27.065555759018494 27.065555759018494 27.087529756454863 27.10950375389123 27.219373741073063 27.241347738509432 27.329243728254898 27.592931697491302 27.90056766160044 28.142281633400476 28.53781358725508 28.801501556491484 29.372825489837027 29.70243545138253 30.054019410364404 30.691265336019043 31.15271928218275 31.57022523347372 32.14154916681926 32.778795092473906 33.416041018128546 33.83354696941952 34.29500091558323 34.9761948361106 35.39370078740157 36.22871268998352 36.953854605383626 37.48123054385644 38.20637245925654 38.75572239516572 39.48086431056583 40.227980223402305 40.90917414392968 41.54642006958433 42.27156198498443 42.776963926020876 43.48013184398462 44.11737776963926 44.51290972349386 45.04028566196667 45.36989562351218 45.83134956967588 46.248855520966856 46.556491485075995 47.2816334004761 47.89690532869437 48.07269730818531 48.68796923640359 49.32521516205823 49.76469511078557 50.62168101080388 51.12708295184032 51.76432887749496 52.48947079289508 52.994872733931516 54.00567661600439 54.31331258011353 55.03845449551364 55.82951840322285 56.356894341695664 57.169932246841235 57.98297015198681 58.55429408533236 59.41127998535067 60.004577916132575 60.88353781358725 62.09210767258744 62.707379600805716 63.322651529023986 64.4433253982787 64.75096136238784 65.5859732649698 66.48690715986083 67.29994506500641 68.39864493682475 68.77220289324299 69.45339681377037 69.98077275224318 70.74986266251602 71.47500457791614 72.22212049075262 72.72752243178905 73.40871635231643 73.91411829335286 74.66123420618933 75.10071415491669 76.04559604468047 76.57297198315328 77.05639992675334 77.64969785753524 78.5506317524263 79.01208569859 79.64933162424464 79.93499359091741 80.52829152169933 81.12158945248123 81.78080937557223 82.44002929866325 83.09924922175426 83.6046511627907 84.1979490935726 84.63742904229994 85.31862296282733 85.9338948910456 86.35140084233657 86.96667277055485 87.58194469877311 87.97747665262773 88.7905145577733 89.18604651162791 89.75737044497345 90.17487639626442 90.54843435268266 91.00988829884636 91.69108221937374 92.02069218091924 92.50412012451932 92.7897820911921 93.14136605017397 93.383080021974 93.58084599890131 93.95440395531953 94.24006592199231 94.43783189891961 94.63559787584691 94.74546786302875 94.85533785021059 94.87731184764695 94.87731184764695 94.87731184764695 94.85533785021059 94.76744186046513 94.48177989379235 94.13019593481047 93.75663797839223 93.383080021974 93.07544405786486 92.67991210401026 92.35030214246476 91.82292620399194 91.1197582860282 90.57040835011902 89.84526643471892 89.71342245010072 89.22999450650065 88.54880058597325 88.04339864493683 87.27430873466398 86.5271928218275 85.9998168833547 85.18677897820913 84.3957150704999 83.75846914484526 82.72569126533602 81.93462735762681 81.29738143197216 80.59421351400843 79.73722761399011 78.85826771653544 78.02325581395348 77.69364585240798 76.99047793444424 76.15546603186229 75.07874015748033 74.55136421900751 73.8921442959165 73.07910639077092 72.48580845998902 71.67277055484342 70.9036806445706 70.35433070866142 69.5632668009522 68.8381248855521 68.31074894707929 67.60758102911555 66.92638710858817 66.35506317524263 65.78373924189708 65.36623329060612 64.7729353598242 64.00384544955136 63.608313495696756 63.212781541842155 62.50961362387841 62.22395165720564 61.76249771104193 61.23512177256912 60.641823841787215 60.136421900750776 59.740889946896175 59.3893059879143 58.97180003662333 58.62021607764146 58.09284013916865 57.74125618018678 57.27980223402307 56.818348287859365 56.488738326313864 55.78557040835012 55.49990844167735 55.21424647500458 54.81871452114997 54.5330525544772 54.15949459805896 53.61014466214979 53.346456692913385 52.994872733931516 52.731184764695115 52.40157480314961 52.2038088262223 51.8741988646768 51.5445889031313 51.23695293902216 51.03918696209485 50.73155099798572 50.533785021058414 50.226149056949275 49.962461087712875 49.742721113349205 49.39113715436733 49.06152719282183 48.84178721845816 48.33638527742171 47.94085332356711 47.54532136971251 47.215711408167 46.93004944149423 46.534517487639626 46.13898553378502 45.83134956967588 45.47976561069402 45.19410364402124 44.8864676799121 44.64475370811206 44.271195751693824 43.85368980040286 43.655923823475554 43.392235854239146 43.08459989013001 42.798937923457245 42.53524995422084 42.2276139901117 41.98590001831167 41.59036806445706 41.26075810291155 41.019044131111514 40.68943416956601 40.315876213147774 39.964292254165905 39.7006042849295 39.41494231825673 39.15125434902033 38.84361838491119 38.60190441311115 38.14045046694744 37.89873649514741 37.59110053103827 37.3713605566746 36.975828602819995 36.58029664896539 36.22871268998352 35.87712873100165 35.45962277971068 34.9761948361106 34.69053286943783 34.36092290789233 34.11920893609229 33.767624977110415 33.525911005310384 33.240249038637614 32.932613074528476 32.75682109503754 32.3832631386193 32.20747115912837 32.0536531770738 31.855887200146494 31.65812122321919 31.482329243728255 31.24061527192822 31.196667277055482 30.998901300128182 30.86705731550998 30.713239333455412 30.51547335652811 30.36165537447354 30.185863394982604 30.010071415491666 29.8562534334371 29.680461453946165 29.460721479582496 29.19703351034609 29.021241530855153 28.84544955136422 28.581761582127815 28.18622962827321 27.988463651345906 27.856619666727706 27.790697674418606 27.74674967954587 27.724775682109502 27.68082768723677 27.658853689800402 27.636879692364037 27.614905694927668 27.570957700054933 27.570957700054933 27.548983702618568 27.548983702618568 27.548983702618568 27.527009705182202 27.548983702618568 27.548983702618568 27.548983702618568 27.527009705182202 27.505035707745833 27.483061710309467 27.461087712873102 27.439113715436733 27.373191723127633 27.351217725691264 27.285295733382164 27.263321735945798 27.219373741073063 27.197399743636698 27.17542574620033 27.131477751327594 27.087529756454863 27.087529756454863 27.087529756454863 27.087529756454863 27.087529756454863 27.087529756454863 27.087529756454863 27.087529756454863 27.065555759018494 27.065555759018494 27.087529756454863 27.087529756454863 27.065555759018494 27.065555759018494 27.087529756454863 27.065555759018494 27.065555759018494 27.065555759018494 27.065555759018494 27.065555759018494 27.065555759018494 27.065555759018494 27.065555759018494 27.065555759018494 27.065555759018494 27.065555759018494 27.04358176158213 27.04358176158213 27.04358176158213 27.065555759018494 27.04358176158213 27.04358176158213 27.04358176158213 27.04358176158213 27.02160776414576 27.04358176158213 27.02160776414576 27.02160776414576 27.04358176158213 27.04358176158213 27.04358176158213 27.04358176158213 27.02160776414576 27.02160776414576 27.02160776414576 27.02160776414576 27.02160776414576 27.02160776414576 27.02160776414576 26.999633766709394 26.999633766709394 26.97765976927303 26.97765976927303 26.95568577183666 26.95568577183666 26.933711774400294 26.933711774400294 26.911737776963925 26.88976377952756 26.88976377952756 26.867789782091194 26.867789782091194 26.867789782091194 26.867789782091194 26.867789782091194 26.845815784654825 26.845815784654825 26.845815784654825 26.845815784654825 26.82384178721846 26.845815784654825 26.82384178721846 26.845815784654825 26.82384178721846 26.845815784654825 26.845815784654825 26.845815784654825 26.82384178721846 26.82384178721846 26.845815784654825 26.82384178721846 26.82384178721846 26.82384178721846 26.82384178721846 26.82384178721846 26.82384178721846 26.82384178721846 26.82384178721846 26.82384178721846 26.82384178721846 26.82384178721846 26.82384178721846 26.82384178721846 26.82384178721846 26.82384178721846 26.82384178721846 26.82384178721846 26.80186778978209 26.80186778978209 26.80186778978209 26.82384178721846 26.80186778978209 26.80186778978209 26.80186778978209 26.80186778978209 26.80186778978209 26.80186778978209 26.80186778978209 26.80186778978209 26.80186778978209 26.80186778978209 26.80186778978209 26.80186778978209 26.80186778978209 26.80186778978209 26.779893792345725 26.779893792345725 26.779893792345725 26.779893792345725 26.779893792345725 26.779893792345725 26.779893792345725 26.779893792345725 26.779893792345725 26.779893792345725 26.779893792345725 26.757919794909355 26.779893792345725 26.779893792345725 26.757919794909355 26.779893792345725 26.779893792345725 26.779893792345725 26.757919794909355 26.779893792345725 26.757919794909355 26.757919794909355 26.779893792345725 26.779893792345725 26.757919794909355 26.757919794909355 26.757919794909355 26.757919794909355 26.757919794909355 26.757919794909355 26.757919794909355 26.757919794909355 26.757919794909355 26.757919794909355 26.757919794909355 26.757919794909355 26.757919794909355 26.757919794909355 26.757919794909355 26.757919794909355 26.757919794909355 26.757919794909355 26.757919794909355 26.757919794909355 26.757919794909355 26.757919794909355 26.757919794909355 26.757919794909355 26.757919794909355 26.757919794909355 26.757919794909355 26.757919794909355 26.757919794909355 26.757919794909355 26.757919794909355 26.757919794909355 26.757919794909355 26.757919794909355 26.757919794909355 26.757919794909355 26.757919794909355 26.757919794909355 26.757919794909355 26.779893792345725 26.757919794909355 26.779893792345725 26.757919794909355 26.779893792345725 26.779893792345725 26.779893792345725 26.779893792345725 26.80186778978209 26.80186778978209 26.80186778978209 26.80186778978209 26.82384178721846 26.845815784654825 26.867789782091194 26.95568577183666 26.999633766709394 27.153451748763963 27.461087712873102 27.658853689800402 28.12030763596411 28.449917597509614 28.64768357443692 29.19703351034609 29.372825489837027 30.07599340780077 30.845083318073613 31.042849295000916 31.614173228346456 32.0536531770738 32.62497711041934 33.174327046328514 33.591832997619484 34.16315693096502 34.7784288591833 35.21790880791064 35.921076725874386 36.712140633583594 37.15162058231093 37.52517853872917 37.92071049258378 38.47006042849295 39.04138436183849 39.4369163156931 40.052188243911374 40.42574620032961 40.68943416956601 40.97509613623878 41.37062809009339 41.65629005676616 42.2276139901117 42.60117194652994 43.040651895257284 43.568027833730085 43.941585790148324 44.4909357260575 44.93041567478484 45.52371360556674 46.16095953122139 46.842153451748764 47.259659403039734 47.72111334920344 48.42428126716719 49.171397180003666 49.654825123603736 50.42391503387658 51.25892693645852 51.8082768723677 52.97289873649515 53.698040651895255 54.37923457242263 55.06042849295001 56.02728438015016 56.884270280168465 57.85112616736861 58.44442409815052 59.3233839956052 60.004577916132575 60.88353781358725 61.80644570591467 62.44369163156931 63.344625526460355 64.1796374290423 64.81688335469694 65.76176524446072 66.3111151803699 67.1681010803882 68.06903497527925 68.68430690349753 69.91485075993407 70.81578465482514 71.4310565830434 72.37593847280718 73.05713239333456 73.78227430873466 74.28767624977111 75.10071415491669 75.8258560703168 76.59494598058964 77.12232191906244 77.86943783189892 78.352865775499 78.99011170115364 79.671305621681 80.15473356528108 80.85790148324483 81.45119941402675 81.86870536531771 82.65976927302691 83.27504120124519 83.62662516022706 84.0001831166453 84.37374107306354 84.92309100897272 85.8679728987365 86.19758286028201 86.61508881157297 86.96667277055485 87.47207471159129 87.82365867057317 88.28511261673685 88.74656656290057 89.09815052188245 89.55960446804615 90.13092840139169 90.328694378319 90.7242263321736 91.14173228346456 91.42739425013734 91.80095220655558 92.06464017579198 92.32832814502838 92.63596410913752 92.87767808093756 93.09741805530123 93.20728804248306 93.29518403222853 93.40505401941037 93.4490020142831 93.47097601171946 93.47097601171946 93.4490020142831 93.42702801684673 93.36110602453763 93.20728804248306 92.96557407068303 92.74583409631936 92.3942501373375 92.06464017579198 91.69108221937374 91.33949826039188 90.90001831166454 90.54843435268266 90.04303241164622 89.58157846548252 89.12012451931881 88.43893059879144 87.93352865775499 87.34023072697309 86.74693279619117 86.21955685771837 85.7361289141183 85.18677897820913 84.50558505768174 83.802417139718 83.01135323200879 82.54989928584509 81.89067936275407 81.18751144479035 80.72605749862663 79.91301959348105 79.42959164988098 78.63852774217176 77.86943783189892 77.0783739241897 76.24336202160777 75.5621681010804 74.66123420618933 74.08991027284381 73.21095037538913 71.91448452664348 71.25526460355246 70.77183665995238 69.84892876762498 69.2336568394067 68.39864493682475 67.40981505218824 66.46493316242447 65.54202527009704 64.83885735213332 63.981871452114994 63.322651529023986 62.39974363669658 61.45486174693279 60.81761582127815 59.82878593664164 58.9278520417506 58.15876213147775 57.169932246841235 56.554660318622965 56.00531038271379 55.12635048525911 54.401208569859 53.895806628822555 52.928950741622415 52.423548800585976 51.8082768723677 51.39077092107672 50.90734297747665 50.48983702618568 50.050357077458344 49.56692913385827 49.19337117744003 48.90770921076726 48.51217725691265 48.20454129280351 47.61124336202161 47.2816334004761 46.952023438930595 46.468595495330526 45.985167551730456 45.54568760300312 44.86449368247574 44.271195751693824 43.87566379783922 43.502105841420985 43.128547885002746 42.42537996703901 41.91997802600257 41.52444607214796 40.953122138802414 40.601538179820544 40.052188243911374 39.6346822926204 39.12928035158396 38.64585240798389 38.25032045412928 37.96465848745651 37.59110053103827 37.28346456692913 36.887932613074526 36.58029664896539 36.294634682292624 35.89910272843802 35.61344076176525 35.23988280534701 34.88829884636513 34.53671488738326 34.207104925837754 34.009338948910454 33.789598974546784 33.525911005310384 33.240249038637614 32.998535066837576 32.734847097601175 32.55905511811024 32.29536714887384 32.0536531770738 31.833913202710125 31.68009522065556 31.50430324116462 31.262589269364586 30.998901300128182 30.801135323200878 30.537447353964474 30.251785387291704 30.163889397546235 29.944149423182566 29.76835744369163 29.438747482146127 29.284929500091557 29.131111518036988 28.823475553927853 28.669657571873284 28.53781358725508 28.31807361289141 28.09833363852774 27.922541659036806 27.87859366416407 27.856619666727706 27.834645669291337 27.834645669291337 27.81267167185497 27.81267167185497 27.790697674418606 27.768723676982237 27.768723676982237 27.724775682109502 27.702801684673137 27.68082768723677 27.658853689800402 27.614905694927668 27.592931697491302 27.570957700054933 27.527009705182202 27.505035707745833 27.483061710309467 27.417139718000367 27.417139718000367 27.373191723127633 27.329243728254898 27.285295733382164 27.241347738509432 27.197399743636698 27.153451748763963 27.10950375389123 27.04358176158213 27.02160776414576 26.999633766709394 26.95568577183666 26.933711774400294 26.911737776963925 26.88976377952756 26.867789782091194 26.867789782091194 26.867789782091194 26.867789782091194 26.845815784654825 26.845815784654825 26.845815784654825 26.845815784654825 26.845815784654825 26.82384178721846 26.82384178721846 26.82384178721846 26.80186778978209 26.80186778978209 26.80186778978209 26.779893792345725 26.757919794909355 26.73594579747299 26.713971800036624 26.713971800036624 26.691997802600255 26.67002380516389 26.67002380516389 26.626075810291155 26.626075810291155 26.626075810291155 26.60410181285479 26.60410181285479 26.60410181285479 26.58212781541842 26.60410181285479 26.58212781541842 26.60410181285479 26.58212781541842 26.60410181285479 26.58212781541842 26.58212781541842 26.58212781541842 26.58212781541842 26.58212781541842 26.58212781541842 26.58212781541842 26.58212781541842 26.58212781541842 26.58212781541842 26.58212781541842 26.560153817982055 26.560153817982055 26.560153817982055 26.51620582310932 26.51620582310932 26.494231825672955 26.472257828236586 26.45028383080022 26.406335835927486 26.36238784105475 26.318439846182017 26.274491851309286 26.23054385643655 26.186595861563816 26.120673869254716 26.098699871818347 26.054751876945616 26.032777879509247 26.032777879509247 26.032777879509247 26.032777879509247 26.032777879509247 26.032777879509247 26.032777879509247 26.032777879509247 26.032777879509247 26.01080388207288 26.01080388207288 26.032777879509247 26.032777879509247 26.01080388207288 26.01080388207288 26.01080388207288 26.01080388207288 26.01080388207288 26.01080388207288 26.01080388207288 26.01080388207288 26.01080388207288 26.01080388207288 26.032777879509247 26.032777879509247 26.032777879509247 26.032777879509247 26.032777879509247 26.032777879509247 26.032777879509247 26.032777879509247 26.032777879509247 26.032777879509247 26.032777879509247 26.032777879509247 26.032777879509247 26.032777879509247 26.032777879509247 26.032777879509247 26.032777879509247 26.032777879509247 26.032777879509247 26.032777879509247 26.032777879509247 26.032777879509247 26.032777879509247 26.032777879509247 26.032777879509247 26.032777879509247 26.032777879509247 26.032777879509247 26.01080388207288 26.01080388207288 26.032777879509247 26.01080388207288 26.01080388207288 26.01080388207288 26.01080388207288 26.01080388207288 26.01080388207288 26.01080388207288 26.01080388207288 26.01080388207288 26.01080388207288 26.01080388207288 26.01080388207288 26.01080388207288 26.01080388207288 26.01080388207288 26.01080388207288 26.01080388207288 26.01080388207288 25.988829884636512 26.01080388207288 26.01080388207288 26.01080388207288 26.01080388207288 26.01080388207288 26.01080388207288 26.01080388207288 26.01080388207288 25.988829884636512 26.01080388207288 26.01080388207288 26.01080388207288 26.01080388207288 26.01080388207288 26.01080388207288 26.01080388207288 26.01080388207288 26.01080388207288 26.01080388207288 26.01080388207288 25.988829884636512 26.01080388207288 26.01080388207288 25.988829884636512 26.01080388207288 26.01080388207288 26.01080388207288 26.01080388207288 25.988829884636512 25.988829884636512 25.988829884636512 25.988829884636512 26.01080388207288 26.01080388207288 26.01080388207288 25.988829884636512 26.01080388207288 25.988829884636512 26.01080388207288 26.01080388207288 26.01080388207288 25.988829884636512 25.988829884636512 25.988829884636512 26.01080388207288 26.01080388207288 25.988829884636512 25.988829884636512 25.988829884636512 25.988829884636512 25.988829884636512 25.988829884636512 25.988829884636512 26.01080388207288 26.01080388207288 25.988829884636512 26.01080388207288 25.988829884636512 26.01080388207288 26.01080388207288 25.988829884636512 26.01080388207288 25.988829884636512 25.988829884636512 26.01080388207288 26.01080388207288 25.988829884636512 25.988829884636512 26.01080388207288 25.988829884636512 25.988829884636512 25.988829884636512 26.01080388207288 25.988829884636512 25.988829884636512 25.988829884636512 25.988829884636512 25.988829884636512 25.988829884636512 25.988829884636512 26.01080388207288 25.988829884636512 25.988829884636512 25.988829884636512 26.01080388207288 25.988829884636512 25.988829884636512 25.988829884636512 25.988829884636512 25.966855887200147 25.966855887200147 25.966855887200147 25.966855887200147 25.966855887200147 25.988829884636512 25.966855887200147 25.988829884636512 25.966855887200147 25.966855887200147 25.966855887200147 25.988829884636512 25.966855887200147 25.966855887200147 25.966855887200147 