29.0 29.0 29.0 29.0 29.0 29.0 29.0 29.0 29.030763596410914 29.0 29.0 29.030763596410914 29.0 29.0 29.0 29.0 29.0 29.0 29.0 29.030763596410914 29.0 29.0 29.030763596410914 29.0 29.0 29.0 29.0 29.0 29.030763596410914 29.0 29.0 29.0 29.0 29.0 29.0 29.0 29.0 29.0 29.0 29.0 29.030763596410914 29.0 29.0 29.0 29.0 29.030763596410914 29.0 29.0 29.0 29.0 29.0 29.0 29.0 29.0 29.0 29.0 29.0 29.0 29.0 29.0 29.0 29.0 29.0 29.0 29.0 29.0 29.0 29.0 29.0 29.0 29.0 29.030763596410914 29.0 29.0 29.030763596410914 29.0 29.0 29.030763596410914 29.0 29.0 29.0 29.0 29.0 29.0 29.0 29.0 29.0 29.0 29.0 29.0 29.0 29.0 29.0 29.030763596410914 29.0 29.030763596410914 29.0 29.0 29.0 29.0 29.0 29.030763596410914 29.0 29.0 29.0 29.0 29.0 29.030763596410914 29.0 29.0 29.0 29.030763596410914 29.0 29.0 29.0 29.0 29.0 29.0 29.0 29.0 29.0 29.030763596410914 29.0 29.0 29.0 29.0 29.030763596410914 29.0 29.0 29.0 29.0 29.030763596410914 29.0 29.0 29.0 29.0 29.030763596410914 29.0 29.0 29.0 29.0 29.0 29.0 29.0 29.0 29.0 29.0 29.0 29.0 29.0 29.0 29.0 29.0 29.0 29.0 29.0 29.030763596410914 29.0 29.0 29.0 29.0 29.0 29.0 29.0 29.0 29.0 29.0 29.0 29.0 29.0 29.0 29.0 29.0 29.0 29.0 29.0 29.0 29.0 29.030763596410914 29.0 29.0 29.0 29.0 29.0 29.0 29.0 29.0 29.030763596410914 29.0 29.0 29.0 29.0 29.0 29.0 29.0 29.0 29.0 29.0 29.0 29.0 29.030763596410914 29.0 29.030763596410914 29.0 29.0 29.0 29.0 29.0 29.0 29.0 29.0 29.0 29.0 29.0 29.030763596410914 29.030763596410914 29.0 29.030763596410914 29.0 29.0 29.0 29.0 29.030763596410914 29.0 29.0 29.0 29.0 29.0 29.0 29.0 29.0 29.030763596410914 29.0 29.0 29.0 29.030763596410914 29.0 29.0 29.0 29.0 29.0 29.0 29.0 29.0 29.0 29.0 29.0 29.0 29.0 29.0 29.0 29.0 29.030763596410914 29.0 29.0 29.0 29.0 29.0 29.0 29.0 29.030763596410914 29.0 29.0 29.030763596410914 29.0 29.0 29.0 29.0 29.0 29.0 29.0 29.0 29.0 29.0 29.0 29.0 29.0 29.0 29.030763596410914 29.0 29.0 29.0 29.0 29.0 29.0 29.0 29.0 29.0 29.0 29.0 29.0 29.030763596410914 29.0 29.0 29.0 29.0 29.0 29.0 29.0 29.0 29.0 29.0 29.0 29.0 29.0 29.0 29.0 29.0 29.030763596410914 29.0 29.0 29.0 29.030763596410914 29.0 29.0 29.0 29.0 29.0 29.030763596410914 29.0 29.0 29.0 29.0 29.030763596410914 29.0 29.0 29.030763596410914 29.0 29.0 29.0 29.0 29.0 29.030763596410914 29.0 29.0 29.0 29.0 29.0 29.0 29.030763596410914 29.0 29.0 29.0 29.0 29.0 29.0 29.030763596410914 29.0 29.0 29.0 29.0 29.0 29.0 29.0 29.0 29.0 29.0 29.0 29.0 29.0 29.0 29.0 29.0 29.030763596410914 29.0 29.0 29.0 29.0 29.0 29.0 29.030763596410914 29.0 29.0 29.0 29.030763596410914 29.0 29.0 29.0 29.030763596410914 29.0 29.0 29.0 29.030763596410914 29.030763596410914 29.0 29.0 29.0 29.0 29.030763596410914 29.0 29.0 29.0 29.0 29.0 29.030763596410914 29.0 29.0 29.0 29.0 29.0 29.0 29.0 29.0 29.0 29.0 29.0 29.0 29.0 29.0 29.030763596410914 29.0 29.0 29.0 29.0 29.0 29.0 29.0 29.0 29.0 29.0 29.0 29.0 29.0 29.030763596410914 29.030763596410914 29.0 29.0 29.0 29.0 29.0 29.0 29.0 29.030763596410914 29.0 29.0 29.0 29.0 29.0 29.0 29.0 29.0 29.0 29.0 29.0 29.0 29.030763596410914 29.0 29.0 29.0 29.0 29.0 29.0 29.0 29.0 29.0 29.0 29.0 29.0 29.0 29.0 29.0 29.0 29.0 29.0 29.0 29.0 29.0 29.0 29.0 29.0 29.030763596410914 29.0 29.0 29.0 29.0 29.0 29.0 29.0 29.0 29.030763596410914 29.0 29.030763596410914 29.0 29.0 29.030763596410914 29.0 29.0 29.0 29.030763596410914 29.0 29.0 29.0 29.030763596410914 29.0 29.0 29.0 29.0 29.030763596410914 29.0 29.0 29.0 29.0 29.0 29.0 29.0 29.0 29.0 29.0 29.0 29.0 29.0 29.0 29.0 29.0 29.0 29.0 29.0 29.0 29.030763596410914 29.0 29.030763596410914 29.0 29.0 29.0 29.0 29.0 29.0 29.0 29.0 29.030763596410914 29.0 29.0 29.0 29.0 29.0 29.0 29.0 29.0 29.0 29.030763596410914 29.0 29.0 29.0 29.030763596410914 29.0 29.0 29.0 29.030763596410914 29.0 29.0 29.0 29.0 29.030763596410914 29.0 29.0 29.0 29.0 29.0 29.0 29.0 29.030763596410914 29.030763596410914 29.0 29.0 29.0 29.0 29.0 29.0 29.0 29.0 29.0 29.030763596410914 29.0 29.0 29.0 29.0 29.0 29.0 29.0 29.0 29.0 29.0 29.030763596410914 29.0 29.0 29.0 29.0 29.030763596410914 29.0 29.0 29.0 29.0 29.0 29.0 29.0 29.0 29.0 29.0 29.0 29.0 29.0 29.030763596410914 29.0 29.0 29.0 29.0 29.0 29.0 29.0 29.0 29.0 29.0 29.0 29.0 29.0 29.0 29.0 29.0 29.0 29.0 29.0 29.0 29.0 29.0 29.0 29.0 29.0 29.0 29.0 29.030763596410914 29.030763596410914 29.030763596410914 29.0 29.0 29.0 29.0 29.0 29.030763596410914 29.0 29.0 29.0 29.0 29.030763596410914 29.0 29.0 29.030763596410914 29.0 29.0 29.0 29.0 29.0 29.0 29.0 29.030763596410914 29.0 29.0 29.0 29.0 29.0 29.0 29.0 29.030763596410914 29.0 29.0 29.0 29.0 29.0 29.030763596410914 29.0 29.0 29.0 29.0 29.061527192821828 29.123054385643655 29.15381798205457 29.184581578465483 29.215345174876397 29.24610877128731 29.24610877128731 29.276872367698225 29.276872367698225 29.30763596410914 29.338399560520052 29.338399560520052 29.338399560520052 29.39992675334188 29.39992675334188 29.39992675334188 29.461453946163708 29.522981138985532 29.553744735396446 29.646035524629188 29.707562717451015 29.799853506683757 29.8921442959165 29.953671488738326 30.015198681560154 30.07672587438198 30.13825306720381 30.23054385643655 30.322834645669293 30.47665262772386 30.5689434169566 30.845815784654825 31.030397363120308 31.12268815235305 31.36879692364036 31.676432887749495 31.86101446621498 32.1378868339132 32.32246841237868 32.53781358725508 32.78392235854239 32.968503937007874 33.214612708295185 33.460721479582496 33.64530305804798 33.89141182933528 34.075993407800766 34.383629371909905 34.72202893242996 35.09119208936092 35.36806445705915 35.76799121040103 36.07562717451016 36.69089910272844 37.060062259659404 37.398461820179456 38.013733748397726 38.44442409815052 38.81358725508149 39.18275041201245 39.644204358176154 40.136421900750776 40.536348654092656 41.02856619666728 41.42849295000916 41.7668925105292 42.22834645669291 42.566746017212964 43.058963559787585 43.48965390954038 43.828053470060425 44.4433253982787 44.96630653726424 45.36623329060612 45.76616004394799 46.16608679728987 46.68906793627541 47.519685039370074 47.98113898553378 48.65793810657389 49.27321003479216 49.76542757736678 50.19611792711957 50.62680827687237 51.33437099432338 51.949642922541656 52.38033327229445 52.96484160410181 53.45705914667643 53.918513092840136 54.226149056949275 54.44149423182567 54.7183665995239 54.99523896722212 55.21058414209851 55.48745650979674 55.91814685954953 56.16425563083684 56.37960080571324 56.62570957700055 56.93334554110969 57.302508698040654 57.70243545138253 58.1023622047244 58.50228895806629 58.93297930781908 59.27137886833913 59.67130562168101 60.1019959714338 60.53268632118659 60.84032228529573 61.27101263504852 61.701702984801315 61.97857535249954 62.409265702252334 62.65537447353964 63.08606482329243 63.4552279802234 63.70133675151071 64.07049990844168 64.43966306537264 64.80882622230361 65.0549349935909 65.30104376487822 65.63944332539828 66.1624244643838 66.40853323567111 66.86998718183483 67.14685954953305 67.54678630287492 67.91594945980589 68.22358542391504 68.62351217725691 69.02343893059879 69.300311298297 69.66947445522797 69.91558322651528 70.28474638344625 70.65390954037721 70.90001831166452 71.17689067936274 71.45376304706097 71.63834462552646 71.85368980040286 71.9459805896356 72.09979857169017 72.31514374656656 72.37667093938839 72.53048892144295 72.80736128914117 72.96117927119576 73.17652444607214 73.33034242812671 73.60721479582494 73.88408716352316 74.13019593481047 74.49935909174144 74.89928584508331 75.23768540560337 75.63761215894525 75.91448452664346 76.37593847280718 76.77586522614905 77.08350119025819 77.51419154001098 77.91411829335286 78.19099066105107 78.74473539644754 79.02160776414576 79.39077092107672 79.63687969236403 79.91375206006225 80.34444240981506 80.9289507416224 81.20582310932063 81.79033144112799 82.12873100164805 82.4671305621681 82.99011170115364 83.11316608679729 83.60538362937191 83.88225599707013 84.31294634682291 84.74363669657572 85.05127266068484 85.60501739608131 86.03570774583409 86.2818165171214 86.4971616919978 86.7125068668742 86.98937923457241 87.32777879509247 87.45083318073613 87.69694195202344 87.94305072331073 88.09686870536532 88.21992309100898 88.40450466947445 88.68137703717267 88.86595861563816 89.01977659769273 89.23512177256913 89.4197033510346 89.57352133308916 89.75810291155466 89.88115729719831 90.03497527925288 90.12726606848562 90.18879326130745 90.28108405054019 90.37337483977294 90.37337483977294 90.37337483977294 90.37337483977294 90.37337483977294 90.37337483977294 90.37337483977294 90.37337483977294 90.37337483977294 90.37337483977294 90.34261124336201 90.34261124336201 90.3118476469511 90.25032045412928 90.18879326130745 90.12726606848562 90.00421168284197 89.94268449002014 89.78886650796557 89.69657571873282 89.60428492950008 89.54275773667825 89.48123054385643 89.45046694744552 89.38893975462369 89.35817615821279 89.35817615821279 89.35817615821279 89.35817615821279 89.35817615821279 89.35817615821279 89.35817615821279 89.35817615821279 89.35817615821279 89.35817615821279 89.35817615821279 89.38893975462369 89.38893975462369 89.38893975462369 89.38893975462369 89.38893975462369 89.38893975462369 89.38893975462369 89.38893975462369 89.38893975462369 89.38893975462369 89.38893975462369 89.38893975462369 89.38893975462369 89.38893975462369 89.38893975462369 89.38893975462369 89.38893975462369 89.38893975462369 89.38893975462369 89.38893975462369 89.38893975462369 89.38893975462369 89.38893975462369 89.38893975462369 89.38893975462369 89.38893975462369 89.38893975462369 89.38893975462369 89.38893975462369 89.38893975462369 89.38893975462369 89.38893975462369 89.4197033510346 89.4197033510346 89.4197033510346 89.4197033510346 89.4197033510346 89.38893975462369 89.38893975462369 89.38893975462369 89.38893975462369 89.4197033510346 89.38893975462369 89.35817615821279 89.35817615821279 89.32741256180186 89.26588536898004 89.20435817615821 89.14283098333638 89.01977659769273 88.95824940487088 88.89672221204907 88.83519501922726 88.80443142281632 88.77366782640541 88.77366782640541 88.7429042299945 88.7429042299945 88.7429042299945 88.7429042299945 88.7429042299945 88.7429042299945 88.7429042299945 88.7429042299945 88.7429042299945 88.77366782640541 88.77366782640541 88.77366782640541 88.80443142281632 88.80443142281632 88.80443142281632 88.80443142281632 88.80443142281632 88.80443142281632 88.80443142281632 88.80443142281632 88.80443142281632 88.80443142281632 88.80443142281632 88.80443142281632 88.83519501922726 88.83519501922726 88.83519501922726 88.83519501922726 88.83519501922726 88.80443142281632 88.83519501922726 88.83519501922726 88.83519501922726 88.83519501922726 88.86595861563816 88.89672221204907 88.89672221204907 88.92748580845998 88.92748580845998 88.95824940487088 88.95824940487088 88.98901300128182 89.01977659769273 89.01977659769273 89.01977659769273 89.05054019410363 89.05054019410363 89.01977659769273 89.05054019410363 89.05054019410363 89.05054019410363 89.05054019410363 89.05054019410363 89.05054019410363 89.01977659769273 89.05054019410363 89.05054019410363 89.05054019410363 89.01977659769273 89.05054019410363 89.05054019410363 89.05054019410363 89.05054019410363 89.05054019410363 89.05054019410363 89.05054019410363 89.01977659769273 89.01977659769273 89.01977659769273 89.05054019410363 89.01977659769273 89.01977659769273 89.01977659769273 89.01977659769273 89.01977659769273 89.01977659769273 89.01977659769273 89.01977659769273 89.01977659769273 89.01977659769273 88.98901300128182 88.98901300128182 88.98901300128182 88.98901300128182 88.98901300128182 88.98901300128182 88.98901300128182 88.98901300128182 89.01977659769273 89.01977659769273 89.01977659769273 89.01977659769273 89.01977659769273 89.01977659769273 89.01977659769273 89.01977659769273 89.01977659769273 89.01977659769273 89.01977659769273 89.01977659769273 89.01977659769273 89.01977659769273 89.01977659769273 89.01977659769273 89.01977659769273 89.01977659769273 89.01977659769273 89.01977659769273 89.01977659769273 88.98901300128182 89.01977659769273 88.98901300128182 88.98901300128182 88.98901300128182 88.98901300128182 88.98901300128182 88.98901300128182 88.98901300128182 88.98901300128182 88.98901300128182 88.98901300128182 88.98901300128182 88.98901300128182 88.98901300128182 88.98901300128182 88.98901300128182 88.98901300128182 88.98901300128182 88.98901300128182 88.98901300128182 88.98901300128182 88.98901300128182 88.98901300128182 88.98901300128182 88.98901300128182 88.98901300128182 89.01977659769273 89.01977659769273 89.01977659769273 89.01977659769273 89.05054019410363 89.11206738692547 89.11206738692547 89.14283098333638 89.17359457974729 89.14283098333638 89.17359457974729 89.17359457974729 89.14283098333638 89.14283098333638 89.14283098333638 89.14283098333638 89.17359457974729 89.17359457974729 89.14283098333638 89.14283098333638 89.14283098333638 89.14283098333638 89.14283098333638 89.14283098333638 89.14283098333638 89.14283098333638 89.14283098333638 89.14283098333638 89.14283098333638 89.14283098333638 89.14283098333638 89.14283098333638 89.14283098333638 89.14283098333638 89.14283098333638 89.14283098333638 89.14283098333638 89.14283098333638 89.14283098333638 89.14283098333638 89.14283098333638 89.11206738692547 89.11206738692547 89.08130379051455 89.01977659769273 88.92748580845998 88.80443142281632 88.65061344076176 88.4967954587072 88.31221388024171 88.15839589818714 88.03534151254348 87.78923274125617 87.48159677714705 87.29701519868155 87.05090642739424 86.86632484892877 86.62021607764146 86.40487090276505 86.18952572788865 85.72807178172496 85.358908624794 85.11279985350667 84.77440029298663 84.49752792528841 83.94378318989196 83.51309284013917 83.20545687603003 82.86705731550998 82.40560336934627 82.09796740523714 81.48269547701886 81.17505951290971 80.65207837392418 80.15986083134956 79.75993407800769 79.45229811389855 78.99084416773485 78.52939022157113 78.0064090825856 77.69877311847647 77.20655557590185 76.68357443691632 76.34517487639626 75.88372093023256 75.45303058047976 75.17615821278153 74.77623145943966 74.53012268815235 74.13019593481047 73.60721479582494 73.48416041018129 73.20728804248306 72.86888848196301 72.71507049990844 72.4074345357993 72.19208936092289 71.85368980040286 71.60758102911555 71.45376304706097 71.23841787218458 70.90001831166452 70.71543673319906 70.377037172679 70.16169199780259 69.82329243728255 69.4848928767625 69.23878410547519 68.90038454495513 68.68503937007873 68.28511261673685 67.94671305621681 67.7006042849295 67.39296832082036 67.08533235671122 66.74693279619117 66.56235121772569 66.37776963926021 66.10089727156199 65.79326130745284 65.63944332539828 65.51638893975462 65.27028016846731 65.14722578282365 65.02417139718 64.87035341512544 64.68577183665994 64.53195385460538 64.40889946896172 64.22431789049625 64.00897271561985 63.85515473356528 63.60904596227797 63.424464383812484 63.14759201611426 62.901483244826956 62.74766526277239 62.409265702252334 62.16315693096502 62.009338948910454 61.79399377403406 61.609412195568574 61.36330342428126 60.994140267350296 60.778795092473906 60.50192272477568 60.22505035707745 60.00970518220106 59.732832814502835 59.51748763962644 59.24061527192821 58.96374290422999 58.779161325764505 58.47152536165537 58.071598608313494 57.88701702984801 57.70243545138253 57.517853872917044 57.27174510162973 56.994872733931516 56.77952755905512 56.41036440212415 56.10272843801501 55.91814685954953 55.70280168467313 55.51822010620765 55.21058414209851 54.77989379234572 54.5030214246475 54.13385826771653 53.88774949642922 53.518586339498256 53.24171397180004 52.811023622047244 52.44186046511628 52.0419337117744 51.76506134407617 51.39589818714521 51.11902581944699 50.81138985533785 50.4729902948178 50.31917231276323 50.01153634865409 49.70390038454495 49.45779161325764 49.119392052737595 48.75022889580663 48.411829335286576 48.073429774766524 47.98113898553378 47.67350302142465 47.36586705731551 47.15052188243911 46.84288591832997 46.658304339864486 46.442959164988096 46.196850393700785 46.043032411646216 45.82768723676982 45.61234206189343 45.48928767624977 45.30470609778429 45.15088811572972 44.935542940853324 44.75096136238784 44.59714338033327 44.381798205456874 44.135689434169564 43.88958066288225 43.612708295184035 43.39736312030763 42.99743636696576 42.68980040285662 42.53598242080205 42.197582860282 41.73612891411829 41.459256546420065 41.090093389489105 40.843984618201794 40.50558505768174 40.136421900750776 39.890313129463465 39.5211499725325 39.18275041201245 38.93664164072514 38.629005676616 38.413660501739606 38.075260941219554 37.82915216993224 37.64457059146676 37.398461820179456 37.24464383812489 37.060062259659404 36.78318989196118 36.598608313495696 36.3832631386193 36.106390770921074 35.9218091924556 35.737227613990115 35.429591649880976 35.15271928218275 34.8143197216627 34.5989745467863 34.29133858267716 33.89141182933528 33.7068302508698 33.522248672404324 33.27613990111701 32.99926753341879 32.78392235854239 32.69163156930965 32.53781358725508 32.414759201611425 32.32246841237868 32.260941219556855 32.19941402673503 32.1378868339132 32.107123237502286 32.07635964109137 32.014832448269544 31.95330525544772 31.86101446621498 31.830250869804065 31.768723676982237 31.676432887749495 31.55337850210584 31.461087712873102 31.338033327229446 31.184215345174877 31.06116095953122 30.938106573887566 30.845815784654825 30.691997802600255 30.538179820545686 30.47665262772386 30.261307452847465 30.261307452847465 30.261307452847465 30.23054385643655 30.107489470792896 30.015198681560154 29.98443508514924 29.953671488738326 29.922907892327412 29.8921442959165 29.8921442959165 29.8921442959165 29.861380699505585 29.83061710309467 29.799853506683757 29.799853506683757 29.769089910272843 29.769089910272843 29.769089910272843 29.73832631386193 29.73832631386193 29.73832631386193 29.707562717451015 29.6767991210401 29.6767991210401 29.6767991210401 29.646035524629188 29.646035524629188 29.615271928218274 29.615271928218274 29.58450833180736 29.615271928218274 29.615271928218274 29.58450833180736 29.58450833180736 29.58450833180736 29.58450833180736 29.58450833180736 29.58450833180736 29.58450833180736 29.58450833180736 29.58450833180736 29.58450833180736 29.553744735396446 29.58450833180736 29.553744735396446 29.553744735396446 29.553744735396446 29.58450833180736 29.553744735396446 29.553744735396446 29.553744735396446 29.553744735396446 29.553744735396446 29.553744735396446 29.553744735396446 29.553744735396446 29.553744735396446 29.553744735396446 29.553744735396446 29.553744735396446 29.553744735396446 29.553744735396446 29.553744735396446 29.553744735396446 29.553744735396446 29.553744735396446 29.553744735396446 29.553744735396446 29.553744735396446 29.553744735396446 29.553744735396446 29.553744735396446 29.553744735396446 29.553744735396446 29.553744735396446 29.553744735396446 29.553744735396446 29.553744735396446 29.553744735396446 29.553744735396446 29.553744735396446 29.553744735396446 29.553744735396446 29.553744735396446 29.553744735396446 29.553744735396446 29.553744735396446 29.553744735396446 29.553744735396446 29.553744735396446 29.553744735396446 29.553744735396446 29.553744735396446 29.553744735396446 29.553744735396446 29.553744735396446 29.553744735396446 29.553744735396446 29.553744735396446 29.553744735396446 29.553744735396446 29.553744735396446 29.553744735396446 29.553744735396446 29.553744735396446 29.553744735396446 29.553744735396446 29.553744735396446 29.553744735396446 29.553744735396446 29.553744735396446 29.553744735396446 29.553744735396446 29.553744735396446 29.553744735396446 29.553744735396446 29.553744735396446 29.553744735396446 29.553744735396446 29.553744735396446 29.553744735396446 29.553744735396446 29.553744735396446 29.553744735396446 29.553744735396446 29.553744735396446 29.553744735396446 29.553744735396446 29.553744735396446 29.553744735396446 29.553744735396446 29.553744735396446 29.553744735396446 29.553744735396446 29.553744735396446 29.553744735396446 29.553744735396446 29.553744735396446 29.553744735396446 29.553744735396446 29.553744735396446 29.553744735396446 29.553744735396446 29.553744735396446 29.553744735396446 29.553744735396446 29.553744735396446 29.553744735396446 29.522981138985532 29.553744735396446 29.553744735396446 29.553744735396446 29.553744735396446 29.553744735396446 29.553744735396446 29.553744735396446 29.553744735396446 29.553744735396446 29.553744735396446 29.553744735396446 29.553744735396446 29.553744735396446 29.553744735396446 29.553744735396446 29.553744735396446 29.553744735396446 29.553744735396446 29.553744735396446 29.553744735396446 29.553744735396446 29.553744735396446 29.553744735396446 29.553744735396446 29.553744735396446 29.553744735396446 29.522981138985532 29.553744735396446 29.553744735396446 29.553744735396446 29.553744735396446 29.553744735396446 29.553744735396446 29.553744735396446 29.522981138985532 29.553744735396446 29.553744735396446 29.553744735396446 29.553744735396446 29.553744735396446 29.553744735396446 29.553744735396446 29.553744735396446 29.553744735396446 29.553744735396446 29.553744735396446 29.553744735396446 29.553744735396446 29.553744735396446 29.553744735396446 29.553744735396446 29.553744735396446 29.553744735396446 29.553744735396446 29.553744735396446 29.553744735396446 29.553744735396446 29.553744735396446 29.553744735396446 29.553744735396446 29.553744735396446 29.553744735396446 29.553744735396446 29.553744735396446 29.553744735396446 29.553744735396446 29.553744735396446 29.553744735396446 29.553744735396446 29.553744735396446 29.553744735396446 29.553744735396446 29.553744735396446 29.553744735396446 29.553744735396446 29.553744735396446 29.553744735396446 29.553744735396446 29.553744735396446 29.553744735396446 29.553744735396446 29.553744735396446 29.553744735396446 29.553744735396446 29.553744735396446 29.553744735396446 29.553744735396446 29.553744735396446 29.553744735396446 29.553744735396446 29.553744735396446 29.553744735396446 29.553744735396446 29.553744735396446 29.553744735396446 29.553744735396446 29.553744735396446 29.553744735396446 29.553744735396446 29.522981138985532 29.553744735396446 29.553744735396446 29.553744735396446 29.553744735396446 29.553744735396446 29.553744735396446 29.553744735396446 29.553744735396446 29.522981138985532 29.553744735396446 29.553744735396446 29.553744735396446 29.553744735396446 29.553744735396446 29.553744735396446 29.553744735396446 29.553744735396446 29.553744735396446 29.553744735396446 29.553744735396446 29.553744735396446 29.553744735396446 29.553744735396446 29.553744735396446 29.553744735396446 29.553744735396446 29.553744735396446 29.553744735396446 29.553744735396446 29.553744735396446 29.553744735396446 29.553744735396446 29.553744735396446 29.522981138985532 29.522981138985532 29.553744735396446 29.553744735396446 29.553744735396446 29.553744735396446 29.553744735396446 29.553744735396446 29.553744735396446 29.553744735396446 29.553744735396446 29.553744735396446 29.553744735396446 29.553744735396446 29.553744735396446 29.553744735396446 29.553744735396446 29.522981138985532 29.553744735396446 29.553744735396446 29.553744735396446 29.553744735396446 29.553744735396446 29.553744735396446 29.553744735396446 29.553744735396446 29.553744735396446 29.553744735396446 29.553744735396446 29.553744735396446 29.553744735396446 29.553744735396446 29.553744735396446 29.553744735396446 29.553744735396446 29.553744735396446 29.553744735396446 29.553744735396446 29.553744735396446 29.553744735396446 29.553744735396446 29.553744735396446 29.553744735396446 29.553744735396446 29.553744735396446 29.553744735396446 29.553744735396446 29.553744735396446 29.553744735396446 29.553744735396446 29.522981138985532 29.553744735396446 29.522981138985532 29.553744735396446 29.553744735396446 29.553744735396446 29.553744735396446 29.553744735396446 29.553744735396446 29.553744735396446 29.553744735396446 29.553744735396446 29.553744735396446 29.553744735396446 29.553744735396446 29.553744735396446 29.553744735396446 29.553744735396446 29.553744735396446 29.553744735396446 29.553744735396446 29.553744735396446 29.553744735396446 29.553744735396446 29.553744735396446 29.553744735396446 29.553744735396446 29.553744735396446 29.553744735396446 29.553744735396446 29.553744735396446 29.553744735396446 29.553744735396446 29.553744735396446 29.553744735396446 29.553744735396446 29.553744735396446 29.522981138985532 29.553744735396446 29.522981138985532 29.553744735396446 29.553744735396446 29.553744735396446 29.522981138985532 29.553744735396446 29.553744735396446 29.522981138985532 29.553744735396446 29.553744735396446 29.553744735396446 29.553744735396446 29.522981138985532 29.553744735396446 29.553744735396446 29.553744735396446 29.553744735396446 29.553744735396446 29.553744735396446 29.553744735396446 29.553744735396446 29.553744735396446 29.553744735396446 29.553744735396446 29.553744735396446 29.553744735396446 29.553744735396446 29.553744735396446 29.553744735396446 29.553744735396446 29.553744735396446 29.553744735396446 29.553744735396446 29.522981138985532 29.553744735396446 29.553744735396446 29.553744735396446 29.553744735396446 29.553744735396446 29.553744735396446 29.553744735396446 29.553744735396446 29.553744735396446 29.522981138985532 29.553744735396446 29.553744735396446 29.553744735396446 29.553744735396446 29.522981138985532 29.553744735396446 29.553744735396446 29.553744735396446 29.553744735396446 29.553744735396446 29.553744735396446 29.553744735396446 29.553744735396446 29.553744735396446 29.553744735396446 29.522981138985532 29.553744735396446 29.553744735396446 29.553744735396446 29.522981138985532 29.553744735396446 29.553744735396446 29.553744735396446 29.522981138985532 29.553744735396446 29.553744735396446 29.553744735396446 29.553744735396446 29.553744735396446 29.522981138985532 29.553744735396446 29.553744735396446 29.553744735396446 29.553744735396446 29.553744735396446 29.522981138985532 29.553744735396446 29.553744735396446 29.553744735396446 29.553744735396446 29.553744735396446 29.553744735396446 29.553744735396446 29.553744735396446 29.553744735396446 29.553744735396446 29.553744735396446 29.553744735396446 29.522981138985532 29.553744735396446 29.553744735396446 29.522981138985532 29.553744735396446 29.553744735396446 29.553744735396446 29.553744735396446 29.553744735396446 29.553744735396446 29.553744735396446 29.553744735396446 29.553744735396446 29.553744735396446 29.553744735396446 29.553744735396446 29.553744735396446 29.553744735396446 29.553744735396446 29.553744735396446 29.553744735396446 29.553744735396446 29.553744735396446 29.553744735396446 29.553744735396446 29.553744735396446 29.553744735396446 29.553744735396446 29.553744735396446 29.553744735396446 29.553744735396446 29.553744735396446 29.522981138985532 29.553744735396446 29.553744735396446 29.553744735396446 29.553744735396446 29.553744735396446 29.553744735396446 29.553744735396446 29.553744735396446 29.553744735396446 29.553744735396446 29.553744735396446 29.553744735396446 29.553744735396446 29.553744735396446 29.553744735396446 29.553744735396446 29.553744735396446 29.553744735396446 29.553744735396446 29.553744735396446 29.553744735396446 29.553744735396446 29.553744735396446 29.522981138985532 29.553744735396446 29.553744735396446 29.553744735396446 29.553744735396446 29.553744735396446 29.553744735396446 29.522981138985532 29.553744735396446 29.553744735396446 29.553744735396446 29.522981138985532 29.553744735396446 29.553744735396446 29.553744735396446 29.553744735396446 29.553744735396446 29.553744735396446 29.553744735396446 29.553744735396446 29.553744735396446 29.522981138985532 29.553744735396446 29.553744735396446 29.553744735396446 29.553744735396446 29.553744735396446 29.553744735396446 29.553744735396446 29.553744735396446 29.553744735396446 29.522981138985532 29.553744735396446 29.553744735396446 29.553744735396446 29.553744735396446 29.553744735396446 29.522981138985532 29.553744735396446 29.553744735396446 29.553744735396446 29.553744735396446 29.553744735396446 29.553744735396446 29.553744735396446 29.553744735396446 29.522981138985532 29.553744735396446 29.553744735396446 29.553744735396446 29.553744735396446 29.553744735396446 29.553744735396446 29.553744735396446 29.553744735396446 29.553744735396446 29.522981138985532 29.553744735396446 29.553744735396446 29.553744735396446 29.553744735396446 29.553744735396446 29.553744735396446 29.553744735396446 29.553744735396446 29.553744735396446 29.553744735396446 29.553744735396446 29.553744735396446 29.553744735396446 29.553744735396446 29.553744735396446 29.553744735396446 29.553744735396446 29.553744735396446 29.553744735396446 29.553744735396446 29.553744735396446 29.553744735396446 29.553744735396446 29.553744735396446 29.553744735396446 29.553744735396446 29.553744735396446 29.553744735396446 29.553744735396446 29.553744735396446 29.553744735396446 29.553744735396446 29.553744735396446 29.553744735396446 29.553744735396446 29.553744735396446 29.553744735396446 29.553744735396446 29.553744735396446 29.553744735396446 29.553744735396446 29.553744735396446 29.553744735396446 29.553744735396446 29.522981138985532 29.553744735396446 29.553744735396446 29.553744735396446 29.553744735396446 29.522981138985532 29.553744735396446 29.553744735396446 29.553744735396446 29.553744735396446 29.553744735396446 29.553744735396446 29.553744735396446 29.553744735396446 29.553744735396446 29.553744735396446 29.553744735396446 29.553744735396446 29.553744735396446 29.553744735396446 29.553744735396446 29.522981138985532 29.553744735396446 29.553744735396446 29.553744735396446 29.553744735396446 29.553744735396446 29.553744735396446 29.553744735396446 29.522981138985532 29.553744735396446 29.553744735396446 29.553744735396446 29.553744735396446 29.553744735396446 29.553744735396446 29.553744735396446 29.522981138985532 29.553744735396446 29.553744735396446 29.522981138985532 29.553744735396446 29.553744735396446 29.553744735396446 29.553744735396446 29.522981138985532 29.553744735396446 29.522981138985532 29.553744735396446 29.553744735396446 29.553744735396446 29.553744735396446 29.553744735396446 29.553744735396446 29.553744735396446 29.553744735396446 29.553744735396446 29.553744735396446 29.553744735396446 29.553744735396446 29.553744735396446 29.553744735396446 29.553744735396446 29.553744735396446 29.553744735396446 29.553744735396446 29.553744735396446 29.553744735396446 29.553744735396446 29.553744735396446 29.553744735396446 29.553744735396446 29.553744735396446 29.553744735396446 29.522981138985532 29.553744735396446 29.553744735396446 29.553744735396446 29.553744735396446 29.553744735396446 29.553744735396446 29.553744735396446 29.553744735396446 29.553744735396446 29.553744735396446 29.553744735396446 29.553744735396446 29.553744735396446 29.553744735396446 29.553744735396446 29.553744735396446 29.553744735396446 29.553744735396446 29.553744735396446 29.553744735396446 29.553744735396446 29.553744735396446 29.553744735396446 29.553744735396446 29.553744735396446 29.553744735396446 29.553744735396446 29.553744735396446 29.553744735396446 29.553744735396446 29.522981138985532 29.553744735396446 29.553744735396446 29.553744735396446 29.553744735396446 29.553744735396446 29.553744735396446 29.553744735396446 29.553744735396446 29.553744735396446 29.553744735396446 29.553744735396446 29.553744735396446 29.553744735396446 29.553744735396446 29.553744735396446 29.553744735396446 29.553744735396446 29.553744735396446 29.553744735396446 29.553744735396446 29.553744735396446 29.553744735396446 29.553744735396446 29.553744735396446 29.553744735396446 29.553744735396446 29.553744735396446 29.553744735396446 29.522981138985532 29.553744735396446 29.553744735396446 29.553744735396446 29.553744735396446 29.553744735396446 29.553744735396446 29.553744735396446 29.553744735396446 29.553744735396446 29.553744735396446 29.553744735396446 29.553744735396446 29.522981138985532 29.553744735396446 29.553744735396446 29.553744735396446 29.553744735396446 29.553744735396446 29.553744735396446 29.553744735396446 29.553744735396446 29.553744735396446 29.522981138985532 29.553744735396446 29.553744735396446 29.553744735396446 29.553744735396446 29.522981138985532 29.553744735396446 29.553744735396446 29.553744735396446 29.553744735396446 29.553744735396446 29.553744735396446 29.553744735396446 29.553744735396446 29.58450833180736 29.707562717451015 29.769089910272843 29.83061710309467 29.861380699505585 29.8921442959165 29.922907892327412 29.953671488738326 29.953671488738326 29.98443508514924 30.045962277971068 30.045962277971068 30.199780260025637 30.23054385643655 30.353598242080206 30.445889031312948 30.507416224134772 30.630470609778428 30.72276139901117 30.96887017029848 31.091924555942136 31.184215345174877 31.399560520051274 31.522614905694926 31.55337850210584 31.676432887749495 31.70719648416041 31.768723676982237 31.95330525544772 32.07635964109137 32.32246841237868 32.568577183665994 32.75315876213148 32.93774034059696 33.18384911188427 33.55301226881524 33.983702618568024 34.475920161142646 35.15271928218275 35.52188243911371 35.98333638527742 36.598608313495696 37.09082585607032 37.767624977110415 38.50595129097235 39.0596960263688 39.85954953305256 40.6286394433254 41.18238417872185 41.9822376854056 42.505218824391136 43.274308734663975 44.01263504852591 44.535616187511444 45.27394250137337 46.25837758652261 46.78135872550815 47.304339864493684 47.82732100347921 48.59641091375206 49.642373191723124 50.2576451199414 50.934444240981506 51.703534151254345 52.288042483061716 52.78026002563632 53.610877128731005 54.34920344259293 55.05676616004395 55.54898370261857 56.16425563083684 56.748763962644205 57.179454312397 57.70243545138253 58.071598608313494 58.62534334370994 59.14832448269547 59.51748763962644 60.16352316425563 60.40963193554294 60.778795092473906 61.240249038637614 61.51712140633583 62.04010254532137 62.44002929866325 62.80919245559421 63.17835561252517 63.516755173045226 63.978209119208934 64.28584508331807 64.62424464383813 64.93188060794725 65.2395165720564 65.45486174693279 65.79326130745284 66.03937007874015 66.47006042849296 66.71616919978025 66.93151437465664 67.17762314594395 67.45449551364219 67.76213147775132 68.10053103827138 68.3466398095587 68.71580296648965 69.11572971983153 69.39260208752975 69.63871085881706 70.13092840139169 70.46932796191174 70.77696392602087 71.02307269730818 71.39223585423915 71.7306354147592 72.00750778245742 72.31514374656656 72.6227797106757 72.89965207837392 73.20728804248306 73.42263321735945 73.85332356711226 74.16095953122138 74.34554110968686 74.59164988097417 74.8685222486724 75.0838674235488 75.42226698406884 75.7606665445889 76.06830250869804 76.34517487639626 76.52975645486174 76.80662882255997 76.96044680461453 77.26808276872367 77.51419154001098 77.69877311847647 77.94488188976378 78.19099066105107 78.40633583592748 78.62168101080388 78.77549899285845 79.05237136055666 79.29848013184399 79.51382530672038 79.7906976744186 80.19062442776048 80.40596960263687 80.62131477751328 80.86742354880059 81.23658670573155 81.5749862662516 81.94414942318257 82.34407617652444 82.71323933345542 82.95934810474272 83.23622047244095 83.60538362937191 84.00531038271379 84.34370994323385 84.58981871452116 84.98974546786303 85.32814502838306 85.60501739608131 85.88188976377953 86.09723493865592 86.40487090276505 86.68174327046327 86.83556125251785 87.08167002380517 87.29701519868155 87.51236037355795 87.60465116279069 87.75846914484526 87.94305072331073 88.09686870536532 88.15839589818714 88.31221388024171 88.34297747665262 88.37374107306354 88.37374107306354 88.40450466947445 88.40450466947445 88.40450466947445 88.37374107306354 88.37374107306354 88.40450466947445 88.37374107306354 88.37374107306354 88.37374107306354 88.37374107306354 88.34297747665262 88.34297747665262 88.34297747665262 88.34297747665262 88.34297747665262 88.34297747665262 88.34297747665262 88.34297747665262 88.34297747665262 88.34297747665262 88.31221388024171 88.31221388024171 88.31221388024171 88.2814502838308 88.25068668741989 88.21992309100898 88.15839589818714 88.12763230177623 88.09686870536532 88.00457791613258 87.97381431972167 87.94305072331073 87.94305072331073 87.91228712689983 87.91228712689983 87.91228712689983 87.91228712689983 87.91228712689983 87.91228712689983 87.91228712689983 87.94305072331073 87.94305072331073 87.94305072331073 87.94305072331073 87.91228712689983 87.94305072331073 87.91228712689983 87.91228712689983 87.91228712689983 87.94305072331073 87.91228712689983 87.91228712689983 87.91228712689983 87.94305072331073 87.91228712689983 87.81999633766708 87.78923274125617 87.66617835561252 87.54312396996886 87.45083318073613 87.29701519868155 87.11243362021608 86.98937923457241 86.89708844533968 86.86632484892877 86.77403405969602 86.68174327046327 86.65097967405237 86.65097967405237 86.62021607764146 86.62021607764146 86.62021607764146 86.62021607764146 86.62021607764146 86.62021607764146 86.62021607764146 86.65097967405237 86.65097967405237 86.68174327046327 86.68174327046327 86.68174327046327 86.68174327046327 86.68174327046327 86.68174327046327 86.68174327046327 86.68174327046327 86.68174327046327 86.68174327046327 86.68174327046327 86.68174327046327 86.68174327046327 86.68174327046327 86.68174327046327 86.68174327046327 86.68174327046327 86.68174327046327 86.7125068668742 86.7125068668742 86.74327046328511 86.77403405969602 86.80479765610693 86.80479765610693 86.83556125251785 86.83556125251785 86.83556125251785 86.80479765610693 86.83556125251785 86.80479765610693 86.80479765610693 86.83556125251785 86.83556125251785 86.80479765610693 86.80479765610693 86.80479765610693 86.80479765610693 86.80479765610693 86.83556125251785 86.80479765610693 86.80479765610693 86.80479765610693 86.80479765610693 86.80479765610693 86.80479765610693 86.80479765610693 86.80479765610693 86.80479765610693 86.77403405969602 86.74327046328511 86.74327046328511 86.74327046328511 86.7125068668742 86.7125068668742 86.68174327046327 86.65097967405237 86.65097967405237 86.65097967405237 86.65097967405237 86.65097967405237 86.65097967405237 86.65097967405237 86.65097967405237 86.65097967405237 86.65097967405237 86.65097967405237 86.65097967405237 86.68174327046327 86.68174327046327 86.68174327046327 86.68174327046327 86.68174327046327 86.7125068668742 86.74327046328511 86.80479765610693 86.83556125251785 86.86632484892877 86.92785204175058 87.02014283098333 87.08167002380517 87.11243362021608 87.1739608130379 87.2047244094488 87.26625160227064 87.26625160227064 87.29701519868155 87.32777879509247 87.32777879509247 87.32777879509247 87.32777879509247 87.35854239150339 87.35854239150339 87.32777879509247 87.32777879509247 87.32777879509247 87.32777879509247 87.32777879509247 87.32777879509247 87.32777879509247 87.32777879509247 87.32777879509247 87.32777879509247 87.35854239150339 87.35854239150339 87.35854239150339 87.35854239150339 87.32777879509247 87.35854239150339 87.35854239150339 87.3893059879143 87.3893059879143 87.3893059879143 87.3893059879143 87.3893059879143 87.3893059879143 87.3893059879143 87.3893059879143 87.3893059879143 87.3893059879143 87.3893059879143 87.3893059879143 87.3893059879143 87.3893059879143 87.3893059879143 87.3893059879143 87.3893059879143 87.3893059879143 87.3893059879143 87.3893059879143 87.3893059879143 87.4200695843252 87.45083318073613 87.48159677714705 87.51236037355795 87.54312396996886 87.54312396996886 87.57388756637978 87.60465116279069 87.60465116279069 87.60465116279069 87.60465116279069 87.60465116279069 87.60465116279069 87.60465116279069 87.60465116279069 87.57388756637978 87.57388756637978 87.60465116279069 87.60465116279069 87.57388756637978 87.60465116279069 87.60465116279069 87.60465116279069 87.60465116279069 87.57388756637978 87.57388756637978 87.57388756637978 87.57388756637978 87.54312396996886 87.54312396996886 87.51236037355795 87.48159677714705 87.45083318073613 87.4200695843252 87.4200695843252 87.3893059879143 87.3893059879143 87.35854239150339 87.35854239150339 87.32777879509247 87.32777879509247 87.32777879509247 87.32777879509247 87.32777879509247 87.32777879509247 87.32777879509247 87.29701519868155 87.32777879509247 87.29701519868155 87.26625160227064 87.26625160227064 87.26625160227064 87.23548800585974 87.23548800585974 87.23548800585974 87.23548800585974 87.23548800585974 87.23548800585974 87.23548800585974 87.23548800585974 87.23548800585974 87.23548800585974 87.26625160227064 87.26625160227064 87.26625160227064 87.26625160227064 87.26625160227064 87.29701519868155 87.29701519868155 87.29701519868155 87.29701519868155 87.29701519868155 87.29701519868155 87.29701519868155 87.29701519868155 87.29701519868155 87.29701519868155 87.32777879509247 87.29701519868155 87.29701519868155 87.29701519868155 87.29701519868155 87.29701519868155 87.26625160227064 87.26625160227064 87.1739608130379 87.08167002380517 86.98937923457241 86.89708844533968 86.80479765610693 86.7125068668742 86.58945248123054 86.4971616919978 86.34334370994324 86.25105292071049 86.15876213147774 86.00494414942318 85.88188976377953 85.72807178172496 85.51272660684856 85.32814502838306 85.08203625709577 84.83592748580845 84.68210950375389 84.2514191540011 84.00531038271379 83.63614722578282 83.29774766526276 83.05163889397545 82.77476652627723 82.43636696575717 82.19025819446988 81.8210950375389 81.51345907342977 81.1442959164988 80.80589635597875 80.55978758469143 80.2213880241714 80.0368064457059 79.72917048159677 79.39077092107672 79.0831349569676 78.74473539644754 78.4370994323384 78.19099066105107 77.94488188976378 77.69877311847647 77.45266434718914 77.05273759384727 76.83739241897088 76.56052005127265 76.28364768357443 76.06830250869804 75.85295733382165 75.51455777330159 75.20692180919245 74.8377586522615 74.56088628456325 74.22248672404322 73.82255997070132 73.39186962094854 73.14576084966123 72.86888848196301 72.49972532503205 72.13056216810108 71.9459805896356 71.54605383629371 71.14612708295184 70.90001831166452 70.65390954037721 70.377037172679 70.19245559421351 69.91558322651528 69.63871085881706 69.39260208752975 69.17725691265336 69.02343893059879 68.86962094854422 68.62351217725691 68.3774034059696 68.1620582310932 67.94671305621681 67.79289507416223 67.57754989928584 67.42373191723127 67.14685954953305 67.08533235671122 66.90075077824574 66.71616919978025 66.62387841054752 66.47006042849296 66.22395165720565 66.10089727156199 65.97784288591834 65.85478850027468 65.73173411463102 65.54715253616553 65.48562534334371 65.33180736128914 65.27028016846731 65.11646218641275 64.96264420435817 64.87035341512544 64.71653543307087 64.53195385460538 64.37813587255081 64.19355429408533 64.03973631203075 63.79362754074345 63.54751876945614 63.33217359457974 63.024537630470604 62.716901666361466 62.53232008789599 62.07086614173228 61.97857535249954 61.45559421351401 61.11719465299395 60.901849478117555 60.47115912836477 60.07123237502289 59.79436000732467 59.425196850393704 59.117560886284565 58.68687053653177 58.28694378318989 58.010071415491666 57.6409082585607 57.302508698040654 56.964109137520595 56.62570957700055 56.37960080571324 55.91814685954953 55.70280168467313 55.48745650979674 55.179820545687605 54.872184581578466 54.53378502105841 54.19538546053836 54.01080388207288 53.73393151437466 53.42629555026552 53.33400476103277 53.026368796923634 52.56491485075993 52.31880607947262 52.011170115363484 51.76506134407617 51.39589818714521 50.87291704815968 50.71909906610511 50.31917231276323 49.91924555942135 49.580845998901296 49.21168284197033 48.9040468778612 48.319538546053835 47.85808459989013 47.67350302142465 47.27357626808276 46.93517670756272 46.47372276139901 45.85845083318073 45.30470609778429 45.02783373008606 44.75096136238784 44.474088994689616 44.10492583775865 43.92034425929317 43.5511811023622 43.15125434902033 42.966672770554844 42.47445522798022 42.259110053103825 41.88994689617286 41.64383812488555 41.42849295000916 41.05932979307819 40.690166636147225 40.413294268449 39.921076725874386 39.55191356894342 39.275041201245195 39.028932429957884 38.75206006225966 38.013733748397726 37.859915766343164 37.398461820179456 36.93700787401575 36.47555392785204 36.1679179637429 35.76799121040103 35.52188243911371 35.21424647500458 34.96813770371727 34.783556125251785 34.537447353964474 34.26057498626625 34.075993407800766 33.76835744369163 33.58377586522615 33.460721479582496 33.33766709393884 33.2453763047061 33.09155832265153 32.84544955136422 32.72239516572056 32.63010437648782 32.507049990844166 32.38399560520051 32.19941402673503 32.107123237502286 31.984068851858634 31.891778062625892 31.79948727339315 31.737960080571323 31.64566929133858 31.522614905694926 31.430324116462188 31.338033327229446 31.245742537996705 31.12268815235305 30.999633766709394 30.845815784654825 30.691997802600255 30.445889031312948 30.261307452847465 30.13825306720381 29.8921442959165 29.8921442959165 29.861380699505585 29.861380699505585 29.83061710309467 29.799853506683757 29.73832631386193 29.707562717451015 29.707562717451015 29.707562717451015 29.6767991210401 29.707562717451015 29.6767991210401 29.6767991210401 29.6767991210401 29.6767991210401 29.6767991210401 29.6767991210401 29.6767991210401 29.646035524629188 29.646035524629188 29.615271928218274 29.58450833180736 29.553744735396446 29.522981138985532 29.522981138985532 29.522981138985532 29.49221754257462 29.522981138985532 29.522981138985532 29.49221754257462 29.522981138985532 29.522981138985532 29.49221754257462 29.49221754257462 29.49221754257462 29.49221754257462 29.49221754257462 29.461453946163708 29.461453946163708 29.461453946163708 29.461453946163708 29.461453946163708 29.430690349752794 29.461453946163708 29.461453946163708 29.461453946163708 29.430690349752794 29.430690349752794 29.430690349752794 29.430690349752794 29.430690349752794 29.430690349752794 29.430690349752794 29.430690349752794 29.430690349752794 29.430690349752794 29.430690349752794 29.430690349752794 29.39992675334188 29.430690349752794 29.430690349752794 29.430690349752794 29.430690349752794 29.430690349752794 29.430690349752794 29.430690349752794 29.430690349752794 29.430690349752794 29.430690349752794 29.430690349752794 29.430690349752794 29.430690349752794 29.430690349752794 29.430690349752794 29.430690349752794 29.430690349752794 29.430690349752794 29.39992675334188 29.430690349752794 29.430690349752794 29.430690349752794 29.39992675334188 29.430690349752794 29.430690349752794 29.430690349752794 29.39992675334188 29.430690349752794 29.39992675334188 29.39992675334188 29.39992675334188 29.39992675334188 29.39992675334188 29.39992675334188 29.430690349752794 29.39992675334188 29.39992675334188 29.39992675334188 29.39992675334188 29.39992675334188 29.39992675334188 29.39992675334188 29.39992675334188 29.39992675334188 29.39992675334188 29.39992675334188 29.39992675334188 29.430690349752794 29.39992675334188 29.39992675334188 29.39992675334188 29.39992675334188 29.39992675334188 29.39992675334188 29.39992675334188 29.39992675334188 29.39992675334188 29.39992675334188 29.39992675334188 29.39992675334188 29.39992675334188 29.39992675334188 29.39992675334188 29.39992675334188 29.39992675334188 29.39992675334188 29.39992675334188 29.39992675334188 29.39992675334188 29.39992675334188 29.39992675334188 29.39992675334188 29.39992675334188 29.39992675334188 29.39992675334188 29.39992675334188 29.39992675334188 29.39992675334188 29.39992675334188 29.39992675334188 29.39992675334188 29.39992675334188 29.39992675334188 29.39992675334188 29.39992675334188 29.39992675334188 29.39992675334188 29.430690349752794 29.39992675334188 29.39992675334188 29.39992675334188 29.39992675334188 29.39992675334188 29.39992675334188 29.39992675334188 29.39992675334188 29.39992675334188 29.39992675334188 29.39992675334188 29.39992675334188 29.39992675334188 29.39992675334188 29.39992675334188 29.39992675334188 29.39992675334188 29.39992675334188 29.39992675334188 29.39992675334188 29.39992675334188 29.39992675334188 29.39992675334188 29.39992675334188 29.39992675334188 29.39992675334188 29.39992675334188 29.39992675334188 29.39992675334188 29.39992675334188 29.39992675334188 29.39992675334188 29.39992675334188 29.39992675334188 29.39992675334188 29.39992675334188 29.39992675334188 29.39992675334188 29.39992675334188 29.39992675334188 29.39992675334188 29.39992675334188 29.39992675334188 29.39992675334188 29.39992675334188 29.39992675334188 29.39992675334188 29.39992675334188 29.39992675334188 29.39992675334188 29.39992675334188 29.39992675334188 29.39992675334188 29.39992675334188 29.39992675334188 29.39992675334188 29.39992675334188 29.39992675334188 29.39992675334188 29.39992675334188 29.39992675334188 29.39992675334188 29.39992675334188 29.39992675334188 29.39992675334188 29.39992675334188 29.39992675334188 29.39992675334188 29.39992675334188 29.39992675334188 29.39992675334188 29.39992675334188 29.39992675334188 29.39992675334188 29.39992675334188 29.39992675334188 29.39992675334188 29.39992675334188 29.430690349752794 29.39992675334188 29.39992675334188 29.39992675334188 29.39992675334188 29.39992675334188 29.39992675334188 29.39992675334188 29.39992675334188 29.39992675334188 29.39992675334188 29.39992675334188 29.39992675334188 29.39992675334188 29.39992675334188 29.39992675334188 29.39992675334188 29.39992675334188 29.39992675334188 29.39992675334188 29.39992675334188 29.39992675334188 29.39992675334188 29.39992675334188 29.39992675334188 29.39992675334188 29.39992675334188 29.39992675334188 29.39992675334188 29.39992675334188 29.39992675334188 29.39992675334188 29.39992675334188 29.39992675334188 29.39992675334188 29.39992675334188 29.39992675334188 29.39992675334188 29.39992675334188 29.39992675334188 29.39992675334188 29.39992675334188 29.39992675334188 29.39992675334188 29.39992675334188 29.39992675334188 29.39992675334188 29.39992675334188 29.39992675334188 29.39992675334188 29.39992675334188 29.39992675334188 29.39992675334188 29.39992675334188 29.39992675334188 29.39992675334188 29.39992675334188 29.39992675334188 29.39992675334188 29.39992675334188 29.39992675334188 29.39992675334188 29.39992675334188 29.39992675334188 29.39992675334188 29.39992675334188 29.39992675334188 29.39992675334188 29.39992675334188 29.39992675334188 29.39992675334188 29.39992675334188 29.39992675334188 29.39992675334188 29.39992675334188 29.39992675334188 29.39992675334188 29.39992675334188 29.39992675334188 29.39992675334188 29.39992675334188 29.39992675334188 29.39992675334188 29.39992675334188 29.39992675334188 29.39992675334188 29.39992675334188 29.39992675334188 29.39992675334188 29.39992675334188 29.39992675334188 29.39992675334188 29.39992675334188 29.39992675334188 29.39992675334188 29.39992675334188 29.39992675334188 29.39992675334188 29.39992675334188 29.39992675334188 29.39992675334188 29.39992675334188 29.39992675334188 29.39992675334188 29.39992675334188 29.39992675334188 29.39992675334188 29.39992675334188 29.39992675334188 29.39992675334188 29.39992675334188 29.39992675334188 29.39992675334188 29.39992675334188 29.39992675334188 29.39992675334188 29.39992675334188 29.39992675334188 29.39992675334188 29.39992675334188 29.39992675334188 29.39992675334188 29.39992675334188 29.39992675334188 29.39992675334188 29.39992675334188 29.39992675334188 29.39992675334188 29.39992675334188 29.39992675334188 29.39992675334188 29.39992675334188 29.39992675334188 29.39992675334188 29.39992675334188 29.39992675334188 29.39992675334188 29.39992675334188 29.39992675334188 29.39992675334188 29.39992675334188 29.39992675334188 29.39992675334188 29.39992675334188 29.39992675334188 29.39992675334188 29.39992675334188 29.39992675334188 29.39992675334188 29.39992675334188 29.39992675334188 29.39992675334188 29.39992675334188 29.39992675334188 29.39992675334188 29.39992675334188 29.39992675334188 29.39992675334188 29.39992675334188 29.39992675334188 29.39992675334188 29.39992675334188 29.39992675334188 29.39992675334188 29.39992675334188 29.39992675334188 29.39992675334188 29.39992675334188 29.39992675334188 29.39992675334188 29.39992675334188 29.39992675334188 29.39992675334188 29.39992675334188 29.39992675334188 29.39992675334188 29.39992675334188 29.39992675334188 29.39992675334188 29.39992675334188 29.39992675334188 29.39992675334188 29.39992675334188 29.39992675334188 29.39992675334188 29.39992675334188 29.39992675334188 29.39992675334188 29.39992675334188 29.39992675334188 29.39992675334188 29.39992675334188 29.39992675334188 29.39992675334188 29.39992675334188 29.39992675334188 29.39992675334188 29.39992675334188 29.39992675334188 29.39992675334188 29.39992675334188 29.39992675334188 29.39992675334188 29.39992675334188 29.39992675334188 29.39992675334188 29.39992675334188 29.39992675334188 29.39992675334188 29.39992675334188 29.39992675334188 29.39992675334188 29.39992675334188 29.39992675334188 29.39992675334188 29.39992675334188 29.39992675334188 29.39992675334188 29.39992675334188 29.39992675334188 29.39992675334188 29.39992675334188 29.39992675334188 29.39992675334188 29.39992675334188 29.39992675334188 29.39992675334188 29.39992675334188 29.39992675334188 29.39992675334188 29.39992675334188 29.39992675334188 29.39992675334188 29.39992675334188 29.39992675334188 29.39992675334188 29.39992675334188 29.39992675334188 29.39992675334188 29.39992675334188 29.39992675334188 29.39992675334188 29.39992675334188 29.39992675334188 29.39992675334188 29.39992675334188 29.39992675334188 29.39992675334188 29.39992675334188 29.39992675334188 29.39992675334188 29.39992675334188 29.39992675334188 29.39992675334188 29.39992675334188 29.39992675334188 29.39992675334188 29.39992675334188 29.39992675334188 29.39992675334188 29.39992675334188 29.39992675334188 29.39992675334188 29.39992675334188 29.39992675334188 29.39992675334188 29.39992675334188 29.39992675334188 29.39992675334188 29.39992675334188 29.39992675334188 29.39992675334188 29.39992675334188 29.39992675334188 29.39992675334188 29.39992675334188 29.39992675334188 29.39992675334188 29.39992675334188 29.39992675334188 29.39992675334188 29.39992675334188 29.39992675334188 29.39992675334188 29.39992675334188 29.39992675334188 29.39992675334188 29.39992675334188 29.39992675334188 29.39992675334188 29.39992675334188 29.39992675334188 29.39992675334188 29.39992675334188 29.39992675334188 29.39992675334188 29.39992675334188 29.39992675334188 29.39992675334188 29.39992675334188 29.39992675334188 29.39992675334188 29.39992675334188 29.39992675334188 29.39992675334188 29.39992675334188 29.39992675334188 29.39992675334188 29.39992675334188 29.39992675334188 29.39992675334188 29.39992675334188 29.39992675334188 29.39992675334188 29.39992675334188 29.39992675334188 29.39992675334188 29.39992675334188 29.39992675334188 29.39992675334188 29.39992675334188 29.39992675334188 29.39992675334188 29.39992675334188 29.39992675334188 29.39992675334188 29.39992675334188 29.39992675334188 29.39992675334188 29.39992675334188 29.39992675334188 29.39992675334188 29.39992675334188 29.39992675334188 29.39992675334188 29.39992675334188 29.39992675334188 29.39992675334188 29.39992675334188 29.39992675334188 29.39992675334188 29.39992675334188 29.39992675334188 29.39992675334188 29.39992675334188 29.39992675334188 29.39992675334188 29.39992675334188 29.39992675334188 29.39992675334188 29.39992675334188 29.39992675334188 29.39992675334188 29.39992675334188 29.39992675334188 29.39992675334188 29.39992675334188 29.39992675334188 29.39992675334188 29.39992675334188 29.39992675334188 29.39992675334188 29.39992675334188 29.39992675334188 29.39992675334188 29.39992675334188 29.39992675334188 29.39992675334188 29.39992675334188 29.39992675334188 29.39992675334188 29.39992675334188 29.39992675334188 29.39992675334188 29.39992675334188 29.39992675334188 29.39992675334188 29.39992675334188 29.39992675334188 29.39992675334188 29.39992675334188 29.39992675334188 29.39992675334188 29.39992675334188 29.39992675334188 29.39992675334188 29.369163156930966 29.39992675334188 29.369163156930966 29.369163156930966 29.369163156930966 29.369163156930966 29.369163156930966 29.369163156930966 29.369163156930966 29.369163156930966 29.369163156930966 29.369163156930966 29.369163156930966 29.369163156930966 29.369163156930966 29.369163156930966 29.369163156930966 29.369163156930966 29.369163156930966 29.369163156930966 29.369163156930966 29.369163156930966 29.369163156930966 29.369163156930966 29.369163156930966 29.369163156930966 29.369163156930966 29.369163156930966 29.369163156930966 29.369163156930966 29.369163156930966 29.369163156930966 29.369163156930966 29.369163156930966 29.369163156930966 29.369163156930966 29.338399560520052 29.369163156930966 29.369163156930966 29.369163156930966 29.369163156930966 29.369163156930966 29.369163156930966 29.338399560520052 29.369163156930966 29.369163156930966 29.338399560520052 29.338399560520052 29.338399560520052 29.338399560520052 29.369163156930966 29.369163156930966 29.369163156930966 29.338399560520052 29.369163156930966 29.369163156930966 29.369163156930966 29.338399560520052 29.338399560520052 29.369163156930966 29.338399560520052 29.338399560520052 29.369163156930966 29.338399560520052 29.338399560520052 29.338399560520052 29.369163156930966 29.369163156930966 29.338399560520052 29.369163156930966 29.369163156930966 29.369163156930966 29.369163156930966 29.338399560520052 29.338399560520052 29.369163156930966 29.369163156930966 29.338399560520052 29.369163156930966 29.338399560520052 29.369163156930966 29.338399560520052 29.369163156930966 29.338399560520052 29.369163156930966 29.369163156930966 29.338399560520052 29.369163156930966 29.369163156930966 29.369163156930966 29.338399560520052 29.369163156930966 29.338399560520052 29.338399560520052 29.369163156930966 29.369163156930966 29.338399560520052 29.338399560520052 29.369163156930966 29.338399560520052 29.369163156930966 29.338399560520052 29.338399560520052 29.338399560520052 29.338399560520052 29.338399560520052 29.338399560520052 29.338399560520052 29.338399560520052 29.30763596410914 29.30763596410914 29.338399560520052 29.30763596410914 29.30763596410914 29.30763596410914 29.30763596410914 29.30763596410914 29.30763596410914 29.276872367698225 29.276872367698225 29.276872367698225 29.30763596410914 29.276872367698225 29.276872367698225 29.276872367698225 29.30763596410914 29.276872367698225 29.276872367698225 29.276872367698225 29.276872367698225 29.276872367698225 29.276872367698225 29.276872367698225 29.276872367698225 29.276872367698225 29.276872367698225 29.30763596410914 29.276872367698225 29.276872367698225 29.276872367698225 29.276872367698225 29.276872367698225 29.276872367698225 29.276872367698225 29.276872367698225 29.276872367698225 29.276872367698225 29.276872367698225 29.276872367698225 29.276872367698225 29.276872367698225 29.276872367698225 29.276872367698225 29.276872367698225 29.276872367698225 29.276872367698225 29.276872367698225 29.276872367698225 29.276872367698225 29.276872367698225 29.276872367698225 29.276872367698225 29.276872367698225 29.276872367698225 29.276872367698225 29.276872367698225 29.276872367698225 29.276872367698225 29.276872367698225 29.276872367698225 29.276872367698225 29.276872367698225 29.276872367698225 29.276872367698225 29.276872367698225 29.276872367698225 29.276872367698225 29.276872367698225 29.276872367698225 29.276872367698225 29.276872367698225 29.276872367698225 29.276872367698225 29.276872367698225 29.276872367698225 29.276872367698225 29.276872367698225 29.276872367698225 29.276872367698225 29.276872367698225 29.276872367698225 29.276872367698225 29.276872367698225 29.276872367698225 29.276872367698225 29.276872367698225 29.276872367698225 29.276872367698225 29.276872367698225 29.276872367698225 29.30763596410914 29.30763596410914 29.369163156930966 29.430690349752794 29.461453946163708 29.522981138985532 29.522981138985532 29.553744735396446 29.58450833180736 29.615271928218274 29.6767991210401 29.73832631386193 29.73832631386193 29.799853506683757 29.861380699505585 29.8921442959165 29.953671488738326 30.045962277971068 30.199780260025637 30.353598242080206 30.47665262772386 30.599707013367514 30.784288591832997 30.999633766709394 31.27650613440762 31.491851309284012 31.830250869804065 32.19941402673503 32.3532320087896 32.53781358725508 32.72239516572056 33.0300311298297 33.460721479582496 34.075993407800766 34.35286577549899 34.66050173960813 35.30653726423732 35.64493682475737 36.01409998168833 36.3832631386193 37.02929866324849 37.4907526094122 38.19831532686321 38.721296465848745 39.45962277971067 40.22871268998352 40.81322102179088 41.67460172129647 42.47445522798022 43.42812671671855 44.04339864493682 44.6586705731551 45.61234206189343 46.41219556857718 46.93517670756272 47.45815784654825 48.13495696758835 48.59641091375206 49.24244643838125 49.980772752243176 50.596044680461446 51.27284380150155 51.51895257278886 52.47262406152719 53.14942318256729 53.64164072514191 54.34920344259293 54.872184581578466 55.54898370261857 56.25654642006958 56.748763962644205 57.4255630836843 58.163889397546235 58.62534334370994 59.332906061160955 59.79436000732467 60.440395531953854 61.27101263504852 61.6709393883904 62.101629738143195 62.65537447353964 63.055301226881525 63.60904596227797 63.916681926387106 64.5627174510163 65.02417139718 65.2395165720564 65.85478850027468 66.3470060428493 66.68540560336935 67.14685954953305 67.48525911005311 67.91594945980589 68.3466398095587 68.65427577366782 69.14649331624244 69.45412928035158 69.91558322651528 70.377037172679 70.80772752243178 71.11536348654093 71.4845266434719 71.88445339681377 72.16132576451199 72.46896172862114 72.93041567478483 73.29957883171579 73.5456876030031 73.94561435634498 74.31477751327596 74.59164988097417 75.02234023072697 75.36073979124703 75.85295733382165 76.31441127998534 76.6528108405054 77.11426478666911 77.7910639077092 78.06793627540742 78.4370994323384 78.80626258926935 79.39077092107672 79.94451565647316 80.52902398828053 81.08276872367698 81.63651345907343 82.0056766160044 82.37483977293536 82.77476652627723 83.20545687603003 83.85149240065923 84.12836476835744 84.55905511811024 84.95898187145211 85.23585423915033 85.51272660684856 85.8511261673686 86.18952572788865 86.55868888481963 86.80479765610693 87.11243362021608 87.48159677714705 87.81999633766708 88.03534151254348 88.2814502838308 88.58908624793993 88.89672221204907 89.08130379051455 89.38893975462369 89.60428492950008 89.72733931514375 89.91192089360922 90.0657388756638 90.21955685771836 90.34261124336201 90.43490203259475 90.5271928218275 90.5579564182384 90.58872001464934 90.65024720747115 90.65024720747115 90.65024720747115 90.65024720747115 90.65024720747115 90.65024720747115 90.65024720747115 90.65024720747115 90.65024720747115 90.65024720747115 90.65024720747115 90.61948361106025 90.61948361106025 90.61948361106025 90.61948361106025 90.61948361106025 90.58872001464934 90.58872001464934 90.58872001464934 90.5579564182384 90.5579564182384 90.5271928218275 90.5271928218275 90.5271928218275 90.49642922541659 90.49642922541659 90.49642922541659 90.49642922541659 90.49642922541659 90.49642922541659 90.49642922541659 90.5271928218275 90.5271928218275 90.5271928218275 90.5271928218275 90.5271928218275 90.5271928218275 90.5271928218275 90.5271928218275 90.5271928218275 90.5271928218275 90.5271928218275 90.5271928218275 90.5271928218275 90.5271928218275 90.5271928218275 90.5271928218275 90.5271928218275 90.5271928218275 90.5271928218275 90.5271928218275 90.5271928218275 90.49642922541659 90.49642922541659 90.46566562900567 90.43490203259475 90.37337483977294 90.37337483977294 90.34261124336201 90.28108405054019 90.25032045412928 90.25032045412928 90.21955685771836 90.21955685771836 90.25032045412928 90.21955685771836 90.21955685771836 90.21955685771836 90.25032045412928 90.25032045412928 90.25032045412928 90.25032045412928 90.25032045412928 90.25032045412928 90.25032045412928 90.25032045412928 90.28108405054019 90.28108405054019 90.28108405054019 90.28108405054019 90.28108405054019 90.28108405054019 90.28108405054019 90.28108405054019 90.28108405054019 90.28108405054019 90.28108405054019 90.28108405054019 90.28108405054019 90.28108405054019 90.28108405054019 90.28108405054019 90.25032045412928 90.25032045412928 90.25032045412928 90.25032045412928 90.25032045412928 90.25032045412928 90.28108405054019 90.25032045412928 90.28108405054019 90.28108405054019 90.28108405054019 90.28108405054019 90.28108405054019 90.3118476469511 90.3118476469511 90.3118476469511 90.34261124336201 90.34261124336201 90.37337483977294 90.37337483977294 90.37337483977294 90.37337483977294 90.37337483977294 90.37337483977294 90.37337483977294 90.37337483977294 90.37337483977294 90.37337483977294 90.37337483977294 90.37337483977294 90.37337483977294 90.37337483977294 90.37337483977294 90.37337483977294 90.34261124336201 90.37337483977294 90.34261124336201 90.34261124336201 90.34261124336201 90.34261124336201 90.3118476469511 90.3118476469511 90.3118476469511 90.3118476469511 90.3118476469511 90.3118476469511 90.3118476469511 90.3118476469511 90.28108405054019 90.25032045412928 90.25032045412928 90.25032045412928 90.18879326130745 90.15802966489653 90.0657388756638 90.0657388756638 90.00421168284197 89.97344808643106 89.97344808643106 89.97344808643106 89.97344808643106 89.97344808643106 89.97344808643106 89.97344808643106 89.97344808643106 89.97344808643106 90.00421168284197 90.03497527925288 90.03497527925288 90.0657388756638 90.0965024720747 90.0965024720747 90.12726606848562 90.18879326130745 90.21955685771836 90.25032045412928 90.28108405054019 90.28108405054019 90.28108405054019 90.28108405054019 90.28108405054019 90.25032045412928 90.28108405054019 90.28108405054019 90.25032045412928 90.25032045412928 90.25032045412928 90.25032045412928 90.25032045412928 90.25032045412928 90.21955685771836 90.18879326130745 90.15802966489653 90.15802966489653 90.12726606848562 90.12726606848562 90.0965024720747 90.0965024720747 90.0965024720747 90.0965024720747 90.0965024720747 90.0965024720747 90.0965024720747 90.0965024720747 90.0965024720747 90.0965024720747 90.0965024720747 90.0965024720747 90.0965024720747 90.0965024720747 90.0965024720747 90.0965024720747 90.0965024720747 90.0965024720747 90.0965024720747 90.0965024720747 90.0965024720747 90.0965024720747 90.0965024720747 90.0965024720747 90.0965024720747 90.0965024720747 90.0965024720747 90.0965024720747 90.0965024720747 90.0965024720747 90.12726606848562 90.0965024720747 90.0965024720747 90.0965024720747 90.0965024720747 90.12726606848562 90.0965024720747 90.12726606848562 90.12726606848562 90.0965024720747 90.12726606848562 90.12726606848562 90.12726606848562 90.12726606848562 90.12726606848562 90.12726606848562 90.12726606848562 90.0965024720747 90.0965024720747 90.0965024720747 90.0965024720747 90.03497527925288 89.91192089360922 89.78886650796557 89.75810291155466 89.60428492950008 89.54275773667825 89.51199414026735 89.4197033510346 89.35817615821279 89.32741256180186 89.32741256180186 89.29664896539094 89.29664896539094 89.29664896539094 89.29664896539094 89.29664896539094 89.29664896539094 89.29664896539094 89.32741256180186 89.32741256180186 89.29664896539094 89.32741256180186 89.29664896539094 89.32741256180186 89.29664896539094 89.29664896539094 89.29664896539094 89.29664896539094 89.29664896539094 89.29664896539094 89.29664896539094 89.29664896539094 89.23512177256913 89.20435817615821 89.14283098333638 89.05054019410363 88.95824940487088 88.77366782640541 88.7429042299945 88.61984984435085 88.55832265152901 88.46603186229628 88.34297747665262 88.21992309100898 88.09686870536532 88.00457791613258 87.97381431972167 87.91228712689983 87.81999633766708 87.75846914484526 87.66617835561252 87.60465116279069 87.51236037355795 87.35854239150339 87.32777879509247 87.1739608130379 87.05090642739424 86.92785204175058 86.74327046328511 86.62021607764146 86.43563449917598 86.18952572788865 86.00494414942318 85.78959897454678 85.60501739608131 85.32814502838306 84.98974546786303 84.74363669657572 84.282182750412 83.94378318989196 83.66691082219373 83.39003845449551 83.08240249038637 82.62094854422267 82.09796740523714 81.63651345907343 81.1442959164988 80.68284197033509 80.34444240981506 79.91375206006225 79.51382530672038 79.17542574620032 78.83702618568027 78.56015381798206 78.19099066105107 77.82182750412012 77.57571873283281 77.23731917231275 77.02197399743636 76.71433803332724 76.37593847280718 76.12982970151987 75.7606665445889 75.29921259842519 75.05310382713789 74.80699505585056 74.59164988097417 74.16095953122138 73.85332356711226 73.63797839223585 73.33034242812671 73.0842336568394 72.89965207837392 72.6227797106757 72.43819813221022 72.19208936092289 71.9459805896356 71.79216260758102 71.57681743270463 71.33070866141732 71.17689067936274 70.93078190807545 70.74620032960996 70.50009155832265 70.28474638344625 70.06940120856986 69.82329243728255 69.63871085881706 69.42336568394066 69.300311298297 69.20802050906427 69.02343893059879 68.86962094854422 68.74656656290057 68.592748580846 68.43893059879143 68.25434902032595 68.03900384544954 67.88518586339498 67.63907709210767 67.42373191723127 67.2699139351767 67.02380516388939 66.77769639260208 66.47006042849296 66.28547885002746 66.07013367515107 65.73173411463102 65.42409815052187 65.08569859000184 64.74729902948178 64.50119025819447 64.1320271012635 63.73210034792162 63.4552279802234 63.14759201611426 62.62461087712873 62.31697491301959 61.8862845632668 61.57864859915766 61.17872184581578 60.778795092473906 60.3173411463102 60.00970518220106 59.54825123603735 59.24061527192821 58.779161325764505 58.40999816883354 57.917780626258924 57.517853872917044 57.33327229445156 56.964109137520595 56.56418238417872 56.28731001648049 55.76432887749496 55.48745650979674 55.05676616004395 54.65683940670207 54.379967039003844 53.88774949642922 53.70316791796374 53.33400476103277 52.96484160410181 52.718732832814496 52.411096868705364 52.103460904596226 51.85735213330892 51.58047976561069 51.242080205090645 51.02673503021424 50.74986266251602 50.534517487639626 50.22688152353049 49.79619117377769 49.61160959531221 49.30397363120308 49.027101263504846 48.44259293169749 48.104193371177445 47.64273942501373 47.08899468961728 46.53524995422084 46.13532320087896 45.61234206189343 45.27394250137337 44.75096136238784 44.28950741622413 43.981871452114994 43.52041750595129 43.12049075260941 42.78209119208936 42.44369163156931 42.13605566746017 41.705365317707376 41.27467496795458 40.81322102179088 40.50558505768174 39.921076725874386 39.644204358176154 39.367331990477936 39.09045962277971 38.50595129097235 38.10602453763047 37.798388573521336 37.459989013001284 37.09082585607032 36.81395348837209 36.47555392785204 36.22944515656473 35.89104559604468 35.52188243911371 35.27577366782641 34.96813770371727 34.69126533601904 34.475920161142646 34.229811389855335 34.04522981138985 33.829884636513455 33.67606665445889 33.522248672404324 33.368430690349754 33.2453763047061 33.12232191906244 32.99926753341879 32.906976744186046 32.75315876213148 32.660867972898735 32.59934078007691 32.47628639443325 32.32246841237868 32.260941219556855 32.19941402673503 32.1378868339132 32.07635964109137 32.014832448269544 31.984068851858634 31.891778062625892 31.830250869804065 31.737960080571323 31.676432887749495 31.614905694927668 31.55337850210584 31.430324116462188 31.307269730818533 31.184215345174877 31.091924555942136 30.938106573887566 30.845815784654825 30.753524995422083 30.630470609778428 30.445889031312948 30.38436183849112 30.29207104925838 30.261307452847465 30.169016663614723 30.13825306720381 30.107489470792896 30.045962277971068 29.98443508514924 29.953671488738326 29.922907892327412 29.8921442959165 29.861380699505585 29.861380699505585 29.83061710309467 29.83061710309467 29.799853506683757 29.799853506683757 29.769089910272843 29.73832631386193 29.6767991210401 29.646035524629188 29.615271928218274 29.553744735396446 29.522981138985532 29.522981138985532 29.461453946163708 29.461453946163708 29.430690349752794 29.430690349752794 29.39992675334188 29.39992675334188 29.39992675334188 29.39992675334188 29.39992675334188 29.39992675334188 29.39992675334188 29.39992675334188 29.369163156930966 29.369163156930966 29.369163156930966 29.338399560520052 29.338399560520052 29.30763596410914 29.30763596410914 29.276872367698225 29.276872367698225 29.24610877128731 29.24610877128731 29.24610877128731 29.24610877128731 29.24610877128731 29.24610877128731 29.24610877128731 29.215345174876397 29.215345174876397 29.215345174876397 29.184581578465483 29.184581578465483 29.15381798205457 29.15381798205457 29.15381798205457 29.15381798205457 29.15381798205457 29.15381798205457 29.15381798205457 29.15381798205457 29.15381798205457 29.123054385643655 29.123054385643655 29.123054385643655 29.123054385643655 29.123054385643655 29.123054385643655 29.123054385643655 29.123054385643655 29.09229078923274 29.09229078923274 29.123054385643655 29.09229078923274 29.123054385643655 29.123054385643655 29.09229078923274 29.09229078923274 29.123054385643655 29.09229078923274 29.09229078923274 29.061527192821828 29.061527192821828 29.061527192821828 29.030763596410914 29.030763596410914 29.030763596410914 29.030763596410914 29.030763596410914 29.030763596410914 29.030763596410914 29.030763596410914 29.030763596410914 29.030763596410914 29.030763596410914 29.030763596410914 29.030763596410914 29.030763596410914 29.030763596410914 29.030763596410914 29.030763596410914 29.030763596410914 29.030763596410914 29.030763596410914 29.030763596410914 29.030763596410914 29.030763596410914 29.030763596410914 29.030763596410914 29.030763596410914 29.030763596410914 29.030763596410914 29.030763596410914 29.030763596410914 29.030763596410914 29.030763596410914 29.030763596410914 29.030763596410914 29.030763596410914 29.030763596410914 29.030763596410914 29.030763596410914 29.030763596410914 29.030763596410914 29.030763596410914 29.030763596410914 29.030763596410914 29.030763596410914 29.030763596410914 29.030763596410914 29.030763596410914 29.030763596410914 29.030763596410914 29.030763596410914 29.030763596410914 29.030763596410914 29.030763596410914 29.030763596410914 29.030763596410914 29.030763596410914 29.030763596410914 29.030763596410914 29.0 29.030763596410914 29.030763596410914 29.030763596410914 29.030763596410914 29.0 29.030763596410914 29.030763596410914 29.030763596410914 29.0 29.0 29.0 29.0 29.0 29.0 29.0 28.969236403589086 29.0 28.969236403589086 28.969236403589086 28.969236403589086 29.0 28.969236403589086 28.969236403589086 28.969236403589086 28.969236403589086 28.969236403589086 29.0 28.969236403589086 28.969236403589086 28.969236403589086 28.969236403589086 28.969236403589086 28.969236403589086 28.969236403589086 29.0 28.969236403589086 28.969236403589086 28.969236403589086 28.969236403589086 28.969236403589086 28.969236403589086 28.969236403589086 28.969236403589086 28.969236403589086 28.969236403589086 28.969236403589086 28.969236403589086 28.969236403589086 28.969236403589086 28.969236403589086 28.969236403589086 28.969236403589086 29.0 28.969236403589086 28.969236403589086 28.969236403589086 28.969236403589086 28.969236403589086 28.969236403589086 28.969236403589086 28.969236403589086 28.969236403589086 28.969236403589086 28.969236403589086 28.969236403589086 28.969236403589086 28.969236403589086 28.969236403589086 28.969236403589086 28.969236403589086 28.969236403589086 28.969236403589086 28.969236403589086 29.0 28.969236403589086 28.969236403589086 28.969236403589086 28.969236403589086 28.969236403589086 28.969236403589086 28.969236403589086 28.969236403589086 28.969236403589086 28.969236403589086 28.969236403589086 28.969236403589086 28.969236403589086 28.969236403589086 28.969236403589086 28.969236403589086 28.969236403589086 28.969236403589086 28.969236403589086 28.969236403589086 28.969236403589086 28.969236403589086 28.969236403589086 28.969236403589086 28.969236403589086 28.969236403589086 28.969236403589086 28.969236403589086 28.969236403589086 28.969236403589086 28.969236403589086 28.969236403589086 28.969236403589086 28.969236403589086 28.969236403589086 28.969236403589086 28.969236403589086 28.969236403589086 28.969236403589086 28.969236403589086 28.969236403589086 28.969236403589086 28.969236403589086 28.969236403589086 28.969236403589086 28.969236403589086 28.969236403589086 28.969236403589086 28.969236403589086 28.969236403589086 28.969236403589086 28.969236403589086 28.969236403589086 28.969236403589086 28.969236403589086 28.969236403589086 28.969236403589086 28.969236403589086 28.969236403589086 28.969236403589086 28.969236403589086 28.969236403589086 28.969236403589086 28.969236403589086 28.969236403589086 28.969236403589086 28.969236403589086 28.969236403589086 28.969236403589086 29.0 28.969236403589086 28.969236403589086 28.969236403589086 28.969236403589086 28.969236403589086 28.969236403589086 28.969236403589086 28.969236403589086 28.969236403589086 28.969236403589086 28.969236403589086 28.969236403589086 28.969236403589086 28.969236403589086 28.969236403589086 28.969236403589086 28.969236403589086 28.969236403589086 28.969236403589086 28.969236403589086 28.969236403589086 28.969236403589086 28.969236403589086 28.969236403589086 28.969236403589086 28.969236403589086 28.969236403589086 28.969236403589086 28.969236403589086 28.969236403589086 28.969236403589086 28.969236403589086 28.969236403589086 28.969236403589086 28.969236403589086 28.969236403589086 28.969236403589086 28.969236403589086 28.969236403589086 28.969236403589086 28.969236403589086 28.969236403589086 28.969236403589086 28.969236403589086 28.969236403589086 28.969236403589086 28.969236403589086 28.969236403589086 28.969236403589086 28.969236403589086 28.969236403589086 28.969236403589086 28.969236403589086 28.969236403589086 28.969236403589086 28.969236403589086 28.969236403589086 29.0 28.969236403589086 28.969236403589086 28.969236403589086 28.969236403589086 28.969236403589086 28.969236403589086 28.969236403589086 28.969236403589086 28.969236403589086 28.969236403589086 28.969236403589086 28.969236403589086 28.969236403589086 28.969236403589086 28.969236403589086 28.969236403589086 28.969236403589086 28.969236403589086 28.969236403589086 28.969236403589086 28.969236403589086 28.969236403589086 28.969236403589086 28.969236403589086 29.0 28.969236403589086 28.969236403589086 28.969236403589086 28.969236403589086 28.969236403589086 28.969236403589086 28.969236403589086 28.969236403589086 28.969236403589086 28.969236403589086 28.969236403589086 28.969236403589086 28.969236403589086 28.969236403589086 28.969236403589086 28.969236403589086 28.969236403589086 28.969236403589086 28.969236403589086 28.969236403589086 28.969236403589086 28.969236403589086 28.969236403589086 28.969236403589086 28.969236403589086 28.969236403589086 28.969236403589086 28.969236403589086 28.969236403589086 28.969236403589086 28.969236403589086 28.969236403589086 28.969236403589086 29.0 28.969236403589086 28.969236403589086 28.969236403589086 28.969236403589086 28.969236403589086 28.969236403589086 28.969236403589086 28.969236403589086 28.969236403589086 29.0 28.969236403589086 28.969236403589086 28.969236403589086 28.969236403589086 28.969236403589086 28.969236403589086 28.969236403589086 28.969236403589086 28.969236403589086 28.969236403589086 29.0 28.969236403589086 28.969236403589086 28.969236403589086 28.969236403589086 28.969236403589086 28.969236403589086 28.969236403589086 28.969236403589086 28.969236403589086 28.969236403589086 28.969236403589086 28.969236403589086 28.969236403589086 28.969236403589086 28.969236403589086 28.969236403589086 28.969236403589086 28.969236403589086 28.969236403589086 28.969236403589086 28.969236403589086 28.969236403589086 28.969236403589086 28.969236403589086 28.969236403589086 28.969236403589086 28.969236403589086 28.969236403589086 28.969236403589086 28.969236403589086 28.969236403589086 28.969236403589086 28.969236403589086 28.969236403589086 28.969236403589086 28.969236403589086 28.969236403589086 28.969236403589086 28.969236403589086 28.969236403589086 28.969236403589086 28.969236403589086 28.969236403589086 28.969236403589086 28.969236403589086 28.969236403589086 28.969236403589086 28.969236403589086 28.969236403589086 28.969236403589086 28.969236403589086 28.969236403589086 28.969236403589086 28.969236403589086 28.969236403589086 28.969236403589086 28.969236403589086 28.969236403589086 28.969236403589086 28.969236403589086 28.969236403589086 28.969236403589086 28.969236403589086 28.969236403589086 28.969236403589086 28.969236403589086 28.969236403589086 28.969236403589086 28.969236403589086 28.969236403589086 28.969236403589086 28.969236403589086 28.969236403589086 28.969236403589086 28.969236403589086 28.969236403589086 28.969236403589086 28.969236403589086 28.969236403589086 28.969236403589086 28.969236403589086 28.969236403589086 28.969236403589086 28.969236403589086 28.969236403589086 28.969236403589086 28.969236403589086 28.969236403589086 28.969236403589086 28.969236403589086 28.969236403589086 28.969236403589086 28.969236403589086 28.969236403589086 28.969236403589086 28.969236403589086 28.969236403589086 28.969236403589086 28.969236403589086 28.969236403589086 28.969236403589086 28.969236403589086 28.969236403589086 28.969236403589086 28.969236403589086 28.969236403589086 28.969236403589086 28.969236403589086 28.969236403589086 28.969236403589086 28.969236403589086 28.969236403589086 28.969236403589086 28.969236403589086 28.969236403589086 28.969236403589086 28.969236403589086 28.969236403589086 28.969236403589086 28.969236403589086 28.969236403589086 28.969236403589086 28.969236403589086 28.969236403589086 28.969236403589086 28.969236403589086 28.969236403589086 28.969236403589086 28.969236403589086 28.969236403589086 28.969236403589086 28.969236403589086 28.969236403589086 28.969236403589086 28.969236403589086 28.969236403589086 28.969236403589086 28.969236403589086 28.969236403589086 28.969236403589086 28.969236403589086 28.969236403589086 28.969236403589086 28.969236403589086 28.969236403589086 28.969236403589086 28.969236403589086 28.969236403589086 28.969236403589086 28.969236403589086 28.969236403589086 28.969236403589086 28.969236403589086 28.969236403589086 28.969236403589086 28.969236403589086 28.969236403589086 28.969236403589086 28.969236403589086 28.969236403589086 28.969236403589086 28.969236403589086 28.969236403589086 28.969236403589086 28.969236403589086 28.969236403589086 28.969236403589086 28.969236403589086 28.969236403589086 28.969236403589086 28.969236403589086 28.969236403589086 28.969236403589086 28.969236403589086 28.969236403589086 28.969236403589086 28.969236403589086 28.969236403589086 28.969236403589086 28.969236403589086 28.969236403589086 28.969236403589086 28.969236403589086 28.969236403589086 28.969236403589086 28.969236403589086 28.969236403589086 28.969236403589086 28.969236403589086 28.969236403589086 28.969236403589086 28.969236403589086 28.969236403589086 28.969236403589086 28.969236403589086 28.969236403589086 28.969236403589086 28.969236403589086 28.969236403589086 28.969236403589086 28.969236403589086 28.969236403589086 28.969236403589086 28.969236403589086 28.969236403589086 28.969236403589086 28.969236403589086 28.969236403589086 28.969236403589086 28.969236403589086 28.969236403589086 28.969236403589086 28.969236403589086 28.969236403589086 28.969236403589086 28.969236403589086 28.969236403589086 28.969236403589086 28.969236403589086 28.969236403589086 28.969236403589086 28.969236403589086 28.969236403589086 28.969236403589086 28.969236403589086 28.969236403589086 28.969236403589086 28.969236403589086 28.969236403589086 28.969236403589086 28.969236403589086 28.969236403589086 28.969236403589086 28.969236403589086 28.969236403589086 28.969236403589086 28.969236403589086 28.969236403589086 28.969236403589086 28.969236403589086 28.969236403589086 28.969236403589086 28.969236403589086 28.969236403589086 28.969236403589086 28.969236403589086 28.969236403589086 28.969236403589086 28.969236403589086 28.969236403589086 28.969236403589086 28.969236403589086 28.969236403589086 28.969236403589086 28.969236403589086 28.969236403589086 28.969236403589086 28.969236403589086 28.969236403589086 28.969236403589086 28.969236403589086 28.969236403589086 28.969236403589086 28.969236403589086 28.969236403589086 28.969236403589086 28.969236403589086 28.969236403589086 28.969236403589086 28.969236403589086 28.969236403589086 28.969236403589086 28.969236403589086 28.969236403589086 28.969236403589086 28.969236403589086 28.969236403589086 28.969236403589086 28.969236403589086 28.969236403589086 28.969236403589086 28.969236403589086 28.969236403589086 28.969236403589086 28.969236403589086 28.969236403589086 28.969236403589086 28.969236403589086 28.969236403589086 28.969236403589086 28.969236403589086 28.969236403589086 29.0 28.969236403589086 28.969236403589086 28.969236403589086 28.969236403589086 28.969236403589086 28.969236403589086 28.969236403589086 28.969236403589086 28.969236403589086 28.969236403589086 28.969236403589086 28.969236403589086 28.969236403589086 28.969236403589086 28.969236403589086 28.969236403589086 28.969236403589086 28.969236403589086 28.969236403589086 28.969236403589086 28.969236403589086 28.969236403589086 28.969236403589086 28.969236403589086 28.969236403589086 28.969236403589086 28.969236403589086 28.969236403589086 28.969236403589086 28.969236403589086 28.969236403589086 28.969236403589086 28.969236403589086 28.969236403589086 28.969236403589086 28.969236403589086 28.969236403589086 28.969236403589086 28.969236403589086 28.969236403589086 28.969236403589086 28.969236403589086 28.969236403589086 28.969236403589086 28.969236403589086 28.969236403589086 28.969236403589086 28.969236403589086 28.969236403589086 28.969236403589086 28.969236403589086 28.969236403589086 28.969236403589086 28.969236403589086 28.969236403589086 28.969236403589086 28.969236403589086 28.969236403589086 28.969236403589086 28.969236403589086 28.969236403589086 28.969236403589086 28.969236403589086 28.969236403589086 28.969236403589086 28.969236403589086 28.969236403589086 28.969236403589086 28.969236403589086 28.969236403589086 28.969236403589086 28.969236403589086 28.969236403589086 28.969236403589086 28.969236403589086 28.969236403589086 28.969236403589086 28.969236403589086 28.969236403589086 28.969236403589086 28.969236403589086 28.969236403589086 28.969236403589086 28.969236403589086 28.969236403589086 28.969236403589086 28.969236403589086 28.969236403589086 28.969236403589086 28.969236403589086 28.969236403589086 28.969236403589086 28.969236403589086 28.969236403589086 28.969236403589086 28.969236403589086 28.969236403589086 28.969236403589086 28.969236403589086 28.969236403589086 28.969236403589086 28.969236403589086 28.969236403589086 28.969236403589086 28.969236403589086 28.969236403589086 28.969236403589086 28.969236403589086 28.969236403589086 28.969236403589086 28.969236403589086 28.969236403589086 29.0 28.969236403589086 29.0 28.969236403589086 29.0 29.030763596410914 29.09229078923274 29.15381798205457 29.24610877128731 29.39992675334188 29.49221754257462 29.522981138985532 29.58450833180736 29.615271928218274 29.6767991210401 29.73832631386193 29.799853506683757 29.83061710309467 29.861380699505585 29.861380699505585 29.922907892327412 29.98443508514924 30.13825306720381 30.353598242080206 30.445889031312948 30.630470609778428 30.87657938106574 31.030397363120308 31.091924555942136 31.184215345174877 31.614905694927668 31.984068851858634 32.107123237502286 32.63010437648782 33.0300311298297 33.42995788317158 34.075993407800766 34.537447353964474 35.15271928218275 35.82951840322285 36.32173594579747 37.02929866324849 37.798388573521336 38.321369712506865 39.39809558688884 39.982603918696206 40.75169382896905 41.27467496795458 41.82841970335103 42.659036806445705 43.42812671671855 44.227980223402305 44.99707013367515 45.48928767624977 46.25837758652261 46.965940303973625 47.27357626808276 48.13495696758835 48.75022889580663 49.1501556491485 49.70390038454495 50.10382713788683 50.78062625892693 51.27284380150155 51.488188976377955 51.98040651895257 52.38033327229445 52.9340780076909 53.42629555026552 53.918513092840136 54.41073063541476 54.933711774400294 55.30287493133125 55.67203808826222 56.041201245193186 56.93334554110969 57.39479948727339 57.763962644204355 58.22541659036806 58.7483977293536 59.14832448269547 59.67130562168101 60.1019959714338 60.53268632118659 61.055667460172124 61.42483061710309 61.91704815967771 62.44002929866325 62.93224684123786 63.239882805347 63.54751876945614 64.03973631203075 64.47042666178355 64.77806262589269 65.42409815052187 65.9163156930965 66.19318806079472 66.50082402490386 66.83922358542392 67.48525911005311 67.94671305621681 68.25434902032595 68.71580296648965 69.17725691265336 69.4848928767625 69.9463468229262 70.31550997985717 70.71543673319906 71.20765427577366 71.5152902398828 71.97674418604652 72.43819813221022 72.77659769273026 73.20728804248306 73.45339681377037 73.82255997070132 74.16095953122138 74.56088628456325 74.77623145943966 75.17615821278153 75.42226698406884 75.66837575535615 75.88372093023256 76.34517487639626 76.6528108405054 76.8989196117927 77.26808276872367 77.51419154001098 77.85259110053104 78.25251785387292 78.52939022157113 78.83702618568027 79.20618934261125 79.48306171030947 79.82146127082952 80.06757004211681 80.37520600622597 80.74436916315693 81.02124153085515 81.26735030214246 81.72880424830618 82.0056766160044 82.31331258011353 82.55942135140083 82.74400292986633 83.20545687603003 83.42080205090642 83.75920161142648 84.09760117194652 84.34370994323385 84.68210950375389 84.92821827504119 85.42043581761581 85.63578099249222 85.88188976377953 86.18952572788865 86.4971616919978 86.68174327046327 86.92785204175058 87.1739608130379 87.3893059879143 87.54312396996886 87.60465116279069 87.69694195202344 87.78923274125617 87.850759934078 87.850759934078 87.850759934078 87.88152353048892 87.850759934078 87.88152353048892 87.88152353048892 87.88152353048892 87.88152353048892 87.88152353048892 87.850759934078 87.850759934078 87.850759934078 87.850759934078 87.81999633766708 87.81999633766708 87.78923274125617 87.78923274125617 87.78923274125617 87.78923274125617 87.78923274125617 87.78923274125617 87.78923274125617 87.78923274125617 87.81999633766708 87.81999633766708 87.850759934078 87.850759934078 87.850759934078 87.850759934078 87.850759934078 87.88152353048892 87.850759934078 87.850759934078 87.850759934078 87.850759934078 87.850759934078 87.81999633766708 87.81999633766708 87.78923274125617 87.78923274125617 87.78923274125617 87.78923274125617 87.78923274125617 87.78923274125617 87.78923274125617 87.78923274125617 87.78923274125617 87.78923274125617 87.78923274125617 87.78923274125617 87.78923274125617 87.75846914484526 87.72770554843434 87.69694195202344 87.69694195202344 87.66617835561252 87.66617835561252 87.63541475920161 87.60465116279069 87.60465116279069 87.60465116279069 87.60465116279069 87.60465116279069 87.57388756637978 87.57388756637978 87.57388756637978 87.57388756637978 87.57388756637978 87.54312396996886 87.54312396996886 87.54312396996886 87.54312396996886 87.54312396996886 87.54312396996886 87.51236037355795 87.51236037355795 87.51236037355795 87.51236037355795 87.54312396996886 87.51236037355795 87.51236037355795 87.51236037355795 87.48159677714705 87.45083318073613 87.4200695843252 87.3893059879143 87.32777879509247 87.32777879509247 87.26625160227064 87.26625160227064 87.23548800585974 87.23548800585974 87.2047244094488 87.1739608130379 87.1739608130379 87.1739608130379 87.1739608130379 87.1739608130379 87.14319721662699 87.11243362021608 87.05090642739424 86.98937923457241 86.98937923457241 86.9586156381615 86.89708844533968 86.86632484892877 86.80479765610693 86.77403405969602 86.74327046328511 86.7125068668742 86.68174327046327 86.65097967405237 86.65097967405237 86.68174327046327 86.65097967405237 86.65097967405237 86.65097967405237 86.65097967405237 86.65097967405237 86.65097967405237 86.65097967405237 86.68174327046327 86.65097967405237 86.65097967405237 86.68174327046327 86.65097967405237 86.68174327046327 86.68174327046327 86.65097967405237 86.68174327046327 86.65097967405237 86.65097967405237 86.65097967405237 86.62021607764146 86.58945248123054 86.55868888481963 86.4971616919978 86.4971616919978 86.43563449917598 86.40487090276505 86.37410730635415 86.34334370994324 86.34334370994324 86.34334370994324 86.34334370994324 86.34334370994324 86.34334370994324 86.34334370994324 86.34334370994324 86.37410730635415 86.37410730635415 86.40487090276505 86.43563449917598 86.43563449917598 86.46639809558688 86.43563449917598 86.43563449917598 86.43563449917598 86.43563449917598 86.43563449917598 86.43563449917598 86.43563449917598 86.43563449917598 86.43563449917598 86.40487090276505 86.40487090276505 86.37410730635415 86.37410730635415 86.37410730635415 86.37410730635415 86.37410730635415 86.37410730635415 86.37410730635415 86.37410730635415 86.37410730635415 86.37410730635415 86.37410730635415 86.37410730635415 86.37410730635415 86.37410730635415 86.37410730635415 86.37410730635415 86.37410730635415 86.37410730635415 86.37410730635415 86.37410730635415 86.34334370994324 86.3125801135323 86.3125801135323 86.34334370994324 86.3125801135323 86.3125801135323 86.3125801135323 86.3125801135323 86.34334370994324 86.3125801135323 86.3125801135323 86.2818165171214 86.2818165171214 86.25105292071049 86.2818165171214 86.2818165171214 86.25105292071049 86.25105292071049 86.25105292071049 86.2818165171214 86.2818165171214 86.2818165171214 86.3125801135323 86.3125801135323 86.34334370994324 86.34334370994324 86.37410730635415 86.37410730635415 86.40487090276505 86.40487090276505 86.40487090276505 86.40487090276505 86.40487090276505 86.40487090276505 86.40487090276505 86.40487090276505 86.40487090276505 86.40487090276505 86.40487090276505 86.37410730635415 86.37410730635415 86.37410730635415 86.34334370994324 86.34334370994324 86.34334370994324 86.3125801135323 86.3125801135323 86.3125801135323 86.3125801135323 86.3125801135323 86.3125801135323 86.3125801135323 86.3125801135323 86.3125801135323 86.3125801135323 86.34334370994324 86.34334370994324 86.3125801135323 86.34334370994324 86.34334370994324 86.3125801135323 86.34334370994324 86.3125801135323 86.3125801135323 86.3125801135323 86.3125801135323 86.3125801135323 86.2818165171214 86.22028932429959 86.15876213147774 86.09723493865592 85.97418055301226 85.8511261673686 85.75883537813587 85.69730818531404 85.63578099249222 85.57425379967039 85.54349020325947 85.54349020325947 85.54349020325947 85.54349020325947 85.57425379967039 85.57425379967039 85.57425379967039 85.60501739608131 85.63578099249222 85.66654458890312 85.69730818531404 85.69730818531404 85.75883537813587 85.78959897454678 85.8203625709577 85.8203625709577 85.8511261673686 85.88188976377953 85.91265336019043 85.91265336019043 85.94341695660134 85.94341695660134 85.97418055301226 85.97418055301226 85.97418055301226 86.00494414942318 85.97418055301226 86.00494414942318 86.00494414942318 86.00494414942318 85.97418055301226 86.00494414942318 86.00494414942318 86.00494414942318 86.00494414942318 86.00494414942318 86.00494414942318 85.97418055301226 85.97418055301226 85.97418055301226 85.97418055301226 85.97418055301226 85.97418055301226 85.97418055301226 85.97418055301226 85.97418055301226 85.94341695660134 85.88188976377953 85.75883537813587 85.69730818531404 85.57425379967039 85.45119941402672 85.23585423915033 85.02050906427394 84.74363669657572 84.4667643288775 84.18989196117926 84.00531038271379 83.78996520783738 83.54385643655007 83.05163889397545 82.71323933345542 82.4671305621681 82.12873100164805 81.88262223036074 81.5749862662516 81.26735030214246 81.05200512726607 80.77513275956784 80.49826039186962 80.31367881340414 80.0368064457059 79.85222486724042 79.45229811389855 79.26771653543307 79.0831349569676 78.80626258926935 78.49862662516023 78.28328145028382 77.91411829335286 77.72953671488739 77.42190075077824 77.11426478666911 76.99121040102546 76.52975645486174 76.1913568943417 75.94524812305438 75.60684856253434 75.3299761948361 75.02234023072697 74.653177073796 74.43783189891961 74.13019593481047 73.85332356711226 73.66874198864676 73.39186962094854 73.23805163889398 72.99194286760667 72.68430690349753 72.49972532503205 72.31514374656656 72.06903497527925 71.82292620399194 71.54605383629371 71.33070866141732 70.99230910089727 70.6231459439663 70.34627357626809 69.88481963010437 69.42336568394066 69.08496612342061 68.56198498443507 68.1620582310932 67.66984068851858 67.08533235671122 66.74693279619117 66.28547885002746 65.88555209668559 65.60867972898737 65.14722578282365 64.71653543307087 64.25508148690716 63.916681926387106 63.60904596227797 63.17835561252517 62.901483244826956 62.409265702252334 62.009338948910454 61.76323017762314 61.33253982787035 60.96337667093938 60.71726789965207 60.28657754989928 60.040468778611974 59.60977842885918 59.17908807910639 58.87145211499725 58.44076176524446 57.763962644204355 57.33327229445156 56.964109137520595 56.62570957700055 56.041201245193186 55.24134773850943 54.841420985167545 54.2876762497711 53.73393151437466 53.364768357443694 52.96484160410181 52.59567844717085 52.011170115363484 51.58047976561069 51.30360739791247 50.87291704815968 50.4729902948178 50.22688152353049 49.82695477018861 49.55008240249039 49.1501556491485 48.719465299395715 48.411829335286576 48.011902581944696 47.45815784654825 47.15052188243911 46.87364951474089 46.56601355063175 46.104559604468044 45.67386925471526 45.3354696941952 44.72019776597693 44.227980223402305 43.88958066288225 43.5511811023622 43.18201794543124 42.47445522798022 41.951474088994686 41.58231093206372 40.997802600256364 40.444057864859914 40.07489470792895 39.55191356894342 39.24427760483428 38.78282365867057 38.35213330891778 38.013733748397726 37.64457059146676 37.33693462735763 36.78318989196118 36.47555392785204 36.1679179637429 35.76799121040103 35.21424647500458 34.99890130012818 34.69126533601904 34.35286577549899 33.983702618568024 33.76835744369163 33.614539461637065 33.368430690349754 33.15308551547336 32.99926753341879 32.78392235854239 32.63010437648782 32.44552279802234 32.29170481596777 32.168650430324114 31.984068851858634 31.86101446621498 31.768723676982237 31.64566929133858 31.584142098516754 31.491851309284012 31.307269730818533 31.245742537996705 31.091924555942136 30.938106573887566 30.753524995422083 30.538179820545686 30.415125434902034 30.169016663614723 29.922907892327412 29.861380699505585 29.615271928218274 29.553744735396446 29.553744735396446 29.522981138985532 29.522981138985532 29.461453946163708 29.461453946163708 29.461453946163708 29.430690349752794 29.430690349752794 29.430690349752794 29.39992675334188 29.369163156930966 29.338399560520052 29.30763596410914 29.276872367698225 29.276872367698225 29.276872367698225 29.276872367698225 29.24610877128731 29.24610877128731 29.215345174876397 29.215345174876397 29.184581578465483 29.184581578465483 29.184581578465483 29.184581578465483 29.184581578465483 29.184581578465483 29.15381798205457 29.15381798205457 29.184581578465483 29.184581578465483 29.184581578465483 29.184581578465483 29.15381798205457 29.184581578465483 29.184581578465483 29.15381798205457 29.15381798205457 29.15381798205457 29.15381798205457 29.15381798205457 29.15381798205457 29.15381798205457 29.15381798205457 29.184581578465483 29.15381798205457 29.184581578465483 29.15381798205457 29.15381798205457 29.15381798205457 29.15381798205457 29.184581578465483 29.15381798205457 29.15381798205457 29.15381798205457 29.15381798205457 29.15381798205457 29.15381798205457 29.15381798205457 29.15381798205457 29.15381798205457 29.15381798205457 29.15381798205457 29.15381798205457 29.15381798205457 29.15381798205457 29.15381798205457 29.15381798205457 29.184581578465483 29.15381798205457 29.15381798205457 29.15381798205457 29.15381798205457 29.15381798205457 29.15381798205457 29.15381798205457 29.15381798205457 29.15381798205457 29.15381798205457 29.15381798205457 29.15381798205457 29.15381798205457 29.15381798205457 29.15381798205457 29.15381798205457 29.15381798205457 29.15381798205457 29.15381798205457 29.15381798205457 29.15381798205457 29.15381798205457 29.15381798205457 29.15381798205457 29.15381798205457 29.15381798205457 29.15381798205457 29.15381798205457 29.15381798205457 29.15381798205457 29.15381798205457 29.15381798205457 29.15381798205457 29.15381798205457 29.15381798205457 29.15381798205457 29.15381798205457 29.15381798205457 29.184581578465483 29.15381798205457 29.15381798205457 29.15381798205457 29.15381798205457 29.15381798205457 29.15381798205457 29.15381798205457 29.15381798205457 29.15381798205457 29.15381798205457 29.15381798205457 29.15381798205457 29.15381798205457 29.15381798205457 29.15381798205457 29.15381798205457 29.15381798205457 29.15381798205457 29.15381798205457 29.15381798205457 29.15381798205457 29.184581578465483 29.15381798205457 29.15381798205457 29.15381798205457 29.15381798205457 29.15381798205457 29.15381798205457 29.15381798205457 29.184581578465483 29.15381798205457 29.15381798205457 29.15381798205457 29.15381798205457 29.15381798205457 29.15381798205457 29.15381798205457 29.15381798205457 29.15381798205457 29.15381798205457 29.15381798205457 29.15381798205457 29.15381798205457 29.15381798205457 29.15381798205457 29.15381798205457 29.15381798205457 29.15381798205457 29.15381798205457 29.15381798205457 29.15381798205457 29.15381798205457 29.15381798205457 29.15381798205457 29.15381798205457 29.15381798205457 29.15381798205457 29.15381798205457 29.15381798205457 29.15381798205457 29.15381798205457 29.15381798205457 29.15381798205457 29.15381798205457 29.184581578465483 29.15381798205457 29.15381798205457 29.15381798205457 29.15381798205457 29.184581578465483 29.15381798205457 29.15381798205457 29.15381798205457 29.15381798205457 29.15381798205457 29.15381798205457 29.15381798205457 29.15381798205457 29.15381798205457 29.15381798205457 29.15381798205457 29.15381798205457 29.15381798205457 29.15381798205457 29.15381798205457 29.184581578465483 29.15381798205457 29.15381798205457 29.15381798205457 29.15381798205457 29.15381798205457 29.15381798205457 29.15381798205457 29.15381798205457 29.15381798205457 29.15381798205457 29.15381798205457 29.15381798205457 29.15381798205457 29.15381798205457 29.15381798205457 29.15381798205457 29.15381798205457 29.15381798205457 29.15381798205457 29.184581578465483 29.15381798205457 29.15381798205457 29.15381798205457 29.15381798205457 29.15381798205457 29.15381798205457 29.15381798205457 29.15381798205457 29.15381798205457 29.15381798205457 29.15381798205457 29.15381798205457 29.15381798205457 29.15381798205457 29.15381798205457 29.15381798205457 29.15381798205457 29.184581578465483 29.15381798205457 29.15381798205457 29.15381798205457 29.15381798205457 29.15381798205457 29.15381798205457 29.15381798205457 29.15381798205457 29.15381798205457 29.15381798205457 29.15381798205457 29.15381798205457 29.15381798205457 29.15381798205457 29.15381798205457 29.15381798205457 29.15381798205457 29.15381798205457 29.15381798205457 29.15381798205457 29.15381798205457 29.15381798205457 29.15381798205457 29.15381798205457 29.15381798205457 29.15381798205457 29.15381798205457 29.15381798205457 29.15381798205457 29.184581578465483 29.15381798205457 29.15381798205457 29.15381798205457 29.15381798205457 29.15381798205457 29.15381798205457 29.15381798205457 29.15381798205457 29.15381798205457 29.15381798205457 29.15381798205457 29.15381798205457 29.15381798205457 29.15381798205457 29.15381798205457 29.15381798205457 29.15381798205457 29.15381798205457 29.15381798205457 29.15381798205457 29.15381798205457 29.15381798205457 29.15381798205457 29.15381798205457 29.15381798205457 29.15381798205457 29.15381798205457 29.15381798205457 29.15381798205457 29.15381798205457 29.15381798205457 29.15381798205457 29.15381798205457 29.15381798205457 29.15381798205457 29.15381798205457 29.15381798205457 29.15381798205457 29.15381798205457 29.15381798205457 29.15381798205457 29.15381798205457 29.15381798205457 29.15381798205457 29.184581578465483 29.15381798205457 29.15381798205457 29.15381798205457 29.15381798205457 29.15381798205457 29.15381798205457 29.15381798205457 29.15381798205457 29.15381798205457 29.15381798205457 29.184581578465483 29.15381798205457 29.15381798205457 29.15381798205457 29.15381798205457 29.15381798205457 29.15381798205457 29.15381798205457 29.15381798205457 29.15381798205457 29.15381798205457 29.15381798205457 29.15381798205457 29.15381798205457 29.15381798205457 29.15381798205457 29.15381798205457 29.15381798205457 29.15381798205457 29.15381798205457 29.15381798205457 29.15381798205457 29.15381798205457 29.15381798205457 29.15381798205457 29.15381798205457 29.15381798205457 29.15381798205457 29.15381798205457 29.184581578465483 29.15381798205457 29.15381798205457 29.15381798205457 29.15381798205457 29.15381798205457 29.15381798205457 29.15381798205457 29.15381798205457 29.15381798205457 29.15381798205457 29.15381798205457 29.15381798205457 29.15381798205457 29.15381798205457 29.15381798205457 29.15381798205457 29.15381798205457 29.15381798205457 29.15381798205457 29.15381798205457 29.15381798205457 29.15381798205457 29.15381798205457 29.15381798205457 29.15381798205457 29.15381798205457 29.15381798205457 29.15381798205457 29.15381798205457 29.15381798205457 29.15381798205457 29.15381798205457 29.15381798205457 29.15381798205457 29.15381798205457 29.15381798205457 29.15381798205457 29.15381798205457 29.15381798205457 29.15381798205457 29.15381798205457 29.15381798205457 29.15381798205457 29.15381798205457 29.15381798205457 29.15381798205457 29.15381798205457 29.15381798205457 29.15381798205457 29.15381798205457 29.15381798205457 29.15381798205457 29.15381798205457 29.15381798205457 29.15381798205457 29.15381798205457 29.15381798205457 29.15381798205457 29.15381798205457 29.15381798205457 29.15381798205457 29.15381798205457 29.15381798205457 29.15381798205457 29.15381798205457 29.15381798205457 29.15381798205457 29.15381798205457 29.15381798205457 29.15381798205457 29.15381798205457 29.15381798205457 29.15381798205457 29.15381798205457 29.15381798205457 29.15381798205457 29.15381798205457 29.15381798205457 29.15381798205457 29.15381798205457 29.15381798205457 29.15381798205457 29.15381798205457 29.15381798205457 29.15381798205457 29.15381798205457 29.15381798205457 29.15381798205457 29.15381798205457 29.15381798205457 29.15381798205457 29.15381798205457 29.15381798205457 29.15381798205457 29.15381798205457 29.15381798205457 29.15381798205457 29.15381798205457 29.15381798205457 29.15381798205457 29.15381798205457 29.15381798205457 29.15381798205457 29.15381798205457 29.15381798205457 29.15381798205457 29.15381798205457 29.15381798205457 29.15381798205457 29.184581578465483 29.15381798205457 29.15381798205457 29.15381798205457 29.15381798205457 29.15381798205457 29.15381798205457 29.15381798205457 29.184581578465483 29.15381798205457 29.15381798205457 29.15381798205457 29.15381798205457 29.15381798205457 29.15381798205457 29.15381798205457 29.15381798205457 29.15381798205457 29.15381798205457 29.15381798205457 29.15381798205457 29.15381798205457 29.15381798205457 29.15381798205457 29.15381798205457 29.15381798205457 29.15381798205457 29.15381798205457 29.15381798205457 29.15381798205457 29.15381798205457 29.15381798205457 29.15381798205457 29.15381798205457 29.15381798205457 29.15381798205457 29.15381798205457 29.15381798205457 29.15381798205457 29.15381798205457 29.15381798205457 29.15381798205457 29.15381798205457 29.15381798205457 29.15381798205457 29.15381798205457 29.15381798205457 29.15381798205457 29.15381798205457 29.15381798205457 29.15381798205457 29.15381798205457 29.15381798205457 29.15381798205457 29.15381798205457 29.15381798205457 29.15381798205457 29.15381798205457 29.15381798205457 29.15381798205457 29.15381798205457 29.15381798205457 29.15381798205457 29.15381798205457 29.15381798205457 29.15381798205457 29.15381798205457 29.15381798205457 29.15381798205457 29.15381798205457 29.15381798205457 29.15381798205457 29.15381798205457 29.15381798205457 29.15381798205457 29.15381798205457 29.15381798205457 29.15381798205457 29.15381798205457 29.15381798205457 29.15381798205457 29.15381798205457 29.15381798205457 29.15381798205457 29.15381798205457 29.15381798205457 29.15381798205457 29.15381798205457 29.15381798205457 29.15381798205457 29.15381798205457 29.15381798205457 29.15381798205457 29.15381798205457 29.184581578465483 29.15381798205457 29.15381798205457 29.15381798205457 29.15381798205457 29.15381798205457 29.15381798205457 29.15381798205457 29.15381798205457 29.15381798205457 29.15381798205457 29.15381798205457 29.15381798205457 29.15381798205457 29.15381798205457 29.15381798205457 29.15381798205457 29.15381798205457 29.15381798205457 29.15381798205457 29.15381798205457 29.15381798205457 29.15381798205457 29.15381798205457 29.15381798205457 29.15381798205457 29.15381798205457 29.15381798205457 29.15381798205457 29.15381798205457 29.15381798205457 29.15381798205457 29.15381798205457 29.184581578465483 29.15381798205457 29.15381798205457 29.15381798205457 29.15381798205457 29.15381798205457 29.184581578465483 29.15381798205457 29.15381798205457 29.15381798205457 29.15381798205457 29.15381798205457 29.15381798205457 29.15381798205457 29.15381798205457 29.15381798205457 29.15381798205457 29.15381798205457 29.15381798205457 29.15381798205457 29.15381798205457 29.15381798205457 29.15381798205457 29.15381798205457 29.15381798205457 29.15381798205457 29.15381798205457 29.15381798205457 29.15381798205457 29.15381798205457 29.15381798205457 29.15381798205457 29.15381798205457 29.15381798205457 29.15381798205457 29.15381798205457 29.15381798205457 29.15381798205457 29.15381798205457 29.15381798205457 29.15381798205457 29.15381798205457 29.15381798205457 29.15381798205457 29.15381798205457 29.15381798205457 29.15381798205457 29.15381798205457 29.15381798205457 29.15381798205457 29.15381798205457 29.15381798205457 29.15381798205457 29.15381798205457 29.184581578465483 29.15381798205457 29.15381798205457 29.15381798205457 29.15381798205457 29.15381798205457 29.15381798205457 29.15381798205457 29.15381798205457 29.15381798205457 29.15381798205457 29.15381798205457 29.15381798205457 29.15381798205457 29.15381798205457 29.15381798205457 29.15381798205457 29.15381798205457 29.15381798205457 29.15381798205457 29.15381798205457 29.15381798205457 29.15381798205457 29.15381798205457 29.15381798205457 29.15381798205457 29.15381798205457 29.15381798205457 29.15381798205457 29.15381798205457 29.15381798205457 29.15381798205457 29.15381798205457 29.15381798205457 29.15381798205457 29.15381798205457 29.15381798205457 29.15381798205457 29.15381798205457 29.15381798205457 29.15381798205457 29.15381798205457 29.15381798205457 29.15381798205457 29.15381798205457 29.15381798205457 29.15381798205457 29.15381798205457 29.15381798205457 29.15381798205457 29.15381798205457 29.184581578465483 29.15381798205457 29.15381798205457 29.15381798205457 29.15381798205457 29.15381798205457 29.15381798205457 29.15381798205457 29.15381798205457 29.15381798205457 29.15381798205457 29.15381798205457 29.15381798205457 29.15381798205457 29.15381798205457 29.15381798205457 29.15381798205457 29.15381798205457 29.15381798205457 29.15381798205457 29.15381798205457 29.15381798205457 29.15381798205457 29.15381798205457 29.15381798205457 29.15381798205457 29.15381798205457 29.15381798205457 29.15381798205457 29.15381798205457 29.15381798205457 29.15381798205457 29.15381798205457 29.15381798205457 29.15381798205457 29.15381798205457 29.15381798205457 29.15381798205457 29.15381798205457 29.15381798205457 29.15381798205457 29.15381798205457 29.15381798205457 29.15381798205457 29.15381798205457 29.15381798205457 29.15381798205457 29.15381798205457 29.15381798205457 29.15381798205457 29.15381798205457 29.15381798205457 29.15381798205457 29.15381798205457 29.15381798205457 29.15381798205457 29.15381798205457 29.15381798205457 29.15381798205457 29.15381798205457 29.15381798205457 29.15381798205457 29.15381798205457 29.15381798205457 29.15381798205457 29.15381798205457 29.15381798205457 29.15381798205457 29.15381798205457 29.15381798205457 29.15381798205457 29.15381798205457 29.15381798205457 29.15381798205457 29.15381798205457 29.15381798205457 29.15381798205457 29.15381798205457 29.15381798205457 29.15381798205457 29.15381798205457 29.15381798205457 29.15381798205457 29.15381798205457 29.15381798205457 29.15381798205457 29.15381798205457 29.15381798205457 29.15381798205457 29.15381798205457 29.184581578465483 29.15381798205457 29.15381798205457 29.15381798205457 29.15381798205457 29.15381798205457 29.15381798205457 29.15381798205457 29.15381798205457 29.15381798205457 29.15381798205457 29.15381798205457 29.15381798205457 29.15381798205457 29.15381798205457 29.15381798205457 29.15381798205457 29.15381798205457 29.15381798205457 29.15381798205457 29.15381798205457 29.15381798205457 29.15381798205457 29.15381798205457 29.15381798205457 29.15381798205457 29.15381798205457 29.15381798205457 29.15381798205457 29.15381798205457 29.15381798205457 29.15381798205457 29.15381798205457 29.15381798205457 29.15381798205457 29.15381798205457 29.15381798205457 29.15381798205457 29.15381798205457 29.15381798205457 29.15381798205457 29.15381798205457 29.15381798205457 29.15381798205457 29.15381798205457 29.15381798205457 29.15381798205457 29.15381798205457 29.15381798205457 29.15381798205457 29.15381798205457 29.15381798205457 29.15381798205457 29.15381798205457 29.15381798205457 29.15381798205457 29.15381798205457 29.15381798205457 29.215345174876397 29.276872367698225 29.369163156930966 29.430690349752794 29.522981138985532 29.615271928218274 29.6767991210401 29.707562717451015 29.73832631386193 29.799853506683757 29.861380699505585 29.953671488738326 30.045962277971068 30.199780260025637 30.47665262772386 30.507416224134772 30.66123420618934 30.96887017029848 31.245742537996705 31.614905694927668 31.922541659036806 32.29170481596777 32.660867972898735 32.814685954953305 33.18384911188427 33.73759384728072 34.29133858267716 34.87584691448453 35.27577366782641 35.79875480681194 36.32173594579747 36.62937190990661 37.2754074345358 37.82915216993224 38.321369712506865 38.875114447903314 39.30580479765611 39.95184032228529 40.87474821461271 41.18238417872185 41.85918329976195 42.412928035158394 43.12049075260941 43.92034425929317 44.50485259110053 45.61234206189343 46.442959164988096 47.02746749679545 47.5812122321919 48.165720563999265 49.580845998901296 50.10382713788683 50.71909906610511 51.79582494048709 52.288042483061716 52.84178721845816 53.54934993590917 54.0415674784838 54.74913019593481 55.395165720563995 55.82585607031679 56.502655191356894 57.056399926753336 57.517853872917044 58.010071415491666 58.37923457242263 58.87145211499725 59.39443325398278 60.040468778611974 60.440395531953854 61.33253982787035 61.79399377403406 62.22468412378685 62.716901666361466 63.60904596227797 64.28584508331807 64.80882622230361 65.48562534334371 66.25471525361655 66.80845998901299 67.51602270646401 68.03900384544954 68.77733015931148 69.45412928035158 69.91558322651528 70.74620032960996 71.36147225782824 71.60758102911555 72.28438015015564 72.71507049990844 73.29957883171579 74.06866874198865 74.46859549533052 75.02234023072697 75.57608496612343 75.94524812305438 76.34517487639626 76.71433803332724 77.45266434718914 78.0064090825856 78.37557223951657 78.96008057132393 79.36000732466582 80.12909723493865 80.52902398828053 80.9289507416224 81.45193188060794 82.0056766160044 82.37483977293536 83.11316608679729 83.45156564731735 83.97454678630287 84.34370994323385 84.68210950375389 85.1435634499176 85.57425379967039 86.00494414942318 86.37410730635415 86.65097967405237 86.92785204175058 87.2047244094488 87.32777879509247 87.69694195202344 87.94305072331073 88.09686870536532 88.34297747665262 88.5275590551181 88.7429042299945 88.95824940487088 89.05054019410363 89.17359457974729 89.29664896539094 89.38893975462369 89.45046694744552 89.48123054385643 89.54275773667825 89.54275773667825 89.54275773667825 89.54275773667825 89.54275773667825 89.54275773667825 89.54275773667825 89.54275773667825 89.54275773667825 89.51199414026735 89.51199414026735 89.48123054385643 89.48123054385643 89.45046694744552 89.45046694744552 89.4197033510346 89.4197033510346 89.4197033510346 89.4197033510346 89.38893975462369 89.35817615821279 89.35817615821279 89.29664896539094 89.26588536898004 89.23512177256913 89.17359457974729 89.17359457974729 89.11206738692547 89.08130379051455 89.01977659769273 89.01977659769273 89.01977659769273 88.98901300128182 88.98901300128182 88.98901300128182 88.98901300128182 88.98901300128182 88.98901300128182 88.98901300128182 88.98901300128182 88.98901300128182 88.98901300128182 89.01977659769273 88.98901300128182 88.98901300128182 89.01977659769273 89.01977659769273 89.01977659769273 88.98901300128182 89.01977659769273 89.01977659769273 89.01977659769273 89.01977659769273 88.98901300128182 88.98901300128182 88.98901300128182 88.95824940487088 88.95824940487088 88.95824940487088 88.92748580845998 88.92748580845998 88.89672221204907 88.89672221204907 88.86595861563816 88.86595861563816 88.86595861563816 88.83519501922726 88.86595861563816 88.83519501922726 88.86595861563816 88.86595861563816 88.83519501922726 88.83519501922726 88.80443142281632 88.7429042299945 88.65061344076176 88.61984984435085 88.5275590551181 88.4967954587072 88.43526826588536 88.40450466947445 88.34297747665262 88.31221388024171 88.31221388024171 88.2814502838308 88.2814502838308 88.2814502838308 88.2814502838308 88.2814502838308 88.2814502838308 88.2814502838308 88.2814502838308 88.2814502838308 88.2814502838308 88.2814502838308 88.2814502838308 88.2814502838308 88.2814502838308 88.2814502838308 88.2814502838308 88.2814502838308 88.31221388024171 88.31221388024171 88.2814502838308 88.2814502838308 88.31221388024171 88.2814502838308 88.2814502838308 88.2814502838308 88.2814502838308 88.2814502838308 88.31221388024171 88.2814502838308 88.31221388024171 88.31221388024171 88.2814502838308 88.2814502838308 88.2814502838308 88.31221388024171 88.31221388024171 88.31221388024171 88.2814502838308 88.2814502838308 88.31221388024171 88.2814502838308 88.2814502838308 88.2814502838308 88.2814502838308 88.21992309100898 88.18915949459806 88.12763230177623 88.06610510895439 88.00457791613258 87.94305072331073 87.94305072331073 87.91228712689983 87.91228712689983 87.91228712689983 87.88152353048892 87.850759934078 87.850759934078 87.850759934078 87.81999633766708 87.78923274125617 87.78923274125617 87.78923274125617 87.78923274125617 87.78923274125617 87.78923274125617 87.78923274125617 87.78923274125617 87.78923274125617 87.78923274125617 87.78923274125617 87.81999633766708 87.78923274125617 87.78923274125617 87.81999633766708 87.81999633766708 87.78923274125617 87.81999633766708 87.81999633766708 87.78923274125617 87.78923274125617 87.81999633766708 87.81999633766708 87.81999633766708 87.81999633766708 87.850759934078 87.850759934078 87.88152353048892 87.91228712689983 87.94305072331073 87.97381431972167 87.97381431972167 87.97381431972167 87.97381431972167 87.97381431972167 87.97381431972167 87.97381431972167 87.97381431972167 87.97381431972167 87.97381431972167 87.97381431972167 87.97381431972167 87.97381431972167 87.97381431972167 87.97381431972167 87.97381431972167 87.97381431972167 87.97381431972167 87.97381431972167 87.97381431972167 87.97381431972167 87.97381431972167 87.97381431972167 87.97381431972167 87.97381431972167 87.97381431972167 87.97381431972167 87.97381431972167 87.97381431972167 87.97381431972167 87.97381431972167 