29.0 29.0 29.030763596410914 29.030763596410914 29.030763596410914 29.030763596410914 29.030763596410914 29.030763596410914 29.030763596410914 29.030763596410914 29.030763596410914 29.030763596410914 29.030763596410914 29.0 29.030763596410914 29.030763596410914 29.0 29.030763596410914 29.030763596410914 29.030763596410914 29.030763596410914 29.030763596410914 29.030763596410914 29.0 29.030763596410914 29.030763596410914 29.030763596410914 29.030763596410914 29.030763596410914 29.030763596410914 29.030763596410914 29.030763596410914 29.0 29.030763596410914 29.030763596410914 29.030763596410914 29.030763596410914 29.030763596410914 29.030763596410914 29.030763596410914 29.030763596410914 29.030763596410914 29.0 29.030763596410914 29.030763596410914 29.030763596410914 29.0 29.030763596410914 29.030763596410914 29.0 29.030763596410914 29.030763596410914 29.0 29.030763596410914 29.030763596410914 29.030763596410914 29.030763596410914 29.0 29.030763596410914 29.0 29.030763596410914 29.030763596410914 29.030763596410914 29.030763596410914 29.030763596410914 29.030763596410914 29.0 29.030763596410914 29.030763596410914 29.030763596410914 29.030763596410914 29.030763596410914 29.0 29.030763596410914 29.030763596410914 29.0 29.030763596410914 29.030763596410914 29.030763596410914 29.030763596410914 29.0 29.030763596410914 29.030763596410914 29.030763596410914 29.030763596410914 29.0 29.030763596410914 29.030763596410914 29.0 29.030763596410914 29.0 29.030763596410914 29.0 29.030763596410914 29.030763596410914 29.030763596410914 29.030763596410914 29.030763596410914 29.030763596410914 29.030763596410914 29.030763596410914 29.030763596410914 29.030763596410914 29.030763596410914 29.030763596410914 29.030763596410914 29.030763596410914 29.030763596410914 29.030763596410914 29.0 29.030763596410914 29.030763596410914 29.030763596410914 29.030763596410914 29.030763596410914 29.030763596410914 29.030763596410914 29.030763596410914 29.0 29.0 29.030763596410914 29.030763596410914 29.030763596410914 29.030763596410914 29.030763596410914 29.0 29.030763596410914 29.030763596410914 29.030763596410914 29.030763596410914 29.0 29.030763596410914 29.0 29.030763596410914 29.030763596410914 29.030763596410914 29.030763596410914 29.030763596410914 29.030763596410914 29.030763596410914 29.030763596410914 29.030763596410914 29.0 29.030763596410914 29.030763596410914 29.0 29.0 29.030763596410914 29.030763596410914 29.030763596410914 29.0 29.0 29.030763596410914 29.0 29.030763596410914 29.0 29.030763596410914 29.030763596410914 29.0 29.030763596410914 29.030763596410914 29.030763596410914 29.030763596410914 29.0 29.030763596410914 29.030763596410914 29.0 29.0 29.030763596410914 29.030763596410914 29.030763596410914 29.030763596410914 29.030763596410914 29.030763596410914 29.030763596410914 29.030763596410914 29.030763596410914 29.030763596410914 29.030763596410914 29.030763596410914 29.0 29.030763596410914 29.030763596410914 29.030763596410914 29.030763596410914 29.030763596410914 29.030763596410914 29.030763596410914 29.030763596410914 29.030763596410914 29.030763596410914 29.0 29.030763596410914 29.030763596410914 29.030763596410914 29.030763596410914 29.030763596410914 29.0 29.0 29.030763596410914 29.030763596410914 29.030763596410914 29.030763596410914 29.030763596410914 29.0 29.0 29.030763596410914 29.030763596410914 29.030763596410914 29.030763596410914 29.030763596410914 29.0 29.030763596410914 29.030763596410914 29.030763596410914 29.0 29.030763596410914 29.0 29.030763596410914 29.0 29.030763596410914 29.030763596410914 29.030763596410914 29.030763596410914 29.030763596410914 29.030763596410914 29.030763596410914 29.030763596410914 29.030763596410914 29.0 29.0 29.030763596410914 29.030763596410914 29.030763596410914 29.030763596410914 29.030763596410914 29.030763596410914 29.030763596410914 29.0 29.030763596410914 29.030763596410914 29.030763596410914 29.030763596410914 29.030763596410914 29.030763596410914 29.030763596410914 29.030763596410914 29.0 29.030763596410914 29.030763596410914 29.0 29.030763596410914 29.0 29.030763596410914 29.030763596410914 29.030763596410914 29.0 29.030763596410914 29.030763596410914 29.0 29.030763596410914 29.030763596410914 29.0 29.030763596410914 29.030763596410914 29.030763596410914 29.030763596410914 29.030763596410914 29.030763596410914 29.030763596410914 29.030763596410914 29.030763596410914 29.030763596410914 29.030763596410914 29.030763596410914 29.030763596410914 29.030763596410914 29.030763596410914 29.030763596410914 29.030763596410914 29.0 29.030763596410914 29.030763596410914 29.030763596410914 29.0 29.0 29.030763596410914 29.030763596410914 29.030763596410914 29.030763596410914 29.0 29.030763596410914 29.030763596410914 29.0 29.030763596410914 29.030763596410914 29.030763596410914 29.030763596410914 29.030763596410914 29.030763596410914 29.030763596410914 29.030763596410914 29.030763596410914 29.030763596410914 29.030763596410914 29.030763596410914 29.030763596410914 29.0 29.030763596410914 29.030763596410914 29.0 29.030763596410914 29.030763596410914 29.030763596410914 29.030763596410914 29.0 29.030763596410914 29.0 29.0 29.030763596410914 29.030763596410914 29.030763596410914 29.030763596410914 29.030763596410914 29.030763596410914 29.0 29.030763596410914 29.030763596410914 29.030763596410914 29.0 29.030763596410914 29.030763596410914 29.0 29.030763596410914 29.030763596410914 29.030763596410914 29.0 29.030763596410914 29.0 29.030763596410914 29.030763596410914 29.030763596410914 29.030763596410914 29.0 29.0 29.030763596410914 29.030763596410914 29.030763596410914 29.030763596410914 29.030763596410914 29.0 29.030763596410914 29.030763596410914 29.030763596410914 29.030763596410914 29.030763596410914 29.030763596410914 29.030763596410914 29.030763596410914 29.030763596410914 29.030763596410914 29.030763596410914 29.030763596410914 29.030763596410914 29.030763596410914 29.030763596410914 29.0 29.030763596410914 29.030763596410914 29.030763596410914 29.030763596410914 29.030763596410914 29.030763596410914 29.030763596410914 29.030763596410914 29.030763596410914 29.030763596410914 29.030763596410914 29.030763596410914 29.030763596410914 29.030763596410914 29.030763596410914 29.0 29.030763596410914 29.030763596410914 29.0 29.030763596410914 29.0 29.030763596410914 29.0 29.030763596410914 29.0 29.030763596410914 29.030763596410914 29.0 29.030763596410914 29.030763596410914 29.030763596410914 29.0 29.030763596410914 29.030763596410914 29.0 29.030763596410914 29.030763596410914 29.030763596410914 29.030763596410914 29.030763596410914 29.030763596410914 29.030763596410914 29.030763596410914 29.0 29.030763596410914 29.030763596410914 29.030763596410914 29.0 29.0 29.0 29.030763596410914 29.030763596410914 29.030763596410914 29.030763596410914 29.030763596410914 29.0 29.030763596410914 29.030763596410914 29.030763596410914 29.030763596410914 29.030763596410914 29.030763596410914 29.030763596410914 29.030763596410914 29.030763596410914 29.030763596410914 29.0 29.030763596410914 29.0 29.030763596410914 29.030763596410914 29.030763596410914 29.030763596410914 29.0 29.030763596410914 29.030763596410914 29.030763596410914 29.030763596410914 29.0 29.030763596410914 29.0 29.0 29.030763596410914 29.030763596410914 29.030763596410914 29.0 29.030763596410914 29.0 29.030763596410914 29.030763596410914 29.030763596410914 29.030763596410914 29.030763596410914 29.030763596410914 29.0 29.0 29.0 29.030763596410914 29.030763596410914 29.030763596410914 29.030763596410914 29.030763596410914 29.030763596410914 29.0 29.030763596410914 29.030763596410914 29.030763596410914 29.030763596410914 29.030763596410914 29.030763596410914 29.030763596410914 29.030763596410914 29.030763596410914 29.030763596410914 29.0 29.030763596410914 29.0 29.030763596410914 29.030763596410914 29.030763596410914 29.030763596410914 29.0 29.030763596410914 29.030763596410914 29.030763596410914 29.0 29.030763596410914 29.030763596410914 29.030763596410914 29.030763596410914 29.0 29.0 29.030763596410914 29.030763596410914 29.030763596410914 29.030763596410914 29.0 29.030763596410914 29.030763596410914 29.030763596410914 29.030763596410914 29.0 29.030763596410914 29.030763596410914 29.030763596410914 29.0 29.0 29.030763596410914 29.030763596410914 29.030763596410914 29.030763596410914 29.030763596410914 29.0 29.030763596410914 29.030763596410914 29.030763596410914 29.030763596410914 29.0 29.030763596410914 29.030763596410914 29.030763596410914 29.030763596410914 29.030763596410914 29.0 29.030763596410914 29.030763596410914 29.030763596410914 29.030763596410914 29.030763596410914 29.030763596410914 29.030763596410914 29.030763596410914 29.030763596410914 29.030763596410914 29.0 29.030763596410914 29.030763596410914 29.0 29.030763596410914 29.0 29.030763596410914 29.030763596410914 29.0 29.030763596410914 29.030763596410914 29.030763596410914 29.030763596410914 29.030763596410914 29.0 29.030763596410914 29.030763596410914 29.030763596410914 29.030763596410914 29.030763596410914 29.030763596410914 29.030763596410914 29.030763596410914 29.030763596410914 29.030763596410914 29.0 29.030763596410914 29.030763596410914 29.030763596410914 29.0 29.030763596410914 29.030763596410914 29.030763596410914 29.030763596410914 29.030763596410914 29.030763596410914 29.030763596410914 29.030763596410914 29.030763596410914 29.0 29.030763596410914 29.030763596410914 29.0 29.0 29.0 29.030763596410914 29.0 29.030763596410914 29.0 29.030763596410914 29.030763596410914 29.030763596410914 29.030763596410914 29.030763596410914 29.030763596410914 29.0 29.030763596410914 29.030763596410914 29.030763596410914 29.030763596410914 29.030763596410914 29.030763596410914 29.030763596410914 29.0 29.030763596410914 29.030763596410914 29.030763596410914 29.030763596410914 29.030763596410914 29.030763596410914 29.030763596410914 29.030763596410914 29.030763596410914 29.030763596410914 29.030763596410914 29.030763596410914 29.061527192821828 29.061527192821828 29.123054385643655 29.15381798205457 29.24610877128731 29.30763596410914 29.369163156930966 29.39992675334188 29.430690349752794 29.461453946163708 29.49221754257462 29.553744735396446 29.58450833180736 29.646035524629188 29.6767991210401 29.707562717451015 29.73832631386193 29.83061710309467 29.922907892327412 30.13825306720381 30.261307452847465 30.38436183849112 30.415125434902034 30.507416224134772 30.599707013367514 30.691997802600255 30.784288591832997 30.845815784654825 30.938106573887566 30.999633766709394 31.12268815235305 31.184215345174877 31.307269730818533 31.430324116462188 31.614905694927668 31.830250869804065 31.922541659036806 32.07635964109137 32.23017762314594 32.38399560520051 32.507049990844166 32.660867972898735 32.84544955136422 32.99926753341879 33.15308551547336 33.30690349752793 33.460721479582496 33.67606665445889 33.860648232924376 34.075993407800766 34.29133858267716 34.56821095037539 34.87584691448453 35.183482878593665 35.55264603552463 35.952572788866505 36.352499542208385 36.752426295550265 37.18311664530306 37.67533418787768 38.13678813404138 38.629005676616 39.15198681560154 39.644204358176154 40.16718549716169 40.72093023255814 41.243911371543675 41.73612891411829 42.32063724592565 42.905145577733016 43.42812671671855 44.01263504852591 44.59714338033327 45.24317890496246 45.76616004394799 46.38143197216627 46.996703900384546 47.550448635780995 48.104193371177445 48.65793810657389 49.21168284197033 49.70390038454495 50.380699505585056 50.81138985533785 51.3651345907343 51.85735213330892 52.19575169382897 52.68796923640359 53.303241164621866 53.48782274308734 53.85698590001831 54.226149056949275 54.44149423182567 54.81065738875664 55.05676616004395 55.45669291338582 55.76432887749496 55.948910455960444 56.225782823658676 56.41036440212415 56.59494598058963 56.964109137520595 57.117927119575164 57.36403589086248 57.6409082585607 57.79472624061527 58.163889397546235 58.34847097601172 58.533052554477194 58.7483977293536 58.90221571140816 59.14832448269547 59.48672404321553 59.67130562168101 59.886650796557404 60.040468778611974 60.19428676066654 60.440395531953854 60.594213514008416 60.84032228529573 60.994140267350296 61.086431056583045 61.240249038637614 61.30177623145944 61.39406702069218 61.45559421351401 61.51712140633583 61.609412195568574 61.64017579197949 61.73246658121223 61.82475737044497 61.91704815967771 62.009338948910454 62.07086614173228 62.16315693096502 62.31697491301959 62.44002929866325 62.59384728071782 62.80919245559421 62.901483244826956 62.99377403405969 63.14759201611426 63.27064640175792 63.39370078740157 63.516755173045226 63.63980955868888 63.73210034792162 63.76286394433254 63.88591832997619 63.978209119208934 64.00897271561985 64.1012635048526 64.19355429408533 64.25508148690716 64.34737227613991 64.40889946896172 64.50119025819447 64.53195385460538 64.5627174510163 64.5627174510163 64.59348104742722 64.59348104742722 64.59348104742722 64.59348104742722 64.59348104742722 64.59348104742722 64.59348104742722 64.59348104742722 64.59348104742722 64.59348104742722 64.59348104742722 64.59348104742722 64.5627174510163 64.5627174510163 64.5627174510163 64.5627174510163 64.5627174510163 64.5627174510163 64.5627174510163 64.5627174510163 64.5627174510163 64.5627174510163 64.5627174510163 64.5627174510163 64.5627174510163 64.5627174510163 64.5627174510163 64.5627174510163 64.59348104742722 64.5627174510163 64.5627174510163 64.5627174510163 64.5627174510163 64.59348104742722 64.5627174510163 64.5627174510163 64.5627174510163 64.5627174510163 64.5627174510163 64.59348104742722 64.5627174510163 64.5627174510163 64.5627174510163 64.5627174510163 64.5627174510163 64.5627174510163 64.5627174510163 64.5627174510163 64.5627174510163 64.5627174510163 64.5627174510163 64.5627174510163 64.5627174510163 64.5627174510163 64.5627174510163 64.5627174510163 64.5627174510163 64.5627174510163 64.5627174510163 64.53195385460538 64.5627174510163 64.53195385460538 64.5627174510163 64.53195385460538 64.53195385460538 64.53195385460538 64.53195385460538 64.53195385460538 64.50119025819447 64.50119025819447 64.50119025819447 64.47042666178355 64.43966306537264 64.43966306537264 64.43966306537264 64.43966306537264 64.37813587255081 64.37813587255081 64.34737227613991 64.28584508331807 64.25508148690716 64.19355429408533 64.1320271012635 64.03973631203075 63.978209119208934 63.916681926387106 63.824391137154365 63.76286394433254 63.70133675151071 63.63980955868888 63.60904596227797 63.578282365867054 63.54751876945614 63.54751876945614 63.54751876945614 63.578282365867054 63.578282365867054 63.578282365867054 63.60904596227797 63.60904596227797 63.63980955868888 63.63980955868888 63.670573155099795 63.670573155099795 63.70133675151071 63.70133675151071 63.70133675151071 63.70133675151071 63.70133675151071 63.70133675151071 63.70133675151071 63.70133675151071 63.70133675151071 63.70133675151071 63.70133675151071 63.70133675151071 63.70133675151071 63.70133675151071 63.70133675151071 63.70133675151071 63.70133675151071 63.70133675151071 63.70133675151071 63.70133675151071 63.70133675151071 63.70133675151071 63.70133675151071 63.70133675151071 63.70133675151071 63.70133675151071 63.70133675151071 63.70133675151071 63.70133675151071 63.70133675151071 63.70133675151071 63.70133675151071 63.70133675151071 63.70133675151071 63.670573155099795 63.70133675151071 63.70133675151071 63.70133675151071 63.70133675151071 63.70133675151071 63.70133675151071 63.70133675151071 63.70133675151071 63.70133675151071 63.70133675151071 63.70133675151071 63.70133675151071 63.70133675151071 63.70133675151071 63.70133675151071 63.70133675151071 63.70133675151071 63.70133675151071 63.73210034792162 63.73210034792162 63.70133675151071 63.73210034792162 63.73210034792162 63.73210034792162 63.73210034792162 63.73210034792162 63.70133675151071 63.73210034792162 63.70133675151071 63.73210034792162 63.70133675151071 63.70133675151071 63.70133675151071 63.70133675151071 63.70133675151071 63.70133675151071 63.670573155099795 63.670573155099795 63.670573155099795 63.670573155099795 63.670573155099795 63.63980955868888 63.60904596227797 63.60904596227797 63.60904596227797 63.60904596227797 63.60904596227797 63.578282365867054 63.54751876945614 63.48599157663431 63.48599157663431 63.4552279802234 63.4552279802234 63.4552279802234 63.39370078740157 63.39370078740157 63.36293719099066 63.36293719099066 63.36293719099066 63.36293719099066 63.36293719099066 63.39370078740157 63.39370078740157 63.39370078740157 63.424464383812484 63.424464383812484 63.424464383812484 63.4552279802234 63.4552279802234 63.4552279802234 63.48599157663431 63.48599157663431 63.48599157663431 63.48599157663431 63.48599157663431 63.48599157663431 63.48599157663431 63.48599157663431 63.48599157663431 63.48599157663431 63.48599157663431 63.48599157663431 63.48599157663431 63.48599157663431 63.48599157663431 63.48599157663431 63.48599157663431 63.48599157663431 63.48599157663431 63.48599157663431 63.48599157663431 63.48599157663431 63.48599157663431 63.48599157663431 63.48599157663431 63.48599157663431 63.48599157663431 63.48599157663431 63.48599157663431 63.48599157663431 63.48599157663431 63.48599157663431 63.48599157663431 63.48599157663431 63.48599157663431 63.48599157663431 63.48599157663431 63.48599157663431 63.48599157663431 63.48599157663431 63.48599157663431 63.48599157663431 63.48599157663431 63.4552279802234 63.4552279802234 63.4552279802234 63.4552279802234 63.4552279802234 63.4552279802234 63.4552279802234 63.4552279802234 63.4552279802234 63.4552279802234 63.4552279802234 63.424464383812484 63.4552279802234 63.4552279802234 63.4552279802234 63.4552279802234 63.4552279802234 63.4552279802234 63.4552279802234 63.424464383812484 63.39370078740157 63.39370078740157 63.36293719099066 63.30140999816883 63.239882805347 63.14759201611426 63.08606482329243 63.024537630470604 62.93224684123786 62.870719648416035 62.77842885918329 62.59384728071782 62.47079289507416 62.31697491301959 62.101629738143195 61.947811756088626 61.701702984801315 61.48635780992492 61.17872184581578 60.87108588170665 60.594213514008416 60.28657754989928 59.94817798937923 59.67130562168101 59.14832448269547 58.87145211499725 58.62534334370994 58.25618018677898 57.97930781908075 57.61014466214979 57.02563633034242 56.656473173411456 56.28731001648049 56.041201245193186 55.61051089544039 55.179820545687605 54.872184581578466 54.44149423182567 53.980040285661964 53.67240432155283 53.24171397180004 52.96484160410181 52.53415125434902 52.103460904596226 51.76506134407617 51.30360739791247 50.81138985533785 50.442226698406884 49.91924555942135 49.334737227613985 48.99633766709394 48.50412012451932 48.011902581944696 47.550448635780995 47.24281267167186 46.81212232191906 46.38143197216627 46.104559604468044 45.735396447537084 45.3354696941952 45.089360922907886 44.75096136238784 44.535616187511444 44.16645303058048 43.828053470060425 43.581944698773114 43.24354513825307 42.84361838491119 42.505218824391136 42.16681926387108 41.705365317707376 41.27467496795458 40.87474821461271 40.690166636147225 40.25947628639443 39.890313129463465 39.5211499725325 39.15198681560154 38.93664164072514 38.59824208020509 38.29060611609595 38.04449734480864 37.70609778428859 37.33693462735763 37.09082585607032 36.752426295550265 36.53708112067387 36.1679179637429 35.67570042116829 35.429591649880976 35.183482878593665 34.87584691448453 34.629738143197216 34.41439296832082 34.26057498626625 34.10675700421168 33.95293902215711 33.860648232924376 33.7068302508698 33.614539461637065 33.522248672404324 33.30690349752793 33.18384911188427 32.99926753341879 32.72239516572056 32.568577183665994 32.3532320087896 32.19941402673503 32.07635964109137 31.891778062625892 31.768723676982237 31.64566929133858 31.55337850210584 31.491851309284012 31.430324116462188 31.36879692364036 31.307269730818533 31.153451748763963 31.06116095953122 30.81505218824391 30.66123420618934 30.5689434169566 30.445889031312948 30.415125434902034 30.29207104925838 30.169016663614723 30.045962277971068 29.861380699505585 29.6767991210401 29.58450833180736 29.553744735396446 29.522981138985532 29.461453946163708 29.430690349752794 29.430690349752794 29.430690349752794 29.39992675334188 29.369163156930966 29.338399560520052 29.338399560520052 29.338399560520052 29.338399560520052 29.30763596410914 29.30763596410914 29.30763596410914 29.276872367698225 29.276872367698225 29.276872367698225 29.276872367698225 29.24610877128731 29.24610877128731 29.24610877128731 29.215345174876397 29.215345174876397 29.184581578465483 29.184581578465483 29.184581578465483 29.184581578465483 29.15381798205457 29.15381798205457 29.15381798205457 29.15381798205457 29.15381798205457 29.123054385643655 29.123054385643655 29.123054385643655 29.123054385643655 29.123054385643655 29.123054385643655 29.123054385643655 29.123054385643655 29.123054385643655 29.123054385643655 29.123054385643655 29.123054385643655 29.123054385643655 29.123054385643655 29.123054385643655 29.123054385643655 29.123054385643655 29.123054385643655 29.123054385643655 29.123054385643655 29.123054385643655 29.123054385643655 29.123054385643655 29.123054385643655 29.123054385643655 29.123054385643655 29.123054385643655 29.123054385643655 29.123054385643655 29.123054385643655 29.123054385643655 29.123054385643655 29.123054385643655 29.123054385643655 29.123054385643655 29.123054385643655 29.123054385643655 29.123054385643655 29.123054385643655 29.123054385643655 29.09229078923274 29.09229078923274 29.09229078923274 29.09229078923274 29.09229078923274 29.09229078923274 29.09229078923274 29.09229078923274 29.09229078923274 29.09229078923274 29.09229078923274 29.061527192821828 29.09229078923274 29.061527192821828 29.09229078923274 29.061527192821828 29.061527192821828 29.061527192821828 29.061527192821828 29.061527192821828 29.061527192821828 29.061527192821828 29.061527192821828 29.061527192821828 29.061527192821828 29.061527192821828 29.061527192821828 29.061527192821828 29.061527192821828 29.061527192821828 29.061527192821828 29.061527192821828 29.061527192821828 29.061527192821828 29.061527192821828 29.061527192821828 29.061527192821828 29.061527192821828 29.061527192821828 29.061527192821828 29.061527192821828 29.061527192821828 29.061527192821828 29.061527192821828 29.09229078923274 29.09229078923274 29.061527192821828 29.061527192821828 29.061527192821828 29.061527192821828 29.09229078923274 29.09229078923274 29.061527192821828 29.061527192821828 29.061527192821828 29.09229078923274 29.09229078923274 29.09229078923274 29.09229078923274 29.061527192821828 29.09229078923274 29.061527192821828 29.061527192821828 29.09229078923274 29.061527192821828 29.061527192821828 29.061527192821828 29.061527192821828 29.061527192821828 29.09229078923274 29.061527192821828 29.09229078923274 29.09229078923274 29.061527192821828 29.061527192821828 29.061527192821828 29.09229078923274 29.061527192821828 29.09229078923274 29.061527192821828 29.061527192821828 29.061527192821828 29.09229078923274 29.09229078923274 29.061527192821828 29.061527192821828 29.061527192821828 29.09229078923274 29.09229078923274 29.061527192821828 29.061527192821828 29.061527192821828 29.09229078923274 29.061527192821828 29.09229078923274 29.061527192821828 29.09229078923274 29.09229078923274 29.061527192821828 29.061527192821828 29.09229078923274 29.09229078923274 29.061527192821828 29.09229078923274 29.061527192821828 29.09229078923274 29.061527192821828 29.09229078923274 29.061527192821828 29.09229078923274 29.061527192821828 29.061527192821828 29.061527192821828 29.09229078923274 29.061527192821828 29.061527192821828 29.09229078923274 29.061527192821828 29.061527192821828 29.061527192821828 29.061527192821828 29.09229078923274 29.09229078923274 29.061527192821828 29.061527192821828 29.061527192821828 29.061527192821828 29.061527192821828 29.061527192821828 29.061527192821828 29.061527192821828 29.061527192821828 29.061527192821828 29.061527192821828 29.061527192821828 29.061527192821828 29.061527192821828 29.09229078923274 29.061527192821828 29.061527192821828 29.061527192821828 29.061527192821828 29.061527192821828 29.061527192821828 29.061527192821828 29.09229078923274 29.09229078923274 29.09229078923274 29.09229078923274 29.09229078923274 29.123054385643655 29.123054385643655 29.123054385643655 29.15381798205457 29.15381798205457 29.184581578465483 29.215345174876397 29.215345174876397 29.24610877128731 29.276872367698225 29.276872367698225 29.338399560520052 29.369163156930966 29.39992675334188 29.430690349752794 29.522981138985532 29.615271928218274 29.769089910272843 29.922907892327412 30.015198681560154 30.107489470792896 30.23054385643655 30.322834645669293 30.415125434902034 30.599707013367514 30.691997802600255 30.87657938106574 31.06116095953122 31.21497894158579 31.430324116462188 31.55337850210584 31.79948727339315 31.984068851858634 32.1378868339132 32.414759201611425 32.814685954953305 33.0300311298297 33.42995788317158 33.58377586522615 33.79912104010255 34.10675700421168 34.35286577549899 34.90661051089544 35.337300860648234 35.706464017579194 36.198681560153815 36.62937190990661 37.09082585607032 37.61380699505585 38.013733748397726 38.567478483794176 39.15198681560154 39.55191356894342 40.35176707562717 40.75169382896905 41.15162058231093 41.705365317707376 42.105292071049256 42.659036806445705 43.39736312030763 43.79728987364952 44.32027101263505 44.68943416956601 45.05859732649698 45.61234206189343 45.98150521882439 46.71983153268632 47.08899468961728 47.67350302142465 48.19648416041018 48.59641091375206 49.05786485991577 49.580845998901296 49.91924555942135 50.442226698406884 50.78062625892693 51.30360739791247 51.76506134407617 52.257278886650795 52.59567844717085 52.99560520051273 53.33400476103277 53.79545870719648 54.19538546053836 54.59531221388024 55.149056949276684 55.425929316974916 55.70280168467313 56.01043764878227 56.31807361289141 56.62570957700055 56.81029115546603 57.08716352316425 57.302508698040654 57.517853872917044 57.73319904779344 58.010071415491666 58.163889397546235 58.37923457242263 58.533052554477194 58.7483977293536 58.93297930781908 59.086797289873644 59.30214246475004 59.39443325398278 59.51748763962644 59.70206921809192 59.82512360373558 59.978941585790146 60.1019959714338 60.25581395348837 60.47115912836477 60.655740706830244 60.80955868888482 60.96337667093938 61.14795824940487 61.51712140633583 61.8862845632668 62.101629738143195 62.37850210584142 62.65537447353964 62.870719648416035 63.055301226881525 63.17835561252517 63.39370078740157 63.670573155099795 63.76286394433254 63.916681926387106 63.94744552279802 64.03973631203075 64.1320271012635 64.16279069767441 64.19355429408533 64.19355429408533 64.19355429408533 64.19355429408533 64.19355429408533 64.16279069767441 64.19355429408533 64.16279069767441 64.16279069767441 64.1012635048526 64.07049990844168 64.00897271561985 63.978209119208934 63.916681926387106 63.916681926387106 63.85515473356528 63.824391137154365 63.73210034792162 63.670573155099795 63.60904596227797 63.60904596227797 63.54751876945614 63.516755173045226 63.4552279802234 63.424464383812484 63.39370078740157 63.39370078740157 63.36293719099066 63.33217359457974 63.30140999816883 63.239882805347 63.20911920893609 63.17835561252517 63.14759201611426 63.11682841970335 63.08606482329243 63.055301226881525 63.055301226881525 63.024537630470604 63.024537630470604 62.99377403405969 62.99377403405969 62.99377403405969 62.99377403405969 62.99377403405969 62.99377403405969 62.99377403405969 62.99377403405969 62.96301043764878 62.99377403405969 62.96301043764878 62.99377403405969 62.99377403405969 62.99377403405969 62.99377403405969 62.99377403405969 62.99377403405969 62.99377403405969 62.96301043764878 62.96301043764878 62.96301043764878 62.96301043764878 62.93224684123786 62.93224684123786 62.93224684123786 62.93224684123786 62.93224684123786 62.93224684123786 62.93224684123786 62.93224684123786 62.93224684123786 62.93224684123786 62.93224684123786 62.901483244826956 62.901483244826956 62.901483244826956 62.93224684123786 62.93224684123786 62.93224684123786 62.93224684123786 62.93224684123786 62.93224684123786 62.93224684123786 62.93224684123786 62.93224684123786 62.93224684123786 62.93224684123786 62.93224684123786 62.93224684123786 62.96301043764878 62.93224684123786 62.93224684123786 62.93224684123786 62.93224684123786 62.93224684123786 62.93224684123786 62.93224684123786 62.93224684123786 62.93224684123786 62.93224684123786 62.93224684123786 62.901483244826956 62.93224684123786 62.901483244826956 62.93224684123786 62.93224684123786 62.93224684123786 62.93224684123786 62.93224684123786 62.93224684123786 62.93224684123786 62.93224684123786 62.93224684123786 62.93224684123786 62.93224684123786 62.901483244826956 62.93224684123786 62.93224684123786 62.93224684123786 62.93224684123786 62.93224684123786 62.93224684123786 62.93224684123786 62.93224684123786 62.93224684123786 62.93224684123786 62.93224684123786 62.93224684123786 62.93224684123786 62.93224684123786 62.93224684123786 62.870719648416035 62.870719648416035 62.83995605200513 62.80919245559421 62.80919245559421 62.77842885918329 62.74766526277239 62.716901666361466 62.74766526277239 62.716901666361466 62.716901666361466 62.716901666361466 62.716901666361466 62.716901666361466 62.716901666361466 62.716901666361466 62.716901666361466 62.716901666361466 62.716901666361466 62.68613806995056 62.716901666361466 62.716901666361466 62.716901666361466 62.716901666361466 62.716901666361466 62.716901666361466 62.716901666361466 62.74766526277239 62.716901666361466 62.716901666361466 62.716901666361466 62.716901666361466 62.68613806995056 62.68613806995056 62.68613806995056 62.65537447353964 62.62461087712873 62.62461087712873 62.59384728071782 62.5630836843069 62.53232008789599 62.53232008789599 62.50155649148507 62.47079289507416 62.47079289507416 62.44002929866325 62.409265702252334 62.409265702252334 62.409265702252334 62.37850210584142 62.37850210584142 62.37850210584142 62.37850210584142 62.37850210584142 62.409265702252334 62.409265702252334 62.37850210584142 62.409265702252334 62.44002929866325 62.44002929866325 62.44002929866325 62.44002929866325 62.44002929866325 62.409265702252334 62.409265702252334 62.44002929866325 62.44002929866325 62.409265702252334 62.409265702252334 62.44002929866325 62.44002929866325 62.44002929866325 62.44002929866325 62.44002929866325 62.44002929866325 62.44002929866325 62.44002929866325 62.44002929866325 62.44002929866325 62.44002929866325 62.44002929866325 62.44002929866325 62.44002929866325 62.44002929866325 62.409265702252334 62.44002929866325 62.44002929866325 62.44002929866325 62.44002929866325 62.44002929866325 62.44002929866325 62.409265702252334 62.44002929866325 62.409265702252334 62.409265702252334 62.409265702252334 62.409265702252334 62.409265702252334 62.44002929866325 62.44002929866325 62.409265702252334 62.44002929866325 62.44002929866325 62.409265702252334 62.44002929866325 62.44002929866325 62.44002929866325 62.44002929866325 62.44002929866325 62.44002929866325 62.44002929866325 62.44002929866325 62.44002929866325 62.44002929866325 62.44002929866325 62.409265702252334 62.44002929866325 62.409265702252334 62.409265702252334 62.409265702252334 62.409265702252334 62.409265702252334 62.44002929866325 62.409265702252334 62.409265702252334 62.409265702252334 62.409265702252334 62.409265702252334 62.409265702252334 62.37850210584142 62.409265702252334 62.409265702252334 62.37850210584142 62.409265702252334 62.409265702252334 62.409265702252334 62.409265702252334 62.409265702252334 62.409265702252334 62.409265702252334 62.409265702252334 62.44002929866325 62.44002929866325 62.409265702252334 62.409265702252334 62.409265702252334 62.409265702252334 62.409265702252334 62.409265702252334 62.409265702252334 62.409265702252334 62.409265702252334 62.409265702252334 62.409265702252334 62.409265702252334 62.409265702252334 62.409265702252334 62.37850210584142 62.409265702252334 62.409265702252334 62.409265702252334 62.37850210584142 62.409265702252334 62.409265702252334 62.409265702252334 62.409265702252334 62.37850210584142 62.409265702252334 62.409265702252334 62.37850210584142 62.347738509430506 62.31697491301959 62.28621131660868 62.255447720197765 62.19392052737594 62.13239333455411 62.07086614173228 61.97857535249954 61.8862845632668 61.73246658121223 61.48635780992492 61.33253982787035 61.17872184581578 61.02490386376122 60.87108588170665 60.686504303241165 60.50192272477568 60.00970518220106 59.70206921809192 59.45596044680461 59.17908807910639 58.90221571140816 58.533052554477194 58.1023622047244 57.73319904779344 57.36403589086248 56.93334554110969 56.62570957700055 56.01043764878227 55.73356528108405 55.425929316974916 55.05676616004395 54.77989379234572 54.34920344259293 53.76469511078557 53.364768357443694 53.026368796923634 52.718732832814496 52.44186046511628 52.0419337117744 51.76506134407617 51.211316608679724 50.78062625892693 50.442226698406884 49.95000915583226 49.642373191723124 49.1501556491485 48.6887017029848 48.28877494964292 47.91961179271196 47.39663065372642 47.1197582860282 46.658304339864486 46.2276139901117 45.91997802600257 45.48928767624977 45.21241530855154 44.81248855520967 44.4433253982787 44.16645303058048 43.612708295184035 43.39736312030763 43.12049075260941 42.72056399926753 42.32063724592565 42.013001281816514 41.55154733565281 41.27467496795458 40.90551181102362 40.65940303973631 40.1979490935726 39.79802234023072 39.428859183299764 39.028932429957884 38.567478483794176 38.25984251968504 37.798388573521336 37.398461820179456 36.93700787401575 36.444790331441126 36.07562717451016 35.491118842702804 34.99890130012818 34.72202893242996 34.383629371909905 34.137520600622594 34.01446621497894 33.829884636513455 33.58377586522615 33.39919428676067 33.15308551547336 32.99926753341879 32.78392235854239 32.660867972898735 32.507049990844166 32.3532320087896 32.29170481596777 32.19941402673503 32.107123237502286 32.07635964109137 32.014832448269544 31.984068851858634 31.95330525544772 31.922541659036806 31.86101446621498 31.830250869804065 31.768723676982237 31.70719648416041 31.64566929133858 31.614905694927668 31.55337850210584 31.491851309284012 31.399560520051274 31.338033327229446 31.307269730818533 31.245742537996705 31.184215345174877 31.153451748763963 31.091924555942136 31.030397363120308 30.96887017029848 30.907342977476652 30.845815784654825 30.753524995422083 30.66123420618934 30.630470609778428 30.599707013367514 30.5689434169566 30.5689434169566 30.538179820545686 30.538179820545686 30.507416224134772 30.47665262772386 30.47665262772386 30.47665262772386 30.445889031312948 30.445889031312948 30.415125434902034 30.415125434902034 30.38436183849112 30.353598242080206 30.322834645669293 30.29207104925838 30.23054385643655 30.23054385643655 30.199780260025637 30.169016663614723 30.13825306720381 30.107489470792896 30.07672587438198 30.045962277971068 30.045962277971068 30.015198681560154 29.98443508514924 29.953671488738326 29.922907892327412 29.8921442959165 29.8921442959165 29.861380699505585 29.861380699505585 29.861380699505585 29.861380699505585 29.861380699505585 29.861380699505585 29.861380699505585 29.83061710309467 29.83061710309467 29.799853506683757 29.799853506683757 29.799853506683757 29.799853506683757 29.799853506683757 29.799853506683757 29.799853506683757 29.769089910272843 29.769089910272843 29.769089910272843 29.73832631386193 29.73832631386193 29.73832631386193 29.73832631386193 29.73832631386193 29.73832631386193 29.73832631386193 29.73832631386193 29.73832631386193 29.73832631386193 29.73832631386193 29.73832631386193 29.707562717451015 29.707562717451015 29.73832631386193 29.73832631386193 29.707562717451015 29.707562717451015 29.707562717451015 29.707562717451015 29.73832631386193 29.707562717451015 29.707562717451015 29.707562717451015 29.707562717451015 29.707562717451015 29.707562717451015 29.707562717451015 29.707562717451015 29.707562717451015 29.707562717451015 29.707562717451015 29.6767991210401 29.707562717451015 29.6767991210401 29.6767991210401 29.6767991210401 29.6767991210401 29.707562717451015 29.6767991210401 29.6767991210401 29.6767991210401 29.6767991210401 29.6767991210401 29.6767991210401 29.6767991210401 29.6767991210401 29.6767991210401 29.6767991210401 29.6767991210401 29.6767991210401 29.6767991210401 29.6767991210401 29.6767991210401 29.6767991210401 29.6767991210401 29.646035524629188 29.6767991210401 29.646035524629188 29.6767991210401 29.6767991210401 29.646035524629188 29.646035524629188 29.646035524629188 29.646035524629188 29.646035524629188 29.646035524629188 29.646035524629188 29.646035524629188 29.646035524629188 29.646035524629188 29.646035524629188 29.646035524629188 29.646035524629188 29.646035524629188 29.646035524629188 29.646035524629188 29.646035524629188 29.646035524629188 29.646035524629188 29.646035524629188 29.646035524629188 29.646035524629188 29.646035524629188 29.646035524629188 29.646035524629188 29.646035524629188 29.615271928218274 29.646035524629188 29.646035524629188 29.646035524629188 29.646035524629188 29.615271928218274 29.646035524629188 29.646035524629188 29.646035524629188 29.646035524629188 29.615271928218274 29.646035524629188 29.646035524629188 29.646035524629188 29.646035524629188 29.646035524629188 29.646035524629188 29.646035524629188 29.646035524629188 29.646035524629188 29.646035524629188 29.646035524629188 29.646035524629188 29.646035524629188 29.646035524629188 29.646035524629188 29.646035524629188 29.615271928218274 29.646035524629188 29.615271928218274 29.646035524629188 29.646035524629188 29.646035524629188 29.646035524629188 29.646035524629188 29.646035524629188 29.646035524629188 29.646035524629188 29.646035524629188 29.615271928218274 29.646035524629188 29.646035524629188 29.646035524629188 29.615271928218274 29.646035524629188 29.646035524629188 29.615271928218274 29.646035524629188 29.646035524629188 29.646035524629188 29.646035524629188 29.646035524629188 29.646035524629188 29.646035524629188 29.646035524629188 29.646035524629188 29.646035524629188 29.646035524629188 29.646035524629188 29.646035524629188 29.646035524629188 29.646035524629188 29.646035524629188 29.646035524629188 29.646035524629188 29.646035524629188 29.646035524629188 29.6767991210401 29.6767991210401 29.6767991210401 29.6767991210401 29.6767991210401 29.707562717451015 29.707562717451015 29.707562717451015 29.73832631386193 29.73832631386193 29.769089910272843 29.799853506683757 29.799853506683757 29.861380699505585 29.861380699505585 29.922907892327412 29.98443508514924 30.015198681560154 30.107489470792896 30.199780260025637 30.29207104925838 30.415125434902034 30.538179820545686 30.599707013367514 30.691997802600255 30.753524995422083 30.81505218824391 30.907342977476652 31.12268815235305 31.307269730818533 31.430324116462188 31.614905694927668 31.86101446621498 32.04559604468046 32.1378868339132 32.260941219556855 32.414759201611425 32.568577183665994 32.69163156930965 32.814685954953305 33.060794726240616 33.214612708295185 33.368430690349754 33.522248672404324 33.7068302508698 33.89141182933528 34.04522981138985 34.32210217908808 34.629738143197216 34.96813770371727 35.27577366782641 35.64493682475737 35.9218091924556 36.47555392785204 36.752426295550265 37.060062259659404 37.459989013001284 37.798388573521336 38.413660501739606 38.75206006225966 39.24427760483428 39.79802234023072 40.16718549716169 40.72093023255814 41.27467496795458 41.705365317707376 42.259110053103825 42.659036806445705 43.24354513825307 43.85881706647134 44.227980223402305 44.84325215162058 45.36623329060612 45.85845083318073 46.31990477934444 46.658304339864486 47.42739425013734 47.91961179271196 48.165720563999265 48.84251968503936 49.27321003479216 49.673136788134045 50.19611792711957 50.534517487639626 50.995971433803334 51.51895257278886 51.85735213330892 52.34956967588353 52.87255081486907 53.18018677897821 53.67240432155283 53.980040285661964 54.47225782823658 55.026002563633035 55.33363852774217 55.70280168467313 56.041201245193186 56.31807361289141 56.656473173411456 57.02563633034242 57.4255630836843 57.70243545138253 57.94854422266984 58.25618018677898 58.37923457242263 58.7483977293536 59.025270097051816 59.2098516755173 59.48672404321553 59.732832814502835 59.886650796557404 60.22505035707745 60.378868339132026 60.62497711041934 60.778795092473906 60.932613074528476 61.17872184581578 61.36330342428126 61.48635780992492 61.57864859915766 61.64017579197949 61.64017579197949 61.701702984801315 61.73246658121223 61.73246658121223 61.73246658121223 61.73246658121223 61.76323017762314 61.73246658121223 61.76323017762314 61.73246658121223 61.73246658121223 61.73246658121223 61.73246658121223 61.73246658121223 61.73246658121223 61.73246658121223 61.701702984801315 61.73246658121223 61.73246658121223 61.73246658121223 61.73246658121223 61.73246658121223 61.701702984801315 61.701702984801315 61.73246658121223 61.73246658121223 61.73246658121223 61.73246658121223 61.73246658121223 61.73246658121223 61.73246658121223 61.73246658121223 61.73246658121223 61.73246658121223 61.73246658121223 61.73246658121223 61.73246658121223 61.73246658121223 61.73246658121223 61.73246658121223 61.73246658121223 61.73246658121223 61.73246658121223 61.701702984801315 61.73246658121223 61.701702984801315 61.73246658121223 61.73246658121223 61.701702984801315 61.701702984801315 61.701702984801315 61.701702984801315 61.701702984801315 61.701702984801315 61.701702984801315 61.701702984801315 61.701702984801315 61.6709393883904 61.6709393883904 61.64017579197949 61.64017579197949 61.609412195568574 61.609412195568574 61.57864859915766 61.57864859915766 61.57864859915766 61.57864859915766 61.547885002746746 61.547885002746746 61.57864859915766 61.547885002746746 61.547885002746746 61.547885002746746 61.57864859915766 61.547885002746746 61.57864859915766 61.57864859915766 61.57864859915766 61.57864859915766 61.57864859915766 61.57864859915766 61.57864859915766 61.57864859915766 61.57864859915766 61.57864859915766 61.57864859915766 61.57864859915766 61.57864859915766 61.57864859915766 61.57864859915766 61.57864859915766 61.57864859915766 61.57864859915766 61.57864859915766 61.57864859915766 61.57864859915766 61.609412195568574 61.57864859915766 61.57864859915766 61.57864859915766 61.57864859915766 61.57864859915766 61.57864859915766 61.57864859915766 61.57864859915766 61.57864859915766 61.57864859915766 61.57864859915766 61.57864859915766 61.57864859915766 61.57864859915766 61.57864859915766 61.57864859915766 61.57864859915766 61.57864859915766 61.57864859915766 61.57864859915766 61.57864859915766 61.57864859915766 61.547885002746746 61.57864859915766 61.57864859915766 61.57864859915766 61.547885002746746 61.547885002746746 61.547885002746746 61.547885002746746 61.547885002746746 61.547885002746746 61.547885002746746 61.547885002746746 61.547885002746746 61.57864859915766 61.547885002746746 61.547885002746746 61.547885002746746 61.547885002746746 61.547885002746746 61.547885002746746 61.547885002746746 61.547885002746746 61.57864859915766 61.57864859915766 61.547885002746746 61.547885002746746 61.547885002746746 61.547885002746746 61.547885002746746 61.547885002746746 61.48635780992492 61.48635780992492 61.45559421351401 61.45559421351401 61.45559421351401 61.45559421351401 61.45559421351401 61.45559421351401 61.45559421351401 61.45559421351401 61.45559421351401 61.45559421351401 61.45559421351401 61.42483061710309 61.42483061710309 61.42483061710309 61.42483061710309 61.39406702069218 61.39406702069218 61.42483061710309 61.39406702069218 61.42483061710309 61.39406702069218 61.42483061710309 61.42483061710309 61.39406702069218 61.42483061710309 61.42483061710309 61.42483061710309 61.42483061710309 61.42483061710309 61.42483061710309 61.42483061710309 61.42483061710309 61.42483061710309 61.42483061710309 61.42483061710309 61.42483061710309 61.42483061710309 61.42483061710309 61.42483061710309 61.42483061710309 61.42483061710309 61.42483061710309 61.42483061710309 61.36330342428126 61.33253982787035 61.30177623145944 61.20948544222669 61.17872184581578 61.086431056583045 60.994140267350296 60.932613074528476 60.87108588170665 60.80955868888482 60.74803149606299 60.655740706830244 60.594213514008416 60.40963193554294 60.22505035707745 60.1019959714338 59.91741439296832 59.70206921809192 59.45596044680461 59.17908807910639 58.96374290422999 58.65610694012086 58.34847097601172 58.1023622047244 57.79472624061527 57.57938106573887 57.240981505218826 56.90258194469877 56.68723676982238 56.348837209302324 56.041201245193186 55.79509247390588 55.33363852774217 55.087529756454856 54.841420985167545 54.59531221388024 54.25691265336019 54.072331074894706 53.64164072514191 53.3955319538546 53.057132393334555 52.811023622047244 52.53415125434902 52.19575169382897 51.949642922541656 51.58047976561069 51.242080205090645 51.02673503021424 50.688335469694195 50.442226698406884 50.134590734297745 49.79619117377769 49.580845998901296 49.27321003479216 48.84251968503936 48.719465299395715 48.38106573887566 47.98113898553378 47.73503021424648 47.33510346090459 46.904413111151804 46.47372276139901 46.07379600805713 45.735396447537084 45.36623329060612 45.12012451931881 44.781724958798755 44.41256180186779 44.135689434169564 43.79728987364952 43.48965390954038 43.24354513825307 42.8743819813221 42.53598242080205 42.259110053103825 41.797656106940124 41.459256546420065 40.96703900384545 40.25947628639443 39.85954953305256 39.33656839406702 38.99816883354697 38.59824208020509 38.075260941219554 37.4907526094122 36.998535066837576 36.66013550631752 36.1679179637429 35.67570042116829 35.24501007141549 34.937374107306354 34.44515656473173 34.19904779344442 33.89141182933528 33.7068302508698 33.49148507599341 33.214612708295185 33.12232191906244 32.968503937007874 32.814685954953305 32.69163156930965 32.507049990844166 32.29170481596777 32.107123237502286 31.95330525544772 31.830250869804065 31.737960080571323 31.584142098516754 31.461087712873102 31.307269730818533 31.21497894158579 31.153451748763963 31.030397363120308 30.938106573887566 30.845815784654825 30.784288591832997 30.72276139901117 30.630470609778428 30.5689434169566 30.38436183849112 30.23054385643655 30.07672587438198 29.98443508514924 29.922907892327412 29.861380699505585 29.799853506683757 29.73832631386193 29.6767991210401 29.646035524629188 29.615271928218274 29.615271928218274 29.615271928218274 29.615271928218274 29.615271928218274 29.615271928218274 29.615271928218274 29.615271928218274 29.615271928218274 29.615271928218274 29.615271928218274 29.615271928218274 29.615271928218274 29.615271928218274 29.58450833180736 29.58450833180736 29.58450833180736 29.58450833180736 29.58450833180736 29.58450833180736 29.58450833180736 29.58450833180736 29.58450833180736 29.58450833180736 29.58450833180736 29.58450833180736 29.58450833180736 29.58450833180736 29.58450833180736 29.58450833180736 29.58450833180736 29.58450833180736 29.58450833180736 29.58450833180736 29.58450833180736 29.58450833180736 29.58450833180736 29.58450833180736 29.58450833180736 29.58450833180736 29.58450833180736 29.58450833180736 29.58450833180736 29.58450833180736 29.58450833180736 29.58450833180736 29.58450833180736 29.58450833180736 29.58450833180736 29.58450833180736 29.58450833180736 29.58450833180736 29.58450833180736 29.58450833180736 29.58450833180736 29.58450833180736 29.58450833180736 29.58450833180736 29.58450833180736 29.58450833180736 29.58450833180736 29.58450833180736 29.58450833180736 29.58450833180736 29.58450833180736 29.58450833180736 29.58450833180736 29.58450833180736 29.58450833180736 29.58450833180736 29.58450833180736 29.58450833180736 29.58450833180736 29.58450833180736 29.58450833180736 29.58450833180736 29.58450833180736 29.58450833180736 29.58450833180736 29.58450833180736 29.58450833180736 29.58450833180736 29.58450833180736 29.58450833180736 29.58450833180736 29.58450833180736 29.58450833180736 29.58450833180736 29.58450833180736 29.58450833180736 29.58450833180736 29.58450833180736 29.58450833180736 29.58450833180736 29.58450833180736 29.58450833180736 29.58450833180736 29.58450833180736 29.58450833180736 29.58450833180736 29.58450833180736 29.58450833180736 29.58450833180736 29.58450833180736 29.58450833180736 29.58450833180736 29.58450833180736 29.58450833180736 29.58450833180736 29.58450833180736 29.58450833180736 29.58450833180736 29.58450833180736 29.58450833180736 29.58450833180736 29.58450833180736 29.58450833180736 29.58450833180736 29.58450833180736 29.58450833180736 29.58450833180736 29.58450833180736 29.58450833180736 29.58450833180736 29.58450833180736 29.58450833180736 29.58450833180736 29.58450833180736 29.58450833180736 29.58450833180736 29.58450833180736 29.58450833180736 29.58450833180736 29.58450833180736 29.58450833180736 29.58450833180736 29.58450833180736 29.58450833180736 29.58450833180736 29.58450833180736 29.58450833180736 29.58450833180736 29.58450833180736 29.58450833180736 29.58450833180736 29.58450833180736 29.58450833180736 29.58450833180736 29.58450833180736 29.58450833180736 29.58450833180736 29.58450833180736 29.58450833180736 29.58450833180736 29.58450833180736 29.58450833180736 29.58450833180736 29.58450833180736 29.58450833180736 29.58450833180736 29.58450833180736 29.58450833180736 29.58450833180736 29.58450833180736 29.58450833180736 29.58450833180736 29.58450833180736 29.58450833180736 29.58450833180736 29.58450833180736 29.58450833180736 29.58450833180736 29.58450833180736 29.58450833180736 29.58450833180736 29.58450833180736 29.58450833180736 29.58450833180736 29.58450833180736 29.58450833180736 29.58450833180736 29.58450833180736 29.58450833180736 29.58450833180736 29.58450833180736 29.58450833180736 29.58450833180736 29.58450833180736 29.58450833180736 29.58450833180736 29.58450833180736 29.58450833180736 29.58450833180736 29.58450833180736 29.58450833180736 29.58450833180736 29.58450833180736 29.58450833180736 29.58450833180736 29.58450833180736 29.58450833180736 29.615271928218274 29.58450833180736 29.615271928218274 29.615271928218274 29.615271928218274 29.615271928218274 29.615271928218274 29.615271928218274 29.615271928218274 29.615271928218274 29.646035524629188 29.646035524629188 29.6767991210401 29.6767991210401 29.6767991210401 29.707562717451015 29.707562717451015 29.73832631386193 29.799853506683757 29.83061710309467 29.83061710309467 29.8921442959165 29.953671488738326 30.015198681560154 30.107489470792896 30.169016663614723 30.322834645669293 30.445889031312948 30.538179820545686 30.630470609778428 30.691997802600255 30.784288591832997 30.845815784654825 30.999633766709394 31.21497894158579 31.338033327229446 31.614905694927668 31.922541659036806 32.04559604468046 32.19941402673503 32.23017762314594 32.260941219556855 32.44552279802234 32.53781358725508 32.660867972898735 32.814685954953305 32.968503937007874 33.214612708295185 33.33766709393884 33.522248672404324 33.73759384728072 33.860648232924376 34.01446621497894 34.10675700421168 34.29133858267716 34.475920161142646 34.5989745467863 34.75279252884087 34.937374107306354 35.12195568577184 35.429591649880976 35.64493682475737 35.82951840322285 36.07562717451016 36.29097234938656 36.598608313495696 37.060062259659404 37.306171030946714 37.64457059146676 37.767624977110415 38.075260941219554 38.413660501739606 38.75206006225966 39.09045962277971 39.428859183299764 39.70573155099798 40.07489470792895 40.35176707562717 40.75169382896905 41.18238417872185 41.490020142830986 41.951474088994686 42.44369163156931 42.812854788500275 43.52041750595129 44.01263504852591 44.4433253982787 44.874015748031496 45.27394250137337 45.82768723676982 46.41219556857718 46.965940303973625 47.45815784654825 47.82732100347921 48.165720563999265 48.59641091375206 48.99633766709394 49.51931880607947 49.980772752243176 50.288408716352315 50.71909906610511 51.02673503021424 51.488188976377955 51.98040651895257 52.288042483061716 52.811023622047244 53.27247756821095 53.64164072514191 54.16462186412745 54.47225782823658 54.933711774400294 55.395165720563995 55.67203808826222 56.16425563083684 56.441127998535066 56.718000366233284 57.14869071598608 57.39479948727339 57.6409082585607 57.97930781908075 58.37923457242263 58.71763413294268 58.96374290422999 59.363669657571876 59.732832814502835 59.94817798937923 60.34810474272111 60.71726789965207 60.994140267350296 61.36330342428126 61.609412195568574 61.97857535249954 62.37850210584142 62.62461087712873 62.99377403405969 63.33217359457974 63.54751876945614 63.88591832997619 64.22431789049625 64.50119025819447 64.71653543307087 65.02417139718 65.2395165720564 65.45486174693279 65.73173411463102 65.97784288591834 66.10089727156199 66.31624244643838 66.53158762131477 66.65464200695843 66.80845998901299 66.96227797106756 67.05456876030031 67.14685954953305 67.20838674235489 67.30067753158761 67.39296832082036 67.45449551364219 67.51602270646401 67.54678630287492 67.57754989928584 67.63907709210767 67.66984068851858 67.7006042849295 67.73136788134042 67.76213147775132 67.79289507416223 67.85442226698407 67.91594945980589 67.94671305621681 68.00824024903864 68.03900384544954 68.10053103827138 68.13129463468229 68.19282182750412 68.22358542391504 68.25434902032595 68.28511261673685 68.31587621314777 68.3466398095587 68.40816700238051 68.43893059879143 68.46969419520234 68.50045779161326 68.53122138802416 68.56198498443507 68.62351217725691 68.65427577366782 68.68503937007873 68.68503937007873 68.68503937007873 68.71580296648965 68.71580296648965 68.71580296648965 68.71580296648965 68.71580296648965 68.71580296648965 68.71580296648965 68.71580296648965 68.71580296648965 68.71580296648965 68.71580296648965 68.71580296648965 68.68503937007873 68.71580296648965 68.71580296648965 68.71580296648965 68.71580296648965 68.68503937007873 68.68503937007873 68.68503937007873 68.68503937007873 68.68503937007873 68.68503937007873 68.68503937007873 68.68503937007873 68.71580296648965 68.68503937007873 68.68503937007873 68.68503937007873 68.68503937007873 68.68503937007873 68.68503937007873 68.68503937007873 68.68503937007873 68.68503937007873 68.68503937007873 68.68503937007873 68.68503937007873 68.68503937007873 68.68503937007873 68.68503937007873 68.68503937007873 68.68503937007873 68.68503937007873 68.68503937007873 68.68503937007873 68.68503937007873 68.68503937007873 68.68503937007873 68.68503937007873 68.68503937007873 68.65427577366782 68.65427577366782 68.62351217725691 68.62351217725691 68.62351217725691 68.62351217725691 68.62351217725691 68.62351217725691 68.62351217725691 68.62351217725691 68.592748580846 68.62351217725691 68.62351217725691 68.62351217725691 68.62351217725691 68.62351217725691 68.62351217725691 68.62351217725691 68.62351217725691 68.62351217725691 68.62351217725691 68.62351217725691 68.62351217725691 68.62351217725691 68.62351217725691 68.62351217725691 68.592748580846 68.592748580846 68.592748580846 68.592748580846 68.592748580846 68.592748580846 68.592748580846 68.592748580846 68.592748580846 68.592748580846 68.56198498443507 68.56198498443507 68.56198498443507 68.56198498443507 68.56198498443507 68.53122138802416 68.53122138802416 68.53122138802416 68.46969419520234 68.46969419520234 68.46969419520234 68.46969419520234 68.43893059879143 68.46969419520234 68.43893059879143 68.46969419520234 68.46969419520234 68.43893059879143 68.46969419520234 68.46969419520234 68.46969419520234 68.46969419520234 68.46969419520234 68.46969419520234 68.46969419520234 68.46969419520234 68.46969419520234 68.46969419520234 68.50045779161326 68.46969419520234 68.46969419520234 68.46969419520234 68.43893059879143 68.46969419520234 68.46969419520234 68.46969419520234 68.43893059879143 68.43893059879143 68.43893059879143 68.40816700238051 68.40816700238051 68.43893059879143 68.40816700238051 68.43893059879143 68.43893059879143 68.40816700238051 68.40816700238051 68.40816700238051 68.3774034059696 68.3466398095587 68.25434902032595 68.25434902032595 68.19282182750412 68.10053103827138 68.06976744186046 68.00824024903864 67.97747665262773 67.94671305621681 67.91594945980589 67.91594945980589 67.91594945980589 67.91594945980589 67.91594945980589 67.88518586339498 67.91594945980589 67.91594945980589 67.91594945980589 67.91594945980589 67.85442226698407 67.76213147775132 67.60831349569676 67.45449551364219 67.30067753158761 67.14685954953305 66.86998718183483 66.68540560336935 66.37776963926021 66.03937007874015 65.82402490386376 65.54715253616553 65.27028016846731 64.90111701153634 64.59348104742722 64.34737227613991 64.1012635048526 63.79362754074345 63.54751876945614 63.17835561252517 62.77842885918329 62.37850210584142 61.947811756088626 61.6709393883904 61.36330342428126 60.932613074528476 60.440395531953854 60.00970518220106 59.60977842885918 59.2098516755173 58.779161325764505 58.44076176524446 58.071598608313494 57.54861746932796 57.210217908807905 56.77952755905512 56.47189159494598 56.041201245193186 55.425929316974916 55.087529756454856 54.7183665995239 54.2876762497711 53.918513092840136 53.3955319538546 53.057132393334555 52.34956967588353 51.85735213330892 51.39589818714521 50.995971433803334 50.65757187328328 50.07306354147592 49.642373191723124 49.21168284197033 48.75022889580663 48.319538546053835 47.95037538912287 47.519685039370074 47.05823109320637 46.750595129097235 46.350668375755355 46.07379600805713 45.70463285112616 45.3354696941952 45.05859732649698 44.535616187511444 44.25874381981322 43.95110785570408 43.5511811023622 43.18201794543124 42.75132759567845 42.16681926387108 41.797656106940124 41.490020142830986 41.21314777513276 40.78245742537997 40.413294268449 40.10565830433986 39.76725874381981 39.428859183299764 39.18275041201245 38.81358725508149 38.50595129097235 38.19831532686321 37.798388573521336 37.521516205823104 37.152353048892145 36.78318989196118 36.53708112067387 36.106390770921074 35.9218091924556 35.61417322834646 35.27577366782641 34.90661051089544 34.56821095037539 34.26057498626625 34.075993407800766 33.89141182933528 33.76835744369163 33.614539461637065 33.49148507599341 33.39919428676067 33.27613990111701 33.12232191906244 33.0300311298297 32.84544955136422 32.72239516572056 32.568577183665994 32.414759201611425 32.32246841237868 32.19941402673503 32.04559604468046 31.984068851858634 31.891778062625892 31.830250869804065 31.768723676982237 31.64566929133858 31.584142098516754 31.522614905694926 31.430324116462188 31.36879692364036 31.307269730818533 31.245742537996705 31.153451748763963 31.030397363120308 30.938106573887566 30.845815784654825 30.753524995422083 30.691997802600255 30.538179820545686 30.47665262772386 30.415125434902034 30.322834645669293 30.29207104925838 30.261307452847465 30.23054385643655 30.199780260025637 30.13825306720381 30.13825306720381 30.107489470792896 30.07672587438198 30.045962277971068 30.015198681560154 30.015198681560154 29.98443508514924 29.953671488738326 29.953671488738326 29.922907892327412 29.8921442959165 29.8921442959165 29.861380699505585 29.861380699505585 29.83061710309467 29.83061710309467 29.83061710309467 29.799853506683757 29.799853506683757 29.799853506683757 29.799853506683757 29.799853506683757 29.799853506683757 29.799853506683757 29.799853506683757 29.799853506683757 29.799853506683757 29.799853506683757 29.799853506683757 29.769089910272843 29.769089910272843 29.769089910272843 29.73832631386193 29.73832631386193 29.73832631386193 29.73832631386193 29.707562717451015 29.73832631386193 29.73832631386193 29.73832631386193 29.707562717451015 29.707562717451015 29.707562717451015 29.707562717451015 29.707562717451015 29.707562717451015 29.707562717451015 29.707562717451015 29.707562717451015 29.707562717451015 29.707562717451015 29.707562717451015 29.707562717451015 29.707562717451015 29.707562717451015 29.707562717451015 29.707562717451015 29.707562717451015 29.707562717451015 29.707562717451015 29.707562717451015 29.6767991210401 29.707562717451015 29.6767991210401 29.6767991210401 29.6767991210401 29.6767991210401 29.6767991210401 29.6767991210401 29.6767991210401 29.6767991210401 29.6767991210401 29.6767991210401 29.646035524629188 29.6767991210401 29.6767991210401 29.646035524629188 29.646035524629188 29.646035524629188 29.6767991210401 29.646035524629188 29.646035524629188 29.646035524629188 29.646035524629188 29.6767991210401 29.646035524629188 29.6767991210401 29.646035524629188 29.6767991210401 29.646035524629188 29.646035524629188 29.646035524629188 29.6767991210401 29.646035524629188 29.646035524629188 29.646035524629188 29.646035524629188 29.646035524629188 29.646035524629188 29.646035524629188 29.646035524629188 29.646035524629188 29.646035524629188 29.646035524629188 29.646035524629188 29.646035524629188 29.646035524629188 29.646035524629188 29.646035524629188 29.646035524629188 29.646035524629188 29.646035524629188 29.646035524629188 29.646035524629188 29.646035524629188 29.646035524629188 29.646035524629188 29.646035524629188 29.646035524629188 29.646035524629188 29.646035524629188 29.646035524629188 29.646035524629188 29.646035524629188 29.646035524629188 29.646035524629188 29.646035524629188 29.646035524629188 29.646035524629188 29.646035524629188 29.646035524629188 29.646035524629188 29.646035524629188 29.646035524629188 29.646035524629188 29.646035524629188 29.646035524629188 29.646035524629188 29.646035524629188 29.646035524629188 29.646035524629188 29.646035524629188 29.646035524629188 29.646035524629188 29.646035524629188 29.646035524629188 29.646035524629188 29.646035524629188 29.646035524629188 29.646035524629188 29.646035524629188 29.646035524629188 29.646035524629188 29.646035524629188 29.646035524629188 29.646035524629188 29.646035524629188 29.646035524629188 29.646035524629188 29.615271928218274 29.646035524629188 29.646035524629188 29.646035524629188 29.646035524629188 29.646035524629188 29.646035524629188 29.646035524629188 29.646035524629188 29.646035524629188 29.646035524629188 29.646035524629188 29.646035524629188 29.646035524629188 29.646035524629188 29.646035524629188 29.6767991210401 29.646035524629188 29.6767991210401 29.6767991210401 29.6767991210401 29.6767991210401 29.707562717451015 29.73832631386193 29.73832631386193 29.769089910272843 29.799853506683757 29.83061710309467 29.861380699505585 29.8921442959165 29.922907892327412 29.98443508514924 30.015198681560154 30.07672587438198 30.13825306720381 30.169016663614723 30.261307452847465 30.29207104925838 30.322834645669293 30.38436183849112 30.415125434902034 30.47665262772386 30.538179820545686 30.5689434169566 30.66123420618934 30.691997802600255 30.753524995422083 30.81505218824391 30.907342977476652 30.96887017029848 31.06116095953122 31.12268815235305 31.21497894158579 31.307269730818533 31.430324116462188 31.55337850210584 31.70719648416041 31.86101446621498 31.95330525544772 32.07635964109137 32.23017762314594 32.32246841237868 32.414759201611425 32.59934078007691 32.78392235854239 32.93774034059696 33.2453763047061 33.39919428676067 33.64530305804798 33.89141182933528 34.10675700421168 34.5989745467863 34.90661051089544 35.337300860648234 35.82951840322285 36.22944515656473 36.62937190990661 36.998535066837576 37.552279802234025 38.10602453763047 38.59824208020509 39.15198681560154 39.79802234023072 40.25947628639443 40.87474821461271 41.3054385643655 41.951474088994686 42.59750961362388 43.0897271561985 43.85881706647134 44.10492583775865 44.6586705731551 45.396996887017025 45.82768723676982 46.196850393700785 46.71983153268632 47.27357626808276 47.82732100347921 48.19648416041018 48.75022889580663 49.27321003479216 49.642373191723124 50.22688152353049 50.78062625892693 51.211316608679724 51.73429774766526 52.103460904596226 52.84178721845816 53.18018677897821 53.54934993590917 54.072331074894706 54.59531221388024 55.05676616004395 55.48745650979674 56.01043764878227 56.502655191356894 56.994872733931516 57.36403589086248 57.763962644204355 58.19465299395715 58.563816150888115 58.96374290422999 59.27137886833913 59.70206921809192 60.1019959714338 60.53268632118659 60.80955868888482 61.20948544222669 61.48635780992492 62.04010254532137 62.44002929866325 62.74766526277239 63.239882805347 63.54751876945614 63.85515473356528 64.25508148690716 64.62424464383813 64.99340780076909 65.48562534334371 65.85478850027468 66.28547885002746 66.5931148141366 66.99304156747849 67.33144112799853 67.57754989928584 67.88518586339498 68.06976744186046 68.3774034059696 68.62351217725691 68.77733015931148 69.05420252700969 69.14649331624244 69.23878410547519 69.33107489470792 69.39260208752975 69.39260208752975 69.39260208752975 69.39260208752975 69.39260208752975 69.39260208752975 69.39260208752975 69.39260208752975 69.33107489470792 69.2695477018861 69.17725691265336 69.14649331624244 69.08496612342061 69.02343893059879 69.02343893059879 68.99267533418788 68.99267533418788 68.99267533418788 68.96191173777697 68.96191173777697 68.96191173777697 68.96191173777697 68.99267533418788 68.96191173777697 68.96191173777697 68.96191173777697 68.96191173777697 68.96191173777697 68.96191173777697 68.96191173777697 68.96191173777697 68.93114814136604 68.90038454495513 68.90038454495513 68.90038454495513 68.90038454495513 68.90038454495513 68.90038454495513 68.90038454495513 68.90038454495513 68.90038454495513 68.90038454495513 68.90038454495513 68.90038454495513 68.90038454495513 68.90038454495513 68.90038454495513 68.90038454495513 68.90038454495513 68.90038454495513 68.86962094854422 68.86962094854422 68.86962094854422 68.86962094854422 68.8388573521333 68.86962094854422 68.86962094854422 68.86962094854422 68.8388573521333 68.8388573521333 68.8388573521333 68.8388573521333 68.8080937557224 68.77733015931148 68.74656656290057 68.71580296648965 68.71580296648965 68.71580296648965 68.71580296648965 68.68503937007873 68.71580296648965 68.68503937007873 68.68503937007873 68.68503937007873 68.68503937007873 68.71580296648965 68.68503937007873 68.68503937007873 68.68503937007873 68.68503937007873 68.68503937007873 68.71580296648965 68.71580296648965 68.68503937007873 68.71580296648965 68.68503937007873 68.71580296648965 68.71580296648965 68.71580296648965 68.68503937007873 68.71580296648965 68.68503937007873 68.71580296648965 68.68503937007873 68.68503937007873 68.68503937007873 68.68503937007873 68.65427577366782 68.65427577366782 68.65427577366782 68.65427577366782 68.65427577366782 68.65427577366782 68.65427577366782 68.65427577366782 68.65427577366782 68.65427577366782 68.65427577366782 68.65427577366782 68.65427577366782 68.68503937007873 68.65427577366782 68.68503937007873 68.65427577366782 68.65427577366782 68.68503937007873 68.65427577366782 68.68503937007873 68.68503937007873 68.68503937007873 68.68503937007873 68.68503937007873 68.68503937007873 68.68503937007873 68.68503937007873 68.68503937007873 68.68503937007873 68.71580296648965 68.68503937007873 68.68503937007873 68.68503937007873 68.68503937007873 68.68503937007873 68.68503937007873 68.65427577366782 68.65427577366782 68.68503937007873 68.65427577366782 68.65427577366782 68.65427577366782 68.65427577366782 68.65427577366782 68.62351217725691 68.62351217725691 68.65427577366782 68.62351217725691 68.65427577366782 68.65427577366782 68.62351217725691 68.62351217725691 68.65427577366782 68.62351217725691 68.65427577366782 68.62351217725691 68.62351217725691 68.62351217725691 68.62351217725691 68.62351217725691 68.65427577366782 68.65427577366782 68.62351217725691 68.62351217725691 68.65427577366782 68.62351217725691 68.65427577366782 68.62351217725691 68.62351217725691 68.62351217725691 68.62351217725691 68.65427577366782 68.65427577366782 68.62351217725691 68.65427577366782 68.62351217725691 68.65427577366782 68.62351217725691 68.62351217725691 68.65427577366782 68.65427577366782 68.65427577366782 68.65427577366782 68.65427577366782 68.68503937007873 68.65427577366782 68.65427577366782 68.65427577366782 68.65427577366782 68.65427577366782 68.65427577366782 68.65427577366782 68.65427577366782 68.68503937007873 68.65427577366782 68.65427577366782 68.65427577366782 68.65427577366782 68.65427577366782 68.65427577366782 68.65427577366782 68.65427577366782 68.65427577366782 68.65427577366782 68.65427577366782 68.65427577366782 68.65427577366782 68.65427577366782 68.65427577366782 68.65427577366782 68.65427577366782 68.65427577366782 68.65427577366782 68.65427577366782 68.65427577366782 68.68503937007873 68.65427577366782 68.68503937007873 68.68503937007873 68.65427577366782 68.68503937007873 68.68503937007873 68.71580296648965 68.71580296648965 68.71580296648965 68.71580296648965 68.71580296648965 68.71580296648965 68.71580296648965 68.71580296648965 68.68503937007873 68.71580296648965 68.68503937007873 68.68503937007873 68.68503937007873 68.65427577366782 68.68503937007873 68.71580296648965 68.68503937007873 68.71580296648965 68.71580296648965 68.68503937007873 68.68503937007873 68.68503937007873 68.65427577366782 68.592748580846 68.53122138802416 68.46969419520234 68.43893059879143 68.43893059879143 68.40816700238051 68.40816700238051 68.40816700238051 68.3774034059696 68.3466398095587 68.28511261673685 68.28511261673685 68.22358542391504 68.1620582310932 68.10053103827138 68.03900384544954 67.97747665262773 67.85442226698407 67.73136788134042 67.54678630287492 67.39296832082036 67.20838674235489 67.05456876030031 66.83922358542392 66.62387841054752 66.43929683208202 66.1624244643838 65.94707928950741 65.7009705182201 65.42409815052187 65.14722578282365 64.93188060794725 64.62424464383813 64.37813587255081 64.1012635048526 63.63980955868888 63.39370078740157 63.055301226881525 62.83995605200513 62.5630836843069 62.04010254532137 61.73246658121223 61.39406702069218 60.96337667093938 60.655740706830244 60.19428676066654 59.886650796557404 59.579014832448266 59.05603369346274 58.71763413294268 58.25618018677898 57.79472624061527 57.4255630836843 56.656473173411456 56.225782823658676 55.82585607031679 55.179820545687605 54.7183665995239 54.10309467130563 53.3955319538546 52.718732832814496 52.07269730818531 51.64200695843252 51.242080205090645 50.65757187328328 50.2576451199414 49.45779161325764 49.027101263504846 48.473356528108404 47.91961179271196 47.48892144295917 46.965940303973625 46.442959164988096 46.07379600805713 45.58157846548251 45.24317890496246 44.75096136238784 44.227980223402305 43.70499908441677 43.366599523896724 42.905145577733016 42.566746017212964 42.105292071049256 41.705365317707376 41.18238417872185 40.690166636147225 40.38253067203809 39.982603918696206 39.674967954587075 39.21351400842337 38.81358725508149 38.35213330891778 38.075260941219554 37.67533418787768 37.398461820179456 36.96777147042666 36.598608313495696 36.32173594579747 35.9218091924556 35.67570042116829 35.30653726423732 34.96813770371727 34.72202893242996 34.383629371909905 34.26057498626625 34.137520600622594 33.983702618568024 33.829884636513455 33.67606665445889 33.522248672404324 33.39919428676067 33.18384911188427 33.0300311298297 32.87621314777513 32.72239516572056 32.63010437648782 32.47628639443325 32.32246841237868 32.19941402673503 32.04559604468046 31.922541659036806 31.768723676982237 31.64566929133858 31.55337850210584 31.36879692364036 31.27650613440762 31.21497894158579 31.153451748763963 31.12268815235305 31.06116095953122 30.999633766709394 30.938106573887566 30.87657938106574 30.784288591832997 30.753524995422083 30.753524995422083 30.691997802600255 30.630470609778428 30.599707013367514 30.5689434169566 30.507416224134772 30.507416224134772 30.47665262772386 30.445889031312948 30.445889031312948 30.415125434902034 30.38436183849112 30.353598242080206 30.322834645669293 30.322834645669293 30.322834645669293 30.29207104925838 30.29207104925838 30.261307452847465 30.261307452847465 30.261307452847465 30.23054385643655 30.23054385643655 30.261307452847465 30.261307452847465 30.261307452847465 30.261307452847465 30.261307452847465 30.23054385643655 30.23054385643655 30.23054385643655 30.23054385643655 30.23054385643655 30.23054385643655 30.261307452847465 30.23054385643655 30.23054385643655 30.23054385643655 30.23054385643655 30.23054385643655 30.23054385643655 30.261307452847465 30.261307452847465 30.261307452847465 30.23054385643655 30.261307452847465 30.23054385643655 30.23054385643655 30.23054385643655 30.23054385643655 30.261307452847465 30.261307452847465 30.23054385643655 30.261307452847465 30.23054385643655 30.23054385643655 30.23054385643655 30.23054385643655 30.23054385643655 30.23054385643655 30.23054385643655 30.23054385643655 30.261307452847465 30.23054385643655 30.23054385643655 30.23054385643655 30.23054385643655 30.23054385643655 30.23054385643655 30.23054385643655 30.23054385643655 30.261307452847465 30.23054385643655 30.261307452847465 30.23054385643655 30.23054385643655 30.261307452847465 30.23054385643655 30.23054385643655 30.23054385643655 30.261307452847465 30.261307452847465 30.23054385643655 30.23054385643655 30.23054385643655 30.261307452847465 30.261307452847465 30.23054385643655 30.23054385643655 30.23054385643655 30.261307452847465 30.23054385643655 30.261307452847465 30.23054385643655 30.261307452847465 30.23054385643655 30.23054385643655 30.261307452847465 30.261307452847465 30.261307452847465 30.23054385643655 30.261307452847465 30.23054385643655 30.23054385643655 30.23054385643655 30.23054385643655 30.23054385643655 30.23054385643655 30.23054385643655 30.23054385643655 30.23054385643655 30.23054385643655 30.23054385643655 30.23054385643655 30.23054385643655 30.23054385643655 30.23054385643655 30.199780260025637 30.199780260025637 30.199780260025637 30.199780260025637 30.199780260025637 30.169016663614723 30.169016663614723 30.169016663614723 30.13825306720381 30.13825306720381 30.13825306720381 30.107489470792896 30.107489470792896 30.107489470792896 30.07672587438198 30.107489470792896 30.07672587438198 30.107489470792896 30.07672587438198 30.107489470792896 30.107489470792896 30.07672587438198 30.07672587438198 30.07672587438198 30.107489470792896 30.07672587438198 30.107489470792896 30.07672587438198 30.07672587438198 30.07672587438198 30.107489470792896 30.107489470792896 30.07672587438198 30.107489470792896 30.07672587438198 30.07672587438198 30.107489470792896 30.07672587438198 30.07672587438198 30.07672587438198 30.07672587438198 30.107489470792896 30.07672587438198 30.107489470792896 30.07672587438198 30.107489470792896 30.07672587438198 30.107489470792896 30.107489470792896 30.07672587438198 30.07672587438198 30.07672587438198 30.045962277971068 30.045962277971068 30.045962277971068 30.015198681560154 30.015198681560154 29.98443508514924 29.98443508514924 29.98443508514924 29.98443508514924 29.98443508514924 29.98443508514924 29.98443508514924 29.98443508514924 29.98443508514924 29.98443508514924 29.98443508514924 29.98443508514924 29.98443508514924 29.98443508514924 29.98443508514924 29.98443508514924 29.98443508514924 29.98443508514924 29.98443508514924 29.98443508514924 29.98443508514924 30.015198681560154 30.015198681560154 30.015198681560154 30.015198681560154 30.015198681560154 30.015198681560154 30.045962277971068 30.045962277971068 30.045962277971068 30.07672587438198 30.07672587438198 30.107489470792896 30.107489470792896 30.13825306720381 30.13825306720381 30.199780260025637 30.23054385643655 30.29207104925838 30.322834645669293 30.322834645669293 30.38436183849112 30.415125434902034 30.507416224134772 30.599707013367514 30.630470609778428 30.691997802600255 30.753524995422083 30.845815784654825 30.999633766709394 31.091924555942136 31.245742537996705 31.36879692364036 31.461087712873102 31.614905694927668 31.737960080571323 31.86101446621498 32.04559604468046 32.19941402673503 32.414759201611425 32.63010437648782 32.78392235854239 33.0300311298297 33.214612708295185 33.368430690349754 33.58377586522615 33.73759384728072 33.983702618568024 34.383629371909905 34.629738143197216 34.937374107306354 35.15271928218275 35.36806445705915 35.706464017579194 36.01409998168833 36.53708112067387 36.96777147042666 37.306171030946714 37.767624977110415 38.29060611609595 38.629005676616 39.18275041201245 39.582677165354326 40.22871268998352 40.843984618201794 41.27467496795458 41.951474088994686 42.62827321003479 43.15125434902033 43.7665262772386 44.227980223402305 44.90477934444241 45.643105658304336 46.16608679728987 47.18128547885003 47.85808459989013 48.411829335286576 49.18091924555942 49.73466398095587 50.442226698406884 51.11902581944699 51.61124336202161 52.31880607947262 52.84178721845816 53.54934993590917 54.19538546053836 54.68760300311298 55.36440212415309 56.01043764878227 56.441127998535066 57.056399926753336 57.456326680095216 58.010071415491666 58.533052554477194 58.87145211499725 59.579014832448266 59.91741439296832 60.40963193554294 60.71726789965207 61.20948544222669 61.57864859915766 61.855520966855885 62.28621131660868 62.65537447353964 62.96301043764878 63.36293719099066 63.73210034792162 63.978209119208934 64.34737227613991 64.68577183665994 64.93188060794725 65.30104376487822 65.57791613257645 66.1316608679729 66.56235121772569 66.90075077824574 67.20838674235489 67.66984068851858 68.00824024903864 68.46969419520234 68.96191173777697 69.42336568394066 69.88481963010437 70.19245559421351 70.6231459439663 71.05383629371909 71.36147225782824 71.79216260758102 72.13056216810108 72.49972532503205 72.86888848196301 73.0842336568394 73.48416041018129 73.63797839223585 73.79179637429041 73.97637795275591 74.03790514557772 74.09943233839957 74.09943233839957 74.09943233839957 74.09943233839957 74.06866874198865 73.97637795275591 73.85332356711226 73.66874198864676 73.42263321735945 73.20728804248306 73.0842336568394 72.93041567478483 72.80736128914117 72.68430690349753 72.6227797106757 72.56125251785386 72.53048892144295 72.53048892144295 72.53048892144295 72.56125251785386 72.56125251785386 72.56125251785386 72.5920161142648 72.5920161142648 72.5920161142648 72.65354330708661 72.68430690349753 72.71507049990844 72.71507049990844 72.74583409631936 72.71507049990844 72.74583409631936 72.71507049990844 72.71507049990844 72.71507049990844 72.71507049990844 72.71507049990844 72.71507049990844 72.71507049990844 72.68430690349753 72.68430690349753 72.65354330708661 72.65354330708661 72.6227797106757 72.6227797106757 72.6227797106757 72.6227797106757 72.5920161142648 72.5920161142648 72.5920161142648 72.6227797106757 72.5920161142648 72.5920161142648 72.5920161142648 72.53048892144295 72.53048892144295 72.49972532503205 72.46896172862114 72.43819813221022 72.4074345357993 72.37667093938839 72.34590734297747 72.28438015015564 72.28438015015564 72.25361655374473 72.22285295733383 72.22285295733383 72.22285295733383 72.22285295733383 72.22285295733383 72.19208936092289 72.19208936092289 72.22285295733383 72.22285295733383 72.22285295733383 72.22285295733383 72.19208936092289 72.22285295733383 72.22285295733383 72.22285295733383 72.22285295733383 72.22285295733383 72.22285295733383 72.25361655374473 72.25361655374473 72.25361655374473 72.25361655374473 72.25361655374473 72.25361655374473 72.25361655374473 72.25361655374473 72.25361655374473 72.25361655374473 72.22285295733383 72.25361655374473 72.25361655374473 72.25361655374473 72.25361655374473 72.25361655374473 72.22285295733383 72.25361655374473 72.25361655374473 72.25361655374473 72.25361655374473 72.25361655374473 72.25361655374473 72.25361655374473 72.22285295733383 72.25361655374473 72.25361655374473 72.22285295733383 72.25361655374473 72.25361655374473 72.25361655374473 72.25361655374473 72.25361655374473 72.25361655374473 72.25361655374473 72.25361655374473 72.25361655374473 72.25361655374473 72.25361655374473 72.25361655374473 72.25361655374473 72.25361655374473 72.25361655374473 72.25361655374473 72.25361655374473 72.28438015015564 72.28438015015564 72.28438015015564 72.31514374656656 72.28438015015564 72.28438015015564 72.28438015015564 72.28438015015564 72.28438015015564 72.28438015015564 72.28438015015564 72.28438015015564 72.28438015015564 72.28438015015564 72.28438015015564 72.28438015015564 72.28438015015564 72.28438015015564 72.28438015015564 72.28438015015564 72.28438015015564 72.28438015015564 72.28438015015564 72.31514374656656 72.31514374656656 72.28438015015564 72.28438015015564 72.31514374656656 72.31514374656656 72.28438015015564 72.31514374656656 72.31514374656656 72.31514374656656 72.31514374656656 72.31514374656656 72.31514374656656 72.31514374656656 72.31514374656656 72.31514374656656 72.31514374656656 72.34590734297747 72.34590734297747 72.34590734297747 72.37667093938839 72.37667093938839 72.37667093938839 72.4074345357993 72.4074345357993 72.4074345357993 72.43819813221022 72.43819813221022 72.43819813221022 72.46896172862114 72.46896172862114 72.46896172862114 72.46896172862114 72.46896172862114 72.43819813221022 72.43819813221022 72.4074345357993 72.37667093938839 72.31514374656656 72.28438015015564 72.22285295733383 72.19208936092289 72.16132576451199 72.13056216810108 72.09979857169017 72.09979857169017 72.09979857169017 72.06903497527925 72.09979857169017 72.09979857169017 72.09979857169017 72.09979857169017 72.09979857169017 72.09979857169017 72.13056216810108 72.16132576451199 72.19208936092289 72.22285295733383 72.22285295733383 72.22285295733383 72.25361655374473 72.28438015015564 72.25361655374473 72.25361655374473 72.25361655374473 72.25361655374473 72.25361655374473 72.25361655374473 72.25361655374473 72.22285295733383 72.22285295733383 72.22285295733383 72.22285295733383 72.22285295733383 72.22285295733383 72.22285295733383 72.22285295733383 72.22285295733383 72.19208936092289 72.22285295733383 72.22285295733383 72.22285295733383 72.22285295733383 72.22285295733383 72.22285295733383 72.22285295733383 72.22285295733383 72.22285295733383 72.22285295733383 72.22285295733383 72.22285295733383 72.22285295733383 72.22285295733383 72.22285295733383 72.22285295733383 72.19208936092289 72.13056216810108 72.06903497527925 72.03827137886833 71.97674418604652 71.91521699322467 71.91521699322467 71.88445339681377 71.88445339681377 71.82292620399194 71.79216260758102 71.7306354147592 71.66910822193736 71.63834462552646 71.57681743270463 71.54605383629371 71.4845266434719 71.39223585423915 71.36147225782824 71.26918146859549 71.23841787218458 71.17689067936274 71.08459989013001 70.99230910089727 70.93078190807545 70.86925471525362 70.8384911188427 70.74620032960996 70.65390954037721 70.56161875114448 70.43856436550081 70.31550997985717 70.19245559421351 70.10016480498078 69.9463468229262 69.76176524446072 69.54642006958431 69.300311298297 69.08496612342061 68.86962094854422 68.68503937007873 68.53122138802416 68.3774034059696 68.1620582310932 67.94671305621681 67.73136788134042 67.51602270646401 67.2699139351767 66.96227797106756 66.65464200695843 66.47006042849296 66.25471525361655 65.9163156930965 65.60867972898737 65.33180736128914 64.80882622230361 64.53195385460538 64.1012635048526 63.79362754074345 63.48599157663431 62.901483244826956 62.53232008789599 62.009338948910454 61.45559421351401 60.994140267350296 60.22505035707745 60.040468778611974 59.45596044680461 58.87145211499725 58.44076176524446 57.88701702984801 57.302508698040654 56.87181834828786 56.10272843801501 55.73356528108405 55.395165720563995 54.841420985167545 54.379967039003844 53.918513092840136 53.580113532320084 52.9340780076909 52.47262406152719 52.13422450100714 51.826588536898 51.242080205090645 50.934444240981506 50.442226698406884 50.10382713788683 49.61160959531221 49.119392052737595 48.780992492217536 48.22724775682109 47.765793810657385 47.36586705731551 46.87364951474089 46.504486357809924 45.98150521882439 45.48928767624977 45.15088811572972 44.627906976744185 44.16645303058048 43.79728987364952 43.18201794543124 42.84361838491119 42.505218824391136 41.85918329976195 41.490020142830986 41.02856619666728 40.56711225050357 40.1979490935726 39.674967954587075 39.30580479765611 38.721296465848745 38.10602453763047 37.64457059146676 36.93700787401575 36.29097234938656 35.82951840322285 35.24501007141549 34.84508331807361 34.19904779344442 33.58377586522615 33.30690349752793 32.906976744186046 32.63010437648782 32.414759201611425 32.19941402673503 32.107123237502286 31.984068851858634 31.86101446621498 31.79948727339315 31.70719648416041 31.614905694927668 31.584142098516754 31.522614905694926 31.522614905694926 31.522614905694926 31.491851309284012 31.491851309284012 31.461087712873102 31.430324116462188 31.36879692364036 31.27650613440762 31.245742537996705 31.12268815235305 31.06116095953122 31.030397363120308 30.999633766709394 30.96887017029848 30.907342977476652 30.845815784654825 30.81505218824391 30.72276139901117 30.66123420618934 30.630470609778428 30.599707013367514 30.5689434169566 30.5689434169566 30.538179820545686 30.538179820545686 30.538179820545686 30.538179820545686 30.538179820545686 30.47665262772386 30.47665262772386 30.445889031312948 30.445889031312948 30.445889031312948 30.415125434902034 30.415125434902034 30.415125434902034 30.415125434902034 30.415125434902034 30.415125434902034 30.415125434902034 30.415125434902034 30.38436183849112 30.415125434902034 30.38436183849112 30.38436183849112 30.38436183849112 30.38436183849112 30.38436183849112 30.38436183849112 30.38436183849112 30.38436183849112 30.38436183849112 30.38436183849112 30.353598242080206 30.38436183849112 30.353598242080206 30.353598242080206 30.353598242080206 30.353598242080206 30.353598242080206 30.353598242080206 30.353598242080206 30.353598242080206 30.322834645669293 30.353598242080206 30.353598242080206 30.322834645669293 30.322834645669293 30.322834645669293 30.322834645669293 30.322834645669293 30.322834645669293 30.322834645669293 30.322834645669293 30.322834645669293 30.322834645669293 30.322834645669293 30.322834645669293 30.322834645669293 30.322834645669293 30.322834645669293 30.322834645669293 30.29207104925838 30.322834645669293 30.322834645669293 30.322834645669293 30.322834645669293 30.322834645669293 30.322834645669293 30.322834645669293 30.322834645669293 30.29207104925838 30.29207104925838 30.29207104925838 30.322834645669293 30.322834645669293 30.29207104925838 30.322834645669293 30.322834645669293 30.29207104925838 30.322834645669293 30.322834645669293 30.322834645669293 30.29207104925838 30.322834645669293 30.322834645669293 30.29207104925838 30.29207104925838 30.322834645669293 30.322834645669293 30.322834645669293 30.322834645669293 30.29207104925838 30.322834645669293 30.29207104925838 30.322834645669293 30.29207104925838 30.322834645669293 30.29207104925838 30.322834645669293 30.29207104925838 30.29207104925838 30.29207104925838 30.322834645669293 30.29207104925838 30.322834645669293 30.29207104925838 30.322834645669293 30.322834645669293 30.322834645669293 30.322834645669293 30.322834645669293 30.322834645669293 30.322834645669293 30.322834645669293 30.322834645669293 30.322834645669293 30.322834645669293 30.322834645669293 30.322834645669293 30.322834645669293 30.322834645669293 30.322834645669293 30.322834645669293 30.322834645669293 30.322834645669293 30.322834645669293 30.322834645669293 30.322834645669293 30.29207104925838 30.29207104925838 30.322834645669293 30.29207104925838 30.322834645669293 30.322834645669293 30.322834645669293 30.322834645669293 30.322834645669293 30.29207104925838 30.322834645669293 30.322834645669293 30.322834645669293 30.322834645669293 30.322834645669293 30.322834645669293 30.322834645669293 30.322834645669293 30.322834645669293 30.322834645669293 30.322834645669293 30.322834645669293 30.322834645669293 30.322834645669293 30.322834645669293 30.322834645669293 30.322834645669293 30.322834645669293 30.322834645669293 30.322834645669293 30.322834645669293 30.322834645669293 30.322834645669293 30.322834645669293 30.322834645669293 30.322834645669293 30.322834645669293 30.322834645669293 30.322834645669293 30.322834645669293 30.322834645669293 30.322834645669293 30.322834645669293 30.322834645669293 30.322834645669293 30.322834645669293 30.322834645669293 30.322834645669293 30.322834645669293 30.322834645669293 30.322834645669293 30.322834645669293 30.322834645669293 30.322834645669293 30.322834645669293 30.322834645669293 30.322834645669293 30.322834645669293 30.322834645669293 30.322834645669293 30.322834645669293 30.322834645669293 30.322834645669293 30.322834645669293 30.322834645669293 30.322834645669293 30.322834645669293 30.322834645669293 30.322834645669293 30.322834645669293 30.322834645669293 30.322834645669293 30.322834645669293 30.322834645669293 30.322834645669293 30.322834645669293 30.322834645669293 30.322834645669293 30.322834645669293 30.322834645669293 30.322834645669293 30.322834645669293 30.322834645669293 30.322834645669293 30.322834645669293 30.322834645669293 30.322834645669293 30.322834645669293 30.322834645669293 30.322834645669293 30.322834645669293 30.322834645669293 30.322834645669293 30.322834645669293 30.322834645669293 30.322834645669293 30.322834645669293 30.322834645669293 30.322834645669293 30.322834645669293 30.353598242080206 30.353598242080206 30.353598242080206 30.353598242080206 30.353598242080206 30.353598242080206 30.353598242080206 30.353598242080206 30.38436183849112 30.353598242080206 30.38436183849112 30.415125434902034 30.415125434902034 30.445889031312948 30.47665262772386 30.507416224134772 30.507416224134772 30.538179820545686 30.599707013367514 30.630470609778428 30.66123420618934 30.72276139901117 30.81505218824391 30.87657938106574 30.96887017029848 31.091924555942136 31.27650613440762 31.399560520051274 31.55337850210584 31.676432887749495 31.830250869804065 32.07635964109137 32.1378868339132 32.260941219556855 32.414759201611425 32.568577183665994 32.75315876213148 33.0300311298297 33.12232191906244 33.42995788317158 33.614539461637065 33.79912104010255 34.16828419703351 34.44515656473173 34.72202893242996 35.06042849295001 35.27577366782641 35.61417322834646 35.89104559604468 36.198681560153815 36.56784471708478 36.84471708478301 37.24464383812489 37.64457059146676 37.9522065555759 38.44442409815052 38.81358725508149 39.18275041201245 39.644204358176154 39.982603918696206 40.6286394433254 40.936275407434536 41.42849295000916 41.88994689617286 42.22834645669291 42.53598242080205 43.15125434902033 43.581944698773114 43.981871452114994 44.32027101263505 44.96630653726424 45.30470609778429 45.67386925471526 46.196850393700785 46.68906793627541 47.02746749679545 47.550448635780995 47.91961179271196 48.411829335286576 49.08862845632668 49.427028016846734 49.76542757736678 50.22688152353049 50.56528108405054 51.05749862662516 51.54971616919978 52.07269730818531 52.56491485075993 52.9340780076909 53.45705914667643 53.76469511078557 54.13385826771653 54.841420985167545 55.24134773850943 55.73356528108405 56.25654642006958 56.59494598058963 57.302508698040654 57.6409082585607 58.010071415491666 58.50228895806629 58.87145211499725 59.363669657571876 59.978941585790146 60.3173411463102 60.778795092473906 61.055667460172124 61.36330342428126 61.76323017762314 62.13239333455411 62.68613806995056 63.14759201611426 63.48599157663431 64.07049990844168 64.40889946896172 64.71653543307087 65.11646218641275 65.45486174693279 65.88555209668559 66.31624244643838 66.62387841054752 67.05456876030031 67.36220472440945 67.73136788134042 68.10053103827138 68.3774034059696 68.71580296648965 68.99267533418788 69.300311298297 69.57718366599524 69.66947445522797 69.91558322651528 70.22321919062442 70.377037172679 70.59238234755539 70.77696392602087 70.90001831166452 71.05383629371909 71.17689067936274 71.2999450650064 71.36147225782824 71.39223585423915 71.42299945065005 71.42299945065005 71.45376304706097 71.42299945065005 71.45376304706097 71.45376304706097 71.42299945065005 71.42299945065005 71.36147225782824 71.36147225782824 71.33070866141732 71.2999450650064 71.2999450650064 71.26918146859549 71.26918146859549 71.26918146859549 71.26918146859549 71.26918146859549 71.26918146859549 71.26918146859549 71.26918146859549 71.26918146859549 71.26918146859549 71.23841787218458 71.23841787218458 71.23841787218458 71.20765427577366 71.17689067936274 71.14612708295184 71.11536348654093 71.11536348654093 71.11536348654093 71.08459989013001 71.08459989013001 71.08459989013001 71.08459989013001 71.08459989013001 71.08459989013001 71.08459989013001 71.05383629371909 71.05383629371909 71.08459989013001 71.05383629371909 71.08459989013001 71.08459989013001 71.08459989013001 71.08459989013001 71.08459989013001 71.08459989013001 71.08459989013001 71.11536348654093 71.08459989013001 71.08459989013001 71.08459989013001 71.08459989013001 71.08459989013001 71.08459989013001 71.08459989013001 71.11536348654093 71.11536348654093 71.11536348654093 71.11536348654093 71.08459989013001 71.11536348654093 71.08459989013001 71.05383629371909 70.99230910089727 70.96154550448635 70.93078190807545 70.90001831166452 70.86925471525362 70.86925471525362 70.86925471525362 70.8384911188427 70.86925471525362 70.86925471525362 70.86925471525362 70.86925471525362 70.86925471525362 70.86925471525362 70.86925471525362 70.86925471525362 70.90001831166452 70.90001831166452 70.90001831166452 70.90001831166452 70.90001831166452 70.90001831166452 70.90001831166452 70.90001831166452 70.90001831166452 70.86925471525362 70.90001831166452 70.90001831166452 70.86925471525362 70.86925471525362 70.86925471525362 70.86925471525362 70.86925471525362 70.90001831166452 70.86925471525362 70.86925471525362 70.86925471525362 70.86925471525362 70.86925471525362 70.86925471525362 70.86925471525362 70.86925471525362 70.86925471525362 70.86925471525362 70.86925471525362 70.86925471525362 70.86925471525362 70.86925471525362 70.86925471525362 70.86925471525362 70.86925471525362 70.86925471525362 70.90001831166452 70.86925471525362 70.86925471525362 70.86925471525362 70.86925471525362 70.86925471525362 70.86925471525362 70.86925471525362 70.86925471525362 70.86925471525362 70.86925471525362 70.86925471525362 70.86925471525362 70.86925471525362 70.86925471525362 70.86925471525362 70.86925471525362 70.86925471525362 70.86925471525362 70.86925471525362 70.86925471525362 70.86925471525362 70.86925471525362 70.86925471525362 70.86925471525362 70.86925471525362 70.86925471525362 70.86925471525362 70.86925471525362 70.86925471525362 70.86925471525362 70.86925471525362 70.86925471525362 70.86925471525362 70.86925471525362 70.86925471525362 70.86925471525362 70.86925471525362 70.86925471525362 70.86925471525362 70.86925471525362 70.86925471525362 70.86925471525362 70.86925471525362 70.86925471525362 70.86925471525362 70.86925471525362 70.86925471525362 70.86925471525362 70.86925471525362 70.86925471525362 70.86925471525362 70.86925471525362 70.86925471525362 70.86925471525362 70.86925471525362 70.86925471525362 70.86925471525362 70.86925471525362 70.86925471525362 70.86925471525362 70.86925471525362 70.86925471525362 70.86925471525362 70.86925471525362 70.86925471525362 70.8384911188427 70.86925471525362 70.86925471525362 70.86925471525362 70.86925471525362 70.86925471525362 70.8384911188427 70.8384911188427 70.86925471525362 70.86925471525362 70.8384911188427 70.8384911188427 70.86925471525362 70.86925471525362 70.86925471525362 70.86925471525362 70.86925471525362 70.86925471525362 70.86925471525362 70.86925471525362 70.86925471525362 70.86925471525362 70.86925471525362 70.8384911188427 70.86925471525362 70.86925471525362 70.8384911188427 70.8384911188427 70.8384911188427 70.8384911188427 70.8384911188427 70.8384911188427 70.8384911188427 70.8384911188427 70.8384911188427 70.8384911188427 70.8384911188427 70.8384911188427 70.8384911188427 70.8384911188427 70.8384911188427 70.86925471525362 70.8384911188427 70.86925471525362 70.8384911188427 70.86925471525362 70.8384911188427 70.8384911188427 70.86925471525362 70.8384911188427 70.8384911188427 70.8384911188427 70.8384911188427 70.8384911188427 70.8384911188427 70.8384911188427 70.8384911188427 70.8384911188427 70.8384911188427 70.86925471525362 70.8384911188427 70.8384911188427 70.8384911188427 70.86925471525362 70.86925471525362 70.86925471525362 70.86925471525362 70.86925471525362 70.86925471525362 70.86925471525362 70.86925471525362 70.86925471525362 70.86925471525362 70.86925471525362 70.86925471525362 70.86925471525362 70.86925471525362 70.86925471525362 70.86925471525362 70.86925471525362 70.86925471525362 70.86925471525362 70.86925471525362 70.86925471525362 70.86925471525362 70.86925471525362 70.86925471525362 70.86925471525362 70.86925471525362 70.86925471525362 70.86925471525362 70.86925471525362 70.86925471525362 70.86925471525362 70.86925471525362 70.86925471525362 70.90001831166452 70.93078190807545 70.93078190807545 70.96154550448635 70.99230910089727 70.99230910089727 71.02307269730818 71.02307269730818 71.02307269730818 70.99230910089727 71.02307269730818 71.02307269730818 71.02307269730818 70.99230910089727 71.02307269730818 71.02307269730818 70.99230910089727 70.99230910089727 70.99230910089727 70.99230910089727 70.99230910089727 70.99230910089727 70.99230910089727 70.99230910089727 70.99230910089727 70.99230910089727 70.99230910089727 70.99230910089727 70.99230910089727 70.99230910089727 70.99230910089727 70.99230910089727 70.99230910089727 70.99230910089727 70.99230910089727 70.99230910089727 70.99230910089727 70.99230910089727 70.99230910089727 70.99230910089727 70.99230910089727 70.99230910089727 70.99230910089727 70.99230910089727 70.99230910089727 70.99230910089727 70.99230910089727 70.99230910089727 70.99230910089727 70.99230910089727 70.99230910089727 70.96154550448635 70.93078190807545 70.90001831166452 70.86925471525362 70.86925471525362 70.86925471525362 70.8384911188427 70.8384911188427 70.80772752243178 70.80772752243178 70.77696392602087 70.74620032960996 70.71543673319906 70.65390954037721 70.56161875114448 70.56161875114448 70.50009155832265 70.4078007690899 70.31550997985717 70.22321919062442 70.06940120856986 69.9463468229262 69.82329243728255 69.73100164804981 69.60794726240616 69.45412928035158 69.23878410547519 69.05420252700969 68.8388573521333 68.71580296648965 68.50045779161326 68.3774034059696 68.19282182750412 67.94671305621681 67.73136788134042 67.51602270646401 67.2699139351767 67.08533235671122 66.71616919978025 66.53158762131477 66.37776963926021 66.10089727156199 65.9163156930965 65.67020692180918 65.42409815052187 65.11646218641275 64.80882622230361 64.59348104742722 64.37813587255081 63.85515473356528 63.54751876945614 63.11682841970335 62.68613806995056 62.409265702252334 61.97857535249954 61.6709393883904 61.20948544222669 60.74803149606299 60.40963193554294 59.91741439296832 59.425196850393704 59.05603369346274 58.317707379600805 58.13312580113532 57.6409082585607 57.14869071598608 56.77952755905512 56.225782823658676 55.67203808826222 55.33363852774217 54.59531221388024 54.13385826771653 53.79545870719648 53.026368796923634 52.59567844717085 51.91887932613075 51.488188976377955 50.842153451748764 50.19611792711957 49.642373191723124 48.873283281450284 48.104193371177445 47.5812122321919 46.965940303973625 46.504486357809924 45.643105658304336 45.181651712140635 44.781724958798755 44.227980223402305 43.67423548800586 43.305072331074896 42.659036806445705 42.35140084233657 41.92071049258377 41.490020142830986 41.18238417872185 40.90551181102362 40.35176707562717 40.07489470792895 39.61344076176525 39.275041201245195 38.8443508514924 38.35213330891778 37.82915216993224 37.306171030946714 36.87548068119392 36.506317524262954 36.01409998168833 35.64493682475737 34.90661051089544 34.383629371909905 34.01446621497894 33.58377586522615 33.2453763047061 32.99926753341879 32.69163156930965 32.53781358725508 32.3532320087896 32.23017762314594 32.1378868339132 32.04559604468046 31.95330525544772 31.86101446621498 31.768723676982237 31.676432887749495 31.64566929133858 31.614905694927668 31.55337850210584 31.522614905694926 31.461087712873102 31.430324116462188 31.36879692364036 31.307269730818533 31.245742537996705 31.12268815235305 31.12268815235305 31.091924555942136 31.030397363120308 31.030397363120308 30.907342977476652 30.845815784654825 30.691997802600255 30.5689434169566 30.538179820545686 30.507416224134772 30.47665262772386 30.445889031312948 30.415125434902034 30.38436183849112 30.353598242080206 30.322834645669293 30.322834645669293 30.29207104925838 30.261307452847465 30.261307452847465 30.261307452847465 30.23054385643655 30.23054385643655 30.23054385643655 30.23054385643655 30.199780260025637 30.199780260025637 30.169016663614723 30.169016663614723 30.169016663614723 30.13825306720381 30.107489470792896 30.107489470792896 30.107489470792896 30.107489470792896 30.07672587438198 30.07672587438198 30.07672587438198 30.07672587438198 30.07672587438198 30.07672587438198 30.07672587438198 30.07672587438198 30.07672587438198 30.07672587438198 30.07672587438198 30.07672587438198 30.045962277971068 30.045962277971068 30.07672587438198 30.045962277971068 30.045962277971068 30.045962277971068 30.045962277971068 30.07672587438198 30.045962277971068 30.045962277971068 30.045962277971068 30.045962277971068 30.045962277971068 30.045962277971068 30.045962277971068 30.045962277971068 30.045962277971068 30.045962277971068 30.045962277971068 30.045962277971068 30.045962277971068 30.045962277971068 30.045962277971068 30.045962277971068 30.045962277971068 30.045962277971068 30.045962277971068 30.045962277971068 30.045962277971068 30.045962277971068 30.045962277971068 30.045962277971068 30.045962277971068 30.045962277971068 30.045962277971068 30.045962277971068 30.045962277971068 30.045962277971068 30.045962277971068 30.045962277971068 30.045962277971068 30.045962277971068 30.045962277971068 30.045962277971068 30.045962277971068 30.045962277971068 30.045962277971068 30.045962277971068 30.045962277971068 30.045962277971068 30.045962277971068 30.045962277971068 30.045962277971068 30.045962277971068 30.045962277971068 30.045962277971068 30.045962277971068 30.045962277971068 30.045962277971068 30.045962277971068 30.045962277971068 30.045962277971068 30.045962277971068 30.045962277971068 30.045962277971068 30.045962277971068 30.045962277971068 30.045962277971068 30.045962277971068 30.045962277971068 30.045962277971068 30.045962277971068 30.045962277971068 30.07672587438198 30.07672587438198 30.045962277971068 30.045962277971068 30.045962277971068 30.045962277971068 30.07672587438198 30.045962277971068 30.045962277971068 30.045962277971068 30.07672587438198 30.045962277971068 30.045962277971068 30.07672587438198 30.045962277971068 30.045962277971068 30.045962277971068 30.045962277971068 30.045962277971068 30.045962277971068 30.045962277971068 30.045962277971068 30.045962277971068 30.07672587438198 30.045962277971068 30.045962277971068 30.045962277971068 30.045962277971068 30.045962277971068 30.045962277971068 30.045962277971068 30.045962277971068 30.045962277971068 30.045962277971068 30.045962277971068 30.045962277971068 30.045962277971068 30.045962277971068 30.045962277971068 30.045962277971068 30.045962277971068 30.045962277971068 30.07672587438198 30.045962277971068 30.045962277971068 30.07672587438198 30.07672587438198 30.07672587438198 30.07672587438198 30.045962277971068 30.045962277971068 30.045962277971068 30.045962277971068 30.045962277971068 30.045962277971068 30.045962277971068 30.07672587438198 30.045962277971068 30.07672587438198 30.045962277971068 30.045962277971068 30.07672587438198 30.045962277971068 30.07672587438198 30.045962277971068 30.07672587438198 30.045962277971068 30.045962277971068 30.045962277971068 30.07672587438198 30.045962277971068 30.045962277971068 30.045962277971068 30.045962277971068 30.07672587438198 30.045962277971068 30.07672587438198 30.045962277971068 30.07672587438198 30.07672587438198 30.045962277971068 30.045962277971068 30.07672587438198 30.045962277971068 30.07672587438198 30.045962277971068 30.07672587438198 30.045962277971068 30.045962277971068 30.045962277971068 30.045962277971068 30.045962277971068 30.045962277971068 30.045962277971068 30.045962277971068 30.045962277971068 30.045962277971068 30.045962277971068 30.045962277971068 30.07672587438198 30.07672587438198 30.07672587438198 30.07672587438198 30.045962277971068 30.045962277971068 30.045962277971068 30.045962277971068 30.045962277971068 30.045962277971068 30.07672587438198 30.07672587438198 30.07672587438198 30.07672587438198 30.07672587438198 30.07672587438198 30.07672587438198 30.07672587438198 30.07672587438198 30.07672587438198 30.107489470792896 30.107489470792896 30.107489470792896 30.107489470792896 30.13825306720381 30.13825306720381 30.13825306720381 30.13825306720381 30.13825306720381 30.13825306720381 30.13825306720381 30.13825306720381 30.13825306720381 30.13825306720381 30.13825306720381 30.13825306720381 30.13825306720381 30.13825306720381 30.13825306720381 30.169016663614723 30.169016663614723 30.169016663614723 30.169016663614723 30.13825306720381 30.13825306720381 30.13825306720381 30.169016663614723 30.13825306720381 30.169016663614723 30.169016663614723 30.169016663614723 30.169016663614723 30.169016663614723 30.169016663614723 30.169016663614723 30.169016663614723 30.169016663614723 30.169016663614723 30.169016663614723 30.169016663614723 30.169016663614723 30.169016663614723 30.169016663614723 30.169016663614723 30.169016663614723 30.169016663614723 30.199780260025637 30.199780260025637 30.199780260025637 30.199780260025637 30.23054385643655 30.261307452847465 30.261307452847465 30.29207104925838 30.322834645669293 30.322834645669293 30.353598242080206 30.353598242080206 30.38436183849112 30.415125434902034 30.445889031312948 30.47665262772386 30.538179820545686 30.5689434169566 30.630470609778428 30.72276139901117 30.784288591832997 30.938106573887566 31.030397363120308 31.21497894158579 31.399560520051274 31.461087712873102 31.584142098516754 31.737960080571323 31.830250869804065 31.891778062625892 31.922541659036806 31.984068851858634 32.107123237502286 32.19941402673503 32.29170481596777 32.44552279802234 32.53781358725508 32.69163156930965 32.78392235854239 32.93774034059696 33.060794726240616 33.12232191906244 33.2453763047061 33.42995788317158 33.522248672404324 33.67606665445889 33.79912104010255 34.01446621497894 34.26057498626625 34.44515656473173 34.629738143197216 34.90661051089544 35.09119208936092 35.36806445705915 35.583409631935545 35.89104559604468 36.22944515656473 36.47555392785204 36.998535066837576 37.21388024171397 37.459989013001284 37.98297015198681 38.25984251968504 38.721296465848745 39.121223219190625 39.45962277971067 39.95184032228529 40.444057864859914 40.78245742537997 41.27467496795458 41.64383812488555 42.16681926387108 42.72056399926753 43.15125434902033 43.612708295184035 44.135689434169564 44.4433253982787 44.84325215162058 45.15088811572972 45.67386925471526 46.043032411646216 46.31990477934444 46.53524995422084 46.81212232191906 47.1197582860282 47.550448635780995 47.7965574070683 48.13495696758835 48.473356528108404 48.719465299395715 49.119392052737595 49.27321003479216 49.79619117377769 50.22688152353049 50.4729902948178 50.842153451748764 51.242080205090645 51.64200695843252 52.103460904596226 52.411096868705364 52.718732832814496 53.24171397180004 53.54934993590917 54.10309467130563 54.56454861746933 54.90294817798937 55.395165720563995 55.73356528108405 56.01043764878227 56.656473173411456 56.964109137520595 57.4255630836843 57.8562534334371 58.163889397546235 58.59457974729903 58.90221571140816 59.363669657571876 59.82512360373558 60.132759567844715 60.62497711041934 61.11719465299395 61.547885002746746 62.13239333455411 62.47079289507416 62.77842885918329 63.239882805347 63.60904596227797 63.978209119208934 64.53195385460538 64.80882622230361 65.20875297564548 65.45486174693279 65.7009705182201 66.1624244643838 66.50082402490386 66.71616919978025 67.02380516388939 67.2699139351767 67.54678630287492 67.73136788134042 67.97747665262773 68.19282182750412 68.3466398095587 68.53122138802416 68.65427577366782 68.77733015931148 68.90038454495513 69.02343893059879 69.11572971983153 69.23878410547519 69.33107489470792 69.4848928767625 69.57718366599524 69.70023805163889 69.82329243728255 69.9463468229262 70.03863761215894 70.19245559421351 70.28474638344625 70.4078007690899 70.50009155832265 70.65390954037721 70.77696392602087 70.8384911188427 70.96154550448635 71.11536348654093 71.20765427577366 71.2999450650064 71.39223585423915 71.5152902398828 71.57681743270463 71.63834462552646 71.7306354147592 71.76139901117011 71.79216260758102 71.82292620399194 71.82292620399194 71.82292620399194 71.79216260758102 71.79216260758102 71.79216260758102 71.76139901117011 71.69987181834829 71.60758102911555 71.54605383629371 71.45376304706097 71.39223585423915 71.33070866141732 71.2999450650064 71.26918146859549 71.26918146859549 71.23841787218458 71.23841787218458 71.23841787218458 71.23841787218458 71.23841787218458 71.23841787218458 71.23841787218458 71.23841787218458 71.26918146859549 71.26918146859549 71.23841787218458 71.26918146859549 71.26918146859549 71.26918146859549 71.26918146859549 71.26918146859549 71.26918146859549 71.26918146859549 71.26918146859549 71.26918146859549 71.23841787218458 71.23841787218458 71.23841787218458 71.23841787218458 71.23841787218458 71.23841787218458 71.23841787218458 71.23841787218458 71.23841787218458 71.23841787218458 71.23841787218458 71.23841787218458 71.23841787218458 71.23841787218458 71.23841787218458 71.23841787218458 71.26918146859549 71.23841787218458 71.23841787218458 71.26918146859549 71.23841787218458 71.23841787218458 71.23841787218458 71.23841787218458 71.23841787218458 71.23841787218458 71.23841787218458 71.26918146859549 71.26918146859549 71.23841787218458 71.26918146859549 71.23841787218458 71.23841787218458 71.23841787218458 71.23841787218458 71.23841787218458 71.23841787218458 71.23841787218458 71.23841787218458 71.23841787218458 71.23841787218458 71.23841787218458 71.23841787218458 71.23841787218458 71.23841787218458 71.23841787218458 71.23841787218458 71.23841787218458 71.23841787218458 71.23841787218458 71.23841787218458 71.23841787218458 71.23841787218458 71.23841787218458 71.23841787218458 71.23841787218458 71.23841787218458 71.23841787218458 71.23841787218458 71.23841787218458 71.23841787218458 71.23841787218458 71.23841787218458 71.23841787218458 71.23841787218458 71.23841787218458 71.23841787218458 71.23841787218458 71.23841787218458 71.23841787218458 71.23841787218458 71.23841787218458 71.23841787218458 71.23841787218458 71.23841787218458 71.23841787218458 71.23841787218458 71.23841787218458 71.23841787218458 71.23841787218458 71.23841787218458 71.23841787218458 71.23841787218458 71.23841787218458 71.23841787218458 71.23841787218458 71.23841787218458 71.23841787218458 71.23841787218458 71.23841787218458 71.23841787218458 71.23841787218458 71.23841787218458 71.23841787218458 71.23841787218458 71.20765427577366 71.17689067936274 71.11536348654093 71.11536348654093 71.11536348654093 71.08459989013001 71.08459989013001 71.08459989013001 71.11536348654093 71.11536348654093 71.11536348654093 71.11536348654093 71.11536348654093 71.11536348654093 71.11536348654093 71.11536348654093 71.11536348654093 71.11536348654093 71.11536348654093 71.14612708295184 71.11536348654093 71.11536348654093 71.11536348654093 71.11536348654093 71.11536348654093 71.11536348654093 71.08459989013001 71.05383629371909 70.99230910089727 70.99230910089727 70.93078190807545 70.8384911188427 70.80772752243178 70.77696392602087 70.74620032960996 70.74620032960996 70.71543673319906 70.68467313678812 70.68467313678812 70.68467313678812 70.71543673319906 70.68467313678812 70.71543673319906 70.68467313678812 70.68467313678812 70.71543673319906 70.68467313678812 70.71543673319906 70.71543673319906 70.71543673319906 70.71543673319906 70.71543673319906 70.74620032960996 70.71543673319906 70.74620032960996 70.74620032960996 70.74620032960996 70.74620032960996 70.74620032960996 70.74620032960996 70.71543673319906 70.74620032960996 70.74620032960996 70.74620032960996 70.74620032960996 70.74620032960996 70.74620032960996 70.74620032960996 70.71543673319906 70.74620032960996 70.74620032960996 70.74620032960996 70.74620032960996 70.74620032960996 70.74620032960996 70.74620032960996 70.74620032960996 70.74620032960996 70.74620032960996 70.74620032960996 70.74620032960996 70.74620032960996 70.74620032960996 70.74620032960996 70.74620032960996 70.74620032960996 70.74620032960996 70.74620032960996 70.71543673319906 70.74620032960996 70.71543673319906 70.68467313678812 70.65390954037721 70.6231459439663 70.56161875114448 70.53085515473356 70.46932796191174 70.377037172679 70.28474638344625 70.19245559421351 70.10016480498078 70.00787401574803 69.91558322651528 69.79252884087163 69.63871085881706 69.45412928035158 69.36183849111885 69.23878410547519 69.11572971983153 68.99267533418788 68.77733015931148 68.68503937007873 68.56198498443507 68.43893059879143 68.3466398095587 68.13129463468229 67.94671305621681 67.76213147775132 67.57754989928584 67.42373191723127 67.2391503387658 66.96227797106756 66.5931148141366 66.19318806079472 65.76249771104193 65.39333455411096 64.80882622230361 64.25508148690716 63.79362754074345 63.17835561252517 62.74766526277239 62.07086614173228 61.45559421351401 60.96337667093938 60.3173411463102 59.64054202527009 58.96374290422999 58.47152536165537 57.97930781908075 57.210217908807905 56.502655191356894 55.70280168467313 54.99523896722212 54.5030214246475 53.980040285661964 53.08789598974546 52.47262406152719 51.826588536898 51.08826222303607 50.56528108405054 49.82695477018861 49.30397363120308 48.65793810657389 47.98113898553378 47.550448635780995 46.965940303973625 46.350668375755355 45.950741622413474 45.36623329060612 44.75096136238784 44.381798205456874 43.828053470060425 43.45889031312946 42.78209119208936 42.44369163156931 42.105292071049256 41.459256546420065 41.05932979307819 40.72093023255814 40.01336751510712 39.61344076176525 39.15198681560154 38.629005676616 38.25984251968504 37.70609778428859 37.33693462735763 36.78318989196118 36.198681560153815 35.79875480681194 35.21424647500458 34.66050173960813 34.10675700421168 33.67606665445889 33.55301226881524 33.27613990111701 32.93774034059696 32.69163156930965 32.38399560520051 32.168650430324114 31.984068851858634 31.79948727339315 31.676432887749495 31.55337850210584 31.36879692364036 31.27650613440762 31.184215345174877 31.12268815235305 31.12268815235305 31.06116095953122 30.999633766709394 30.96887017029848 30.96887017029848 30.96887017029848 30.96887017029848 30.96887017029848 30.907342977476652 30.845815784654825 30.753524995422083 30.691997802600255 30.66123420618934 30.630470609778428 30.599707013367514 30.5689434169566 30.507416224134772 30.47665262772386 30.445889031312948 30.445889031312948 30.415125434902034 30.38436183849112 30.353598242080206 30.322834645669293 30.29207104925838 30.29207104925838 30.261307452847465 30.261307452847465 30.23054385643655 30.23054385643655 30.199780260025637 30.199780260025637 30.169016663614723 30.13825306720381 30.13825306720381 30.107489470792896 30.07672587438198 30.045962277971068 30.045962277971068 30.045962277971068 30.015198681560154 29.98443508514924 29.98443508514924 29.953671488738326 29.953671488738326 29.953671488738326 29.922907892327412 29.8921442959165 29.861380699505585 29.83061710309467 29.799853506683757 29.769089910272843 29.73832631386193 29.73832631386193 29.707562717451015 29.6767991210401 29.6767991210401 29.6767991210401 29.646035524629188 29.646035524629188 29.646035524629188 29.646035524629188 29.646035524629188 29.646035524629188 29.646035524629188 29.646035524629188 29.646035524629188 29.646035524629188 29.646035524629188 29.646035524629188 29.646035524629188 29.646035524629188 29.646035524629188 29.646035524629188 29.646035524629188 29.646035524629188 29.646035524629188 29.646035524629188 29.646035524629188 29.646035524629188 29.646035524629188 29.646035524629188 29.646035524629188 29.646035524629188 29.646035524629188 29.646035524629188 29.646035524629188 29.646035524629188 29.646035524629188 29.646035524629188 29.646035524629188 29.646035524629188 29.646035524629188 29.646035524629188 29.646035524629188 29.646035524629188 29.646035524629188 29.646035524629188 29.646035524629188 29.646035524629188 29.646035524629188 29.646035524629188 29.646035524629188 29.646035524629188 29.646035524629188 29.646035524629188 29.646035524629188 29.646035524629188 29.646035524629188 29.646035524629188 29.646035524629188 29.646035524629188 29.646035524629188 29.646035524629188 29.646035524629188 29.646035524629188 29.646035524629188 29.646035524629188 29.646035524629188 29.646035524629188 29.646035524629188 29.646035524629188 29.646035524629188 29.646035524629188 29.646035524629188 29.646035524629188 29.646035524629188 29.646035524629188 29.646035524629188 29.646035524629188 29.646035524629188 29.646035524629188 29.646035524629188 29.646035524629188 29.646035524629188 29.646035524629188 29.646035524629188 29.646035524629188 29.646035524629188 29.646035524629188 29.646035524629188 29.646035524629188 29.646035524629188 29.646035524629188 29.646035524629188 29.646035524629188 29.646035524629188 29.646035524629188 29.646035524629188 29.646035524629188 29.646035524629188 29.646035524629188 29.646035524629188 29.6767991210401 29.646035524629188 29.646035524629188 29.646035524629188 29.6767991210401 29.646035524629188 29.646035524629188 29.646035524629188 29.646035524629188 29.646035524629188 29.6767991210401 29.646035524629188 29.646035524629188 29.646035524629188 29.646035524629188 29.646035524629188 29.6767991210401 29.646035524629188 29.646035524629188 29.646035524629188 29.6767991210401 29.6767991210401 29.6767991210401 29.6767991210401 29.6767991210401 29.6767991210401 29.6767991210401 29.6767991210401 29.6767991210401 29.6767991210401 29.6767991210401 29.6767991210401 29.707562717451015 29.707562717451015 29.707562717451015 29.707562717451015 29.707562717451015 29.707562717451015 29.707562717451015 29.707562717451015 29.707562717451015 29.707562717451015 29.73832631386193 29.73832631386193 29.73832631386193 29.73832631386193 29.73832631386193 29.73832631386193 29.73832631386193 29.73832631386193 29.73832631386193 29.73832631386193 29.769089910272843 29.769089910272843 29.799853506683757 29.799853506683757 29.83061710309467 29.83061710309467 29.83061710309467 29.861380699505585 29.861380699505585 29.8921442959165 29.8921442959165 29.8921442959165 29.922907892327412 29.953671488738326 30.015198681560154 30.015198681560154 30.07672587438198 30.107489470792896 30.107489470792896 30.169016663614723 30.23054385643655 30.261307452847465 30.322834645669293 30.38436183849112 30.415125434902034 30.445889031312948 30.507416224134772 30.507416224134772 30.5689434169566 30.599707013367514 30.630470609778428 30.66123420618934 30.72276139901117 30.81505218824391 30.845815784654825 30.938106573887566 31.030397363120308 31.153451748763963 31.430324116462188 31.614905694927668 31.79948727339315 31.922541659036806 32.04559604468046 32.29170481596777 32.414759201611425 32.59934078007691 32.75315876213148 32.93774034059696 33.18384911188427 33.33766709393884 33.55301226881524 33.79912104010255 34.04522981138985 34.29133858267716 34.56821095037539 35.029664896539096 35.491118842702804 36.044863578099246 36.444790331441126 36.93700787401575 37.36769822376854 38.10602453763047 38.475187694561434 38.81358725508149 39.39809558688884 39.70573155099798 39.982603918696206 40.536348654092656 40.843984618201794 41.243911371543675 41.55154733565281 41.9822376854056 42.44369163156931 42.78209119208936 43.305072331074896 43.7665262772386 44.25874381981322 44.72019776597693 45.05859732649698 45.82768723676982 46.41219556857718 46.658304339864486 47.42739425013734 47.82732100347921 48.22724775682109 48.99633766709394 49.39626442043581 50.134590734297745 50.4729902948178 50.842153451748764 51.33437099432338 51.85735213330892 52.22651529023988 52.62644204358176 52.9340780076909 53.33400476103277 53.826222303607395 