29.0 29.0 29.0 29.0 29.030763596410914 29.0 29.0 29.0 29.0 29.0 29.0 29.0 29.0 29.0 29.030763596410914 29.0 29.0 29.0 29.0 29.0 29.0 29.0 29.030763596410914 29.0 29.0 29.030763596410914 29.0 29.0 29.0 29.0 29.0 29.0 29.030763596410914 29.0 29.0 29.0 29.0 29.0 29.0 29.030763596410914 29.0 29.0 29.0 29.0 29.0 29.0 29.0 29.0 29.0 29.0 29.0 29.030763596410914 29.0 29.0 29.0 29.0 29.0 29.0 29.0 29.0 29.0 29.0 29.0 29.030763596410914 29.0 29.0 29.0 29.0 29.0 29.030763596410914 29.0 29.0 29.0 29.0 29.030763596410914 29.0 29.030763596410914 29.0 29.0 29.030763596410914 29.0 29.0 29.0 29.030763596410914 29.0 29.0 29.0 29.0 29.0 29.030763596410914 29.0 29.0 29.0 29.0 29.0 29.030763596410914 29.0 29.0 29.0 29.0 29.0 29.0 29.0 29.0 29.0 29.0 29.0 29.030763596410914 29.0 29.0 29.0 29.030763596410914 29.0 29.0 29.0 29.0 29.0 29.0 29.0 29.0 29.0 29.0 29.0 29.0 29.0 29.0 29.0 29.0 29.0 29.0 29.0 29.0 29.0 29.0 29.0 29.0 29.0 29.0 29.0 29.0 29.0 29.0 29.0 29.0 29.0 29.0 29.0 29.0 29.0 29.0 29.030763596410914 29.0 29.0 29.030763596410914 29.0 29.0 29.0 29.0 29.0 29.0 29.0 29.030763596410914 29.0 29.0 29.0 29.030763596410914 29.0 29.0 29.0 29.0 29.0 29.0 29.0 29.0 29.0 29.0 29.030763596410914 29.0 29.0 29.0 29.0 29.0 29.030763596410914 29.0 29.0 29.0 29.0 29.0 29.0 29.0 29.0 29.0 29.030763596410914 29.030763596410914 29.0 29.0 29.0 29.0 29.0 29.0 29.0 29.0 29.0 29.0 29.0 29.030763596410914 29.0 29.0 29.0 29.0 29.0 29.0 29.0 29.0 29.030763596410914 29.0 29.0 29.0 29.0 29.0 29.0 29.030763596410914 29.0 29.0 29.0 29.0 29.0 29.0 29.0 29.0 29.0 29.0 29.0 29.0 29.0 29.0 29.0 29.0 29.0 29.0 29.0 29.0 29.0 29.030763596410914 29.0 29.0 29.0 29.0 29.0 29.0 29.0 29.0 29.0 29.030763596410914 29.0 29.0 29.0 29.0 29.0 29.030763596410914 29.0 29.0 29.0 29.030763596410914 29.0 29.0 29.0 29.0 29.0 29.0 29.0 29.0 29.0 29.0 29.0 29.0 29.0 29.0 29.0 29.0 29.0 29.030763596410914 29.0 29.0 29.0 29.0 29.0 29.0 29.0 29.0 29.0 29.0 29.030763596410914 29.0 29.0 29.0 29.0 29.0 29.0 29.030763596410914 29.0 29.0 29.0 29.0 29.0 29.0 29.0 29.030763596410914 29.0 29.0 29.0 29.0 29.030763596410914 29.0 29.0 29.030763596410914 29.0 29.030763596410914 29.0 29.0 29.0 29.030763596410914 29.0 29.0 29.030763596410914 29.0 29.0 29.0 29.0 29.0 29.0 29.030763596410914 29.0 29.0 29.0 29.030763596410914 29.0 29.0 29.0 29.0 29.0 29.0 29.0 29.0 29.0 29.0 29.0 29.030763596410914 29.030763596410914 29.0 29.0 29.0 29.0 29.0 29.0 29.0 29.0 29.0 29.030763596410914 29.0 29.0 29.0 29.030763596410914 29.0 29.0 29.0 29.0 29.0 29.0 29.0 29.0 29.0 29.0 29.0 29.0 29.0 29.0 29.030763596410914 29.0 29.0 29.0 29.0 29.0 29.0 29.0 29.0 29.0 29.0 29.0 29.0 29.0 29.0 29.0 29.0 29.0 29.0 29.0 29.0 29.0 29.0 29.0 29.0 29.0 29.0 29.0 29.0 29.0 29.030763596410914 29.0 29.0 29.0 29.030763596410914 29.0 29.0 29.0 29.0 29.030763596410914 29.0 29.0 29.0 29.0 29.0 29.030763596410914 29.0 29.0 29.0 29.0 29.0 29.0 29.0 29.0 29.0 29.030763596410914 29.0 29.0 29.0 29.0 29.0 29.0 29.0 29.0 29.0 29.0 29.0 29.0 29.0 29.030763596410914 29.0 29.0 29.0 29.0 29.0 29.0 29.0 29.030763596410914 29.0 29.0 29.0 29.030763596410914 29.0 29.0 29.0 29.0 29.0 29.0 29.0 29.0 29.0 29.0 29.0 29.0 29.0 29.0 29.030763596410914 29.0 29.0 29.0 29.0 29.0 29.0 29.0 29.0 29.030763596410914 29.0 29.0 29.0 29.0 29.030763596410914 29.0 29.030763596410914 29.0 29.0 29.0 29.0 29.030763596410914 29.0 29.0 29.0 29.0 29.030763596410914 29.0 29.0 29.0 29.0 29.0 29.0 29.0 29.0 29.0 29.0 29.0 29.0 29.0 29.0 29.0 29.0 29.0 29.0 29.0 29.030763596410914 29.0 29.0 29.0 29.0 29.0 29.0 29.0 29.0 29.0 29.0 29.0 29.0 29.0 29.0 29.0 29.0 29.0 29.0 29.0 29.0 29.0 29.030763596410914 29.0 29.0 29.030763596410914 29.0 29.0 29.0 29.0 29.0 29.0 29.0 29.0 29.0 29.0 29.030763596410914 29.0 29.0 29.0 29.0 29.0 29.0 29.0 29.0 29.0 29.0 29.030763596410914 29.030763596410914 29.0 29.0 29.0 29.030763596410914 29.0 29.0 29.0 29.0 29.0 29.0 29.0 29.0 29.0 29.0 29.0 29.0 29.0 29.0 29.0 29.0 29.0 29.0 29.0 29.0 29.0 29.0 29.0 29.0 29.0 29.0 29.0 29.0 29.0 29.030763596410914 29.0 29.030763596410914 29.0 29.0 29.030763596410914 29.0 29.0 29.0 29.0 29.0 29.0 29.0 29.0 29.0 29.0 29.0 29.030763596410914 29.030763596410914 29.0 29.0 29.0 29.030763596410914 29.061527192821828 29.15381798205457 29.184581578465483 29.215345174876397 29.215345174876397 29.24610877128731 29.276872367698225 29.30763596410914 29.369163156930966 29.39992675334188 29.461453946163708 29.49221754257462 29.522981138985532 29.58450833180736 29.646035524629188 29.707562717451015 29.769089910272843 29.83061710309467 29.922907892327412 29.98443508514924 30.045962277971068 30.169016663614723 30.322834645669293 30.47665262772386 30.630470609778428 30.753524995422083 30.87657938106574 30.96887017029848 31.091924555942136 31.245742537996705 31.399560520051274 31.584142098516754 31.768723676982237 31.95330525544772 32.014832448269544 32.014832448269544 32.168650430324114 32.260941219556855 32.3532320087896 32.414759201611425 32.44552279802234 32.38399560520051 32.414759201611425 32.568577183665994 32.84544955136422 33.15308551547336 33.49148507599341 33.829884636513455 34.19904779344442 34.5989745467863 34.96813770371727 35.337300860648234 35.706464017579194 36.07562717451016 36.41402673503021 36.72166269913935 37.09082585607032 37.398461820179456 37.67533418787768 37.9522065555759 38.29060611609595 38.629005676616 38.93664164072514 39.18275041201245 39.428859183299764 39.644204358176154 39.890313129463465 40.22871268998352 40.444057864859914 40.72093023255814 40.90551181102362 41.12085698590002 41.36696575718733 41.55154733565281 41.82841970335103 42.105292071049256 42.28987364951474 42.53598242080205 42.68980040285662 42.905145577733016 43.0897271561985 43.274308734663975 43.45889031312946 43.612708295184035 43.85881706647134 44.04339864493682 44.227980223402305 44.59714338033327 45.05859732649698 45.30470609778429 45.643105658304336 46.0122688152353 46.350668375755355 46.596777147042665 46.904413111151804 47.39663065372642 47.82732100347921 48.165720563999265 48.565647317341146 49.119392052737595 49.30397363120308 49.642373191723124 49.888481963010435 50.2576451199414 50.596044680461446 50.87291704815968 51.27284380150155 51.488188976377955 51.85735213330892 52.103460904596226 52.31880607947262 52.65720563999267 53.14942318256729 53.42629555026552 53.85698590001831 54.16462186412745 54.56454861746933 54.872184581578466 55.087529756454856 55.33363852774217 55.641274491851306 55.82585607031679 56.01043764878227 56.13349203442593 56.441127998535066 56.59494598058963 56.68723676982238 56.841054751876946 56.994872733931516 57.117927119575164 57.302508698040654 57.39479948727339 57.73319904779344 57.88701702984801 58.04083501190259 58.28694378318989 58.563816150888115 58.71763413294268 59.086797289873644 59.27137886833913 59.51748763962644 59.76359641091375 59.85588720014648 60.07123237502289 60.25581395348837 60.34810474272111 60.47115912836477 60.53268632118659 60.62497711041934 60.62497711041934 60.62497711041934 60.655740706830244 60.62497711041934 60.655740706830244 60.62497711041934 60.62497711041934 60.62497711041934 60.594213514008416 60.594213514008416 60.53268632118659 60.50192272477568 60.47115912836477 60.40963193554294 60.378868339132026 60.34810474272111 60.3173411463102 60.3173411463102 60.3173411463102 60.28657754989928 60.3173411463102 60.3173411463102 60.3173411463102 60.28657754989928 60.3173411463102 60.3173411463102 60.3173411463102 60.3173411463102 60.3173411463102 60.3173411463102 60.3173411463102 60.3173411463102 60.3173411463102 60.3173411463102 60.3173411463102 60.3173411463102 60.3173411463102 60.3173411463102 60.3173411463102 60.3173411463102 60.3173411463102 60.3173411463102 60.3173411463102 60.3173411463102 60.3173411463102 60.28657754989928 60.3173411463102 60.28657754989928 60.28657754989928 60.28657754989928 60.28657754989928 60.25581395348837 60.25581395348837 60.25581395348837 60.25581395348837 60.25581395348837 60.25581395348837 60.25581395348837 60.25581395348837 60.25581395348837 60.25581395348837 60.25581395348837 60.25581395348837 60.25581395348837 60.25581395348837 60.25581395348837 60.25581395348837 60.25581395348837 60.25581395348837 60.25581395348837 60.25581395348837 60.25581395348837 60.25581395348837 60.25581395348837 60.25581395348837 60.25581395348837 60.22505035707745 60.19428676066654 60.19428676066654 60.132759567844715 60.16352316425563 60.16352316425563 60.132759567844715 60.132759567844715 60.1019959714338 60.040468778611974 60.040468778611974 60.00970518220106 60.00970518220106 60.00970518220106 60.00970518220106 60.00970518220106 60.00970518220106 60.00970518220106 59.94817798937923 59.85588720014648 59.82512360373558 59.70206921809192 59.70206921809192 59.67130562168101 59.60977842885918 59.54825123603735 59.51748763962644 59.45596044680461 59.39443325398278 59.363669657571876 59.363669657571876 59.332906061160955 59.30214246475004 59.30214246475004 59.30214246475004 59.30214246475004 59.27137886833913 59.27137886833913 59.27137886833913 59.30214246475004 59.30214246475004 59.30214246475004 59.30214246475004 59.332906061160955 59.332906061160955 59.363669657571876 59.425196850393704 59.45596044680461 59.45596044680461 59.45596044680461 59.45596044680461 59.45596044680461 59.45596044680461 59.48672404321553 59.45596044680461 59.45596044680461 59.45596044680461 59.45596044680461 59.48672404321553 59.45596044680461 59.45596044680461 59.48672404321553 59.45596044680461 59.45596044680461 59.45596044680461 59.45596044680461 59.48672404321553 59.54825123603735 59.579014832448266 59.579014832448266 59.579014832448266 59.60977842885918 59.64054202527009 59.64054202527009 59.67130562168101 59.70206921809192 59.732832814502835 59.76359641091375 59.79436000732467 59.85588720014648 59.886650796557404 59.91741439296832 59.94817798937923 59.978941585790146 60.00970518220106 60.040468778611974 60.07123237502289 60.07123237502289 60.1019959714338 60.1019959714338 60.132759567844715 60.132759567844715 60.16352316425563 60.16352316425563 60.16352316425563 60.19428676066654 60.16352316425563 60.16352316425563 60.16352316425563 60.16352316425563 60.16352316425563 60.16352316425563 60.19428676066654 60.19428676066654 60.22505035707745 60.22505035707745 60.25581395348837 60.3173411463102 60.34810474272111 60.378868339132026 60.440395531953854 60.50192272477568 60.53268632118659 60.53268632118659 60.594213514008416 60.62497711041934 60.686504303241165 60.71726789965207 60.74803149606299 60.74803149606299 60.778795092473906 60.778795092473906 60.778795092473906 60.778795092473906 60.778795092473906 60.778795092473906 60.778795092473906 60.778795092473906 60.778795092473906 60.74803149606299 60.778795092473906 60.778795092473906 60.778795092473906 60.778795092473906 60.778795092473906 60.778795092473906 60.80955868888482 60.84032228529573 60.87108588170665 60.901849478117555 60.932613074528476 60.932613074528476 60.96337667093938 60.96337667093938 60.994140267350296 60.994140267350296 61.055667460172124 61.055667460172124 61.086431056583045 61.11719465299395 61.11719465299395 61.11719465299395 61.14795824940487 61.14795824940487 61.20948544222669 61.240249038637614 61.27101263504852 61.30177623145944 61.27101263504852 61.30177623145944 61.33253982787035 61.33253982787035 61.36330342428126 61.39406702069218 61.39406702069218 61.39406702069218 61.36330342428126 61.39406702069218 61.39406702069218 61.36330342428126 61.39406702069218 61.39406702069218 61.36330342428126 61.36330342428126 61.36330342428126 61.36330342428126 61.36330342428126 61.36330342428126 61.36330342428126 61.36330342428126 61.36330342428126 61.36330342428126 61.39406702069218 61.36330342428126 61.36330342428126 61.36330342428126 61.36330342428126 61.36330342428126 61.36330342428126 61.36330342428126 61.36330342428126 61.36330342428126 61.39406702069218 61.36330342428126 61.36330342428126 61.36330342428126 61.36330342428126 61.36330342428126 61.36330342428126 61.36330342428126 61.36330342428126 61.36330342428126 61.39406702069218 61.36330342428126 61.39406702069218 61.42483061710309 61.42483061710309 61.48635780992492 61.547885002746746 61.547885002746746 61.609412195568574 61.64017579197949 61.6709393883904 61.73246658121223 61.73246658121223 61.79399377403406 61.79399377403406 61.82475737044497 61.855520966855885 61.855520966855885 61.855520966855885 61.855520966855885 61.855520966855885 61.855520966855885 61.855520966855885 61.855520966855885 61.855520966855885 61.855520966855885 61.855520966855885 61.8862845632668 61.8862845632668 61.8862845632668 61.91704815967771 61.91704815967771 61.91704815967771 61.97857535249954 62.009338948910454 62.04010254532137 62.07086614173228 62.101629738143195 62.13239333455411 62.13239333455411 62.16315693096502 62.16315693096502 62.19392052737594 62.22468412378685 62.22468412378685 62.22468412378685 62.22468412378685 62.22468412378685 62.19392052737594 62.22468412378685 62.19392052737594 62.22468412378685 62.22468412378685 62.22468412378685 62.22468412378685 62.255447720197765 62.255447720197765 62.28621131660868 62.28621131660868 62.31697491301959 62.31697491301959 62.347738509430506 62.347738509430506 62.347738509430506 62.347738509430506 62.347738509430506 62.347738509430506 62.347738509430506 62.347738509430506 62.347738509430506 62.347738509430506 62.347738509430506 62.347738509430506 62.347738509430506 62.347738509430506 62.347738509430506 62.347738509430506 62.347738509430506 62.347738509430506 62.347738509430506 62.347738509430506 62.347738509430506 62.31697491301959 62.347738509430506 62.347738509430506 62.347738509430506 62.347738509430506 62.31697491301959 62.31697491301959 62.28621131660868 62.22468412378685 62.101629738143195 62.101629738143195 61.947811756088626 61.82475737044497 61.64017579197949 61.48635780992492 61.30177623145944 61.14795824940487 60.932613074528476 60.74803149606299 60.53268632118659 60.378868339132026 60.16352316425563 59.94817798937923 59.76359641091375 59.425196850393704 59.39443325398278 59.086797289873644 58.809924922175426 58.533052554477194 58.34847097601172 57.917780626258924 57.70243545138253 57.39479948727339 57.02563633034242 56.87181834828786 56.62570957700055 56.441127998535066 56.0719648416041 55.79509247390588 55.57974729902948 55.36440212415309 55.05676616004395 54.841420985167545 54.5030214246475 54.34920344259293 54.01080388207288 53.70316791796374 53.45705914667643 53.057132393334555 52.811023622047244 52.503387657938106 52.22651529023988 51.98040651895257 51.61124336202161 51.18055301226882 50.81138985533785 50.65757187328328 50.71909906610511 50.71909906610511 50.442226698406884 50.288408716352315 50.042299945065004 49.673136788134045 49.427028016846734 49.27321003479216 48.99633766709394 48.75022889580663 48.50412012451932 48.319538546053835 48.073429774766524 47.82732100347921 47.64273942501373 47.36586705731551 47.18128547885003 46.93517670756272 46.68906793627541 46.504486357809924 46.25837758652261 46.0122688152353 45.82768723676982 45.45852407983885 45.3354696941952 44.96630653726424 44.72019776597693 44.50485259110053 44.227980223402305 44.01263504852591 43.70499908441677 43.52041750595129 43.305072331074896 42.93590917414393 42.59750961362388 42.38216443874748 42.105292071049256 41.92071049258377 41.67460172129647 41.42849295000916 41.243911371543675 40.997802600256364 40.72093023255814 40.47482146127083 40.22871268998352 40.07489470792895 39.85954953305256 39.70573155099798 39.582677165354326 39.367331990477936 39.121223219190625 38.99816883354697 38.78282365867057 38.59824208020509 38.38289690532869 38.19831532686321 38.075260941219554 37.798388573521336 37.58304339864493 37.42922541659037 37.24464383812489 37.09082585607032 36.84471708478301 36.598608313495696 36.444790331441126 36.32173594579747 36.13715436733199 35.98333638527742 35.706464017579194 35.55264603552463 35.337300860648234 35.12195568577184 35.029664896539096 34.8143197216627 34.66050173960813 34.50668375755356 34.35286577549899 34.229811389855335 34.16828419703351 34.075993407800766 34.01446621497894 33.89141182933528 33.79912104010255 33.7068302508698 33.614539461637065 33.522248672404324 33.42995788317158 33.30690349752793 33.2453763047061 33.18384911188427 33.15308551547336 33.09155832265153 33.0300311298297 33.0300311298297 32.93774034059696 32.84544955136422 32.814685954953305 32.75315876213148 32.63010437648782 32.53781358725508 32.44552279802234 32.414759201611425 32.3532320087896 32.29170481596777 32.260941219556855 32.23017762314594 32.19941402673503 32.1378868339132 32.04559604468046 31.984068851858634 31.86101446621498 31.768723676982237 31.676432887749495 31.584142098516754 31.491851309284012 31.36879692364036 31.245742537996705 31.21497894158579 31.12268815235305 31.06116095953122 30.999633766709394 30.96887017029848 30.907342977476652 30.845815784654825 30.784288591832997 30.784288591832997 30.753524995422083 30.753524995422083 30.72276139901117 30.72276139901117 30.691997802600255 30.66123420618934 30.630470609778428 30.599707013367514 30.538179820545686 30.507416224134772 30.507416224134772 30.445889031312948 30.415125434902034 30.38436183849112 30.29207104925838 30.29207104925838 30.29207104925838 30.29207104925838 30.29207104925838 30.261307452847465 30.261307452847465 30.261307452847465 30.23054385643655 30.23054385643655 30.199780260025637 30.169016663614723 30.13825306720381 30.13825306720381 30.107489470792896 30.07672587438198 30.015198681560154 29.98443508514924 29.922907892327412 29.8921442959165 29.861380699505585 29.861380699505585 29.861380699505585 29.83061710309467 29.83061710309467 29.83061710309467 29.799853506683757 29.799853506683757 29.799853506683757 29.799853506683757 29.799853506683757 29.799853506683757 29.799853506683757 29.799853506683757 29.769089910272843 29.769089910272843 29.769089910272843 29.73832631386193 29.769089910272843 29.73832631386193 29.73832631386193 29.73832631386193 29.73832631386193 29.73832631386193 29.707562717451015 29.707562717451015 29.6767991210401 29.6767991210401 29.646035524629188 29.615271928218274 29.615271928218274 29.615271928218274 29.58450833180736 29.58450833180736 29.553744735396446 29.58450833180736 29.553744735396446 29.522981138985532 29.522981138985532 29.522981138985532 29.522981138985532 29.522981138985532 29.522981138985532 29.49221754257462 29.49221754257462 29.49221754257462 29.49221754257462 29.49221754257462 29.461453946163708 29.461453946163708 29.461453946163708 29.461453946163708 29.461453946163708 29.461453946163708 29.461453946163708 29.430690349752794 29.430690349752794 29.430690349752794 29.430690349752794 29.430690349752794 29.430690349752794 29.430690349752794 29.430690349752794 29.430690349752794 29.430690349752794 29.430690349752794 29.430690349752794 29.430690349752794 29.430690349752794 29.430690349752794 29.430690349752794 29.430690349752794 29.430690349752794 29.430690349752794 29.430690349752794 29.39992675334188 29.430690349752794 29.430690349752794 29.430690349752794 29.430690349752794 29.430690349752794 29.39992675334188 29.39992675334188 29.39992675334188 29.39992675334188 29.39992675334188 29.39992675334188 29.430690349752794 29.39992675334188 29.39992675334188 29.39992675334188 29.39992675334188 29.39992675334188 29.39992675334188 29.39992675334188 29.39992675334188 29.39992675334188 29.39992675334188 29.39992675334188 29.39992675334188 29.39992675334188 29.39992675334188 29.39992675334188 29.39992675334188 29.39992675334188 29.39992675334188 29.39992675334188 29.39992675334188 29.39992675334188 29.39992675334188 29.39992675334188 29.39992675334188 29.39992675334188 29.39992675334188 29.39992675334188 29.39992675334188 29.39992675334188 29.369163156930966 29.39992675334188 29.39992675334188 29.39992675334188 29.39992675334188 29.39992675334188 29.369163156930966 29.369163156930966 29.39992675334188 29.369163156930966 29.39992675334188 29.369163156930966 29.369163156930966 29.39992675334188 29.369163156930966 29.369163156930966 29.369163156930966 29.39992675334188 29.369163156930966 29.369163156930966 29.369163156930966 29.369163156930966 29.369163156930966 29.369163156930966 29.369163156930966 29.369163156930966 29.369163156930966 29.39992675334188 29.369163156930966 29.369163156930966 29.369163156930966 29.369163156930966 29.369163156930966 29.369163156930966 29.369163156930966 29.369163156930966 29.369163156930966 29.369163156930966 29.369163156930966 29.369163156930966 29.369163156930966 29.369163156930966 29.369163156930966 29.369163156930966 29.369163156930966 29.369163156930966 29.369163156930966 29.369163156930966 29.369163156930966 29.369163156930966 29.369163156930966 29.369163156930966 29.369163156930966 29.369163156930966 29.369163156930966 29.369163156930966 29.369163156930966 29.369163156930966 29.369163156930966 29.369163156930966 29.369163156930966 29.369163156930966 29.369163156930966 29.369163156930966 29.369163156930966 29.369163156930966 29.369163156930966 29.369163156930966 29.369163156930966 29.369163156930966 29.369163156930966 29.369163156930966 29.369163156930966 29.369163156930966 29.369163156930966 29.369163156930966 29.369163156930966 29.369163156930966 29.369163156930966 29.369163156930966 29.369163156930966 29.369163156930966 29.369163156930966 29.369163156930966 29.369163156930966 29.369163156930966 29.369163156930966 29.369163156930966 29.369163156930966 29.369163156930966 29.369163156930966 29.369163156930966 29.369163156930966 29.369163156930966 29.369163156930966 29.369163156930966 29.369163156930966 29.369163156930966 29.369163156930966 29.369163156930966 29.338399560520052 29.369163156930966 29.369163156930966 29.369163156930966 29.369163156930966 29.338399560520052 29.338399560520052 29.338399560520052 29.369163156930966 29.369163156930966 29.369163156930966 29.369163156930966 29.338399560520052 29.369163156930966 29.338399560520052 29.369163156930966 29.369163156930966 29.369163156930966 29.369163156930966 29.338399560520052 29.369163156930966 29.369163156930966 29.338399560520052 29.369163156930966 29.369163156930966 29.338399560520052 29.338399560520052 29.338399560520052 29.338399560520052 29.338399560520052 29.338399560520052 29.338399560520052 29.369163156930966 29.338399560520052 29.369163156930966 29.338399560520052 29.338399560520052 29.338399560520052 29.338399560520052 29.369163156930966 29.369163156930966 29.338399560520052 29.338399560520052 29.369163156930966 29.338399560520052 29.338399560520052 29.369163156930966 29.338399560520052 29.369163156930966 29.369163156930966 29.338399560520052 29.369163156930966 29.338399560520052 29.338399560520052 29.338399560520052 29.338399560520052 29.338399560520052 29.338399560520052 29.338399560520052 29.338399560520052 29.338399560520052 29.338399560520052 29.338399560520052 29.369163156930966 29.338399560520052 29.338399560520052 29.338399560520052 29.338399560520052 29.338399560520052 29.338399560520052 29.338399560520052 29.369163156930966 29.338399560520052 29.338399560520052 29.338399560520052 29.338399560520052 29.338399560520052 29.338399560520052 29.338399560520052 29.338399560520052 29.338399560520052 29.338399560520052 29.338399560520052 29.338399560520052 29.338399560520052 29.338399560520052 29.338399560520052 29.338399560520052 29.338399560520052 29.338399560520052 29.338399560520052 29.338399560520052 29.338399560520052 29.338399560520052 29.338399560520052 29.338399560520052 29.338399560520052 29.369163156930966 29.338399560520052 29.338399560520052 29.338399560520052 29.338399560520052 29.338399560520052 29.338399560520052 29.338399560520052 29.338399560520052 29.338399560520052 29.338399560520052 29.338399560520052 29.338399560520052 29.338399560520052 29.338399560520052 29.338399560520052 29.338399560520052 29.338399560520052 29.338399560520052 29.338399560520052 29.338399560520052 29.338399560520052 29.338399560520052 29.338399560520052 29.338399560520052 29.338399560520052 29.338399560520052 29.338399560520052 29.338399560520052 29.338399560520052 29.338399560520052 29.338399560520052 29.338399560520052 29.338399560520052 29.338399560520052 29.338399560520052 29.338399560520052 29.338399560520052 29.338399560520052 29.338399560520052 29.338399560520052 29.338399560520052 29.338399560520052 29.338399560520052 29.338399560520052 29.338399560520052 29.338399560520052 29.338399560520052 29.338399560520052 29.338399560520052 29.338399560520052 29.338399560520052 29.338399560520052 29.338399560520052 29.338399560520052 29.338399560520052 29.338399560520052 29.338399560520052 29.338399560520052 29.338399560520052 29.338399560520052 29.338399560520052 29.338399560520052 29.338399560520052 29.338399560520052 29.338399560520052 29.338399560520052 29.338399560520052 29.338399560520052 29.338399560520052 29.338399560520052 29.338399560520052 29.338399560520052 29.338399560520052 29.338399560520052 29.338399560520052 29.338399560520052 29.338399560520052 29.338399560520052 29.338399560520052 29.338399560520052 29.338399560520052 29.338399560520052 29.338399560520052 29.338399560520052 29.338399560520052 29.338399560520052 29.338399560520052 29.338399560520052 29.338399560520052 29.338399560520052 29.338399560520052 29.30763596410914 29.338399560520052 29.338399560520052 29.338399560520052 29.338399560520052 29.338399560520052 29.30763596410914 29.338399560520052 29.338399560520052 29.338399560520052 29.338399560520052 29.338399560520052 29.338399560520052 29.338399560520052 29.338399560520052 29.338399560520052 29.338399560520052 29.30763596410914 29.338399560520052 29.338399560520052 29.338399560520052 29.338399560520052 29.338399560520052 29.338399560520052 29.338399560520052 29.338399560520052 29.30763596410914 29.338399560520052 29.338399560520052 29.338399560520052 29.338399560520052 29.338399560520052 29.338399560520052 29.338399560520052 29.338399560520052 29.338399560520052 29.338399560520052 29.338399560520052 29.338399560520052 29.338399560520052 29.338399560520052 29.338399560520052 29.30763596410914 29.338399560520052 29.30763596410914 29.338399560520052 29.30763596410914 29.30763596410914 29.338399560520052 29.338399560520052 29.30763596410914 29.338399560520052 29.338399560520052 29.338399560520052 29.338399560520052 29.338399560520052 29.338399560520052 29.338399560520052 29.30763596410914 29.30763596410914 29.338399560520052 29.338399560520052 29.30763596410914 29.338399560520052 29.30763596410914 29.338399560520052 29.338399560520052 29.338399560520052 29.30763596410914 29.30763596410914 29.30763596410914 29.338399560520052 29.338399560520052 29.338399560520052 29.338399560520052 29.338399560520052 29.338399560520052 29.30763596410914 29.338399560520052 29.338399560520052 29.338399560520052 29.338399560520052 29.338399560520052 29.338399560520052 29.338399560520052 29.338399560520052 29.30763596410914 29.338399560520052 29.338399560520052 29.338399560520052 29.338399560520052 29.338399560520052 29.30763596410914 29.30763596410914 29.338399560520052 29.338399560520052 29.338399560520052 29.338399560520052 29.30763596410914 29.338399560520052 29.338399560520052 29.30763596410914 29.30763596410914 29.30763596410914 29.338399560520052 29.30763596410914 29.30763596410914 29.30763596410914 29.30763596410914 29.30763596410914 29.338399560520052 29.30763596410914 29.30763596410914 29.30763596410914 29.30763596410914 29.338399560520052 29.338399560520052 29.30763596410914 29.30763596410914 29.30763596410914 29.30763596410914 29.338399560520052 29.30763596410914 29.338399560520052 29.30763596410914 29.30763596410914 29.338399560520052 29.338399560520052 29.30763596410914 29.338399560520052 29.30763596410914 29.30763596410914 29.338399560520052 29.30763596410914 29.30763596410914 29.30763596410914 29.30763596410914 29.30763596410914 29.30763596410914 29.338399560520052 29.30763596410914 29.30763596410914 29.30763596410914 29.30763596410914 29.30763596410914 29.30763596410914 29.30763596410914 29.30763596410914 29.30763596410914 29.30763596410914 29.30763596410914 29.30763596410914 29.30763596410914 29.338399560520052 29.30763596410914 29.30763596410914 29.338399560520052 29.30763596410914 29.30763596410914 29.30763596410914 29.30763596410914 29.30763596410914 29.30763596410914 29.30763596410914 29.30763596410914 29.30763596410914 29.30763596410914 29.338399560520052 29.338399560520052 29.30763596410914 29.30763596410914 29.30763596410914 29.338399560520052 29.30763596410914 29.30763596410914 29.30763596410914 29.30763596410914 29.30763596410914 29.30763596410914 29.30763596410914 29.30763596410914 29.30763596410914 29.30763596410914 29.30763596410914 29.30763596410914 29.30763596410914 29.30763596410914 29.30763596410914 29.30763596410914 29.30763596410914 29.30763596410914 29.30763596410914 29.30763596410914 29.30763596410914 29.30763596410914 29.30763596410914 29.30763596410914 29.30763596410914 29.338399560520052 29.30763596410914 29.30763596410914 29.30763596410914 29.30763596410914 29.30763596410914 29.30763596410914 29.30763596410914 29.30763596410914 29.30763596410914 29.30763596410914 29.30763596410914 29.30763596410914 29.30763596410914 29.30763596410914 29.30763596410914 29.338399560520052 29.30763596410914 29.30763596410914 29.30763596410914 29.30763596410914 29.30763596410914 29.30763596410914 29.30763596410914 29.30763596410914 29.338399560520052 29.30763596410914 29.30763596410914 29.30763596410914 29.30763596410914 29.30763596410914 29.30763596410914 29.30763596410914 29.30763596410914 29.30763596410914 29.30763596410914 29.30763596410914 29.30763596410914 29.30763596410914 29.30763596410914 29.30763596410914 29.30763596410914 29.30763596410914 29.30763596410914 29.30763596410914 29.30763596410914 29.30763596410914 29.30763596410914 29.30763596410914 29.30763596410914 29.30763596410914 29.338399560520052 29.30763596410914 29.30763596410914 29.338399560520052 29.30763596410914 29.30763596410914 29.30763596410914 29.30763596410914 29.338399560520052 29.30763596410914 29.30763596410914 29.30763596410914 29.30763596410914 29.30763596410914 29.30763596410914 29.30763596410914 29.30763596410914 29.30763596410914 29.30763596410914 29.30763596410914 29.30763596410914 29.30763596410914 29.30763596410914 29.30763596410914 29.30763596410914 29.30763596410914 29.30763596410914 29.30763596410914 29.30763596410914 29.30763596410914 29.30763596410914 29.30763596410914 29.30763596410914 29.30763596410914 29.30763596410914 29.30763596410914 29.30763596410914 29.30763596410914 29.30763596410914 29.30763596410914 29.30763596410914 29.30763596410914 29.30763596410914 29.30763596410914 29.30763596410914 29.30763596410914 29.30763596410914 29.30763596410914 29.30763596410914 29.30763596410914 29.30763596410914 29.30763596410914 29.30763596410914 29.30763596410914 29.30763596410914 29.30763596410914 29.30763596410914 29.30763596410914 29.30763596410914 29.30763596410914 29.30763596410914 29.30763596410914 29.30763596410914 29.30763596410914 29.30763596410914 29.30763596410914 29.30763596410914 29.30763596410914 29.30763596410914 29.30763596410914 29.30763596410914 29.30763596410914 29.30763596410914 29.30763596410914 29.30763596410914 29.30763596410914 29.30763596410914 29.338399560520052 29.30763596410914 29.30763596410914 29.30763596410914 29.30763596410914 29.338399560520052 29.30763596410914 29.30763596410914 29.30763596410914 29.30763596410914 29.30763596410914 29.30763596410914 29.30763596410914 29.338399560520052 29.338399560520052 29.338399560520052 29.338399560520052 29.338399560520052 29.338399560520052 29.338399560520052 29.338399560520052 29.338399560520052 29.338399560520052 29.369163156930966 29.338399560520052 29.369163156930966 29.338399560520052 29.369163156930966 29.369163156930966 29.369163156930966 29.369163156930966 29.369163156930966 29.39992675334188 29.39992675334188 29.39992675334188 29.39992675334188 29.39992675334188 29.430690349752794 29.430690349752794 29.430690349752794 29.430690349752794 29.461453946163708 29.461453946163708 29.461453946163708 29.461453946163708 29.461453946163708 29.49221754257462 29.49221754257462 29.49221754257462 29.522981138985532 29.522981138985532 29.522981138985532 29.553744735396446 29.553744735396446 29.58450833180736 29.58450833180736 29.615271928218274 29.615271928218274 29.646035524629188 29.646035524629188 29.6767991210401 29.707562717451015 29.73832631386193 29.769089910272843 29.799853506683757 29.83061710309467 29.861380699505585 29.8921442959165 29.922907892327412 29.98443508514924 30.015198681560154 30.045962277971068 30.07672587438198 30.07672587438198 30.07672587438198 30.107489470792896 30.07672587438198 30.107489470792896 30.107489470792896 30.13825306720381 30.169016663614723 30.199780260025637 30.23054385643655 30.261307452847465 30.29207104925838 30.38436183849112 30.445889031312948 30.538179820545686 30.72276139901117 30.87657938106574 30.96887017029848 31.091924555942136 31.21497894158579 31.338033327229446 31.522614905694926 31.614905694927668 31.70719648416041 31.768723676982237 31.830250869804065 31.891778062625892 31.95330525544772 32.014832448269544 32.1378868339132 32.19941402673503 32.260941219556855 32.32246841237868 32.414759201611425 32.507049990844166 32.59934078007691 32.69163156930965 32.814685954953305 32.87621314777513 32.99926753341879 33.0300311298297 33.12232191906244 33.18384911188427 33.2453763047061 33.2453763047061 33.30690349752793 33.39919428676067 33.64530305804798 33.76835744369163 33.829884636513455 33.73759384728072 33.49148507599341 33.73759384728072 34.16828419703351 34.475920161142646 34.99890130012818 35.39882805347006 35.82951840322285 36.26020875297564 36.53708112067387 36.906244277604834 37.24464383812489 37.4907526094122 37.82915216993224 38.10602453763047 38.475187694561434 38.65976927302692 38.81358725508149 39.0596960263688 39.428859183299764 39.644204358176154 39.890313129463465 40.10565830433986 40.290239882805345 40.50558505768174 40.65940303973631 40.87474821461271 41.090093389489105 41.243911371543675 41.58231093206372 41.64383812488555 41.9822376854056 42.35140084233657 42.659036806445705 43.058963559787585 43.42812671671855 43.73576268082768 44.25874381981322 44.535616187511444 44.935542940853324 45.30470609778429 45.52005127266068 45.82768723676982 46.31990477934444 46.596777147042665 46.904413111151804 47.1197582860282 47.39663065372642 47.70426661783556 47.91961179271196 48.13495696758835 48.319538546053835 48.62717451016297 48.9040468778612 49.08862845632668 49.427028016846734 49.673136788134045 49.79619117377769 49.91924555942135 50.042299945065004 50.2576451199414 50.596044680461446 50.78062625892693 51.02673503021424 51.27284380150155 51.457425379967034 51.67277055484343 51.91887932613075 52.31880607947262 52.62644204358176 52.811023622047244 53.026368796923634 53.18018677897821 53.303241164621866 53.45705914667643 53.54934993590917 53.73393151437466 53.918513092840136 54.01080388207288 54.226149056949275 54.59531221388024 54.841420985167545 55.05676616004395 55.30287493133125 55.82585607031679 56.041201245193186 56.37960080571324 56.718000366233284 57.02563633034242 57.179454312397 57.36403589086248 57.57938106573887 57.79472624061527 57.97930781908075 58.1023622047244 58.28694378318989 58.34847097601172 58.37923457242263 58.47152536165537 58.533052554477194 58.62534334370994 58.71763413294268 58.7483977293536 58.779161325764505 58.84068851858633 58.84068851858633 58.84068851858633 58.809924922175426 58.779161325764505 58.7483977293536 58.7483977293536 58.71763413294268 58.71763413294268 58.71763413294268 58.68687053653177 58.68687053653177 58.65610694012086 58.65610694012086 58.65610694012086 58.65610694012086 58.65610694012086 58.65610694012086 58.65610694012086 58.65610694012086 58.65610694012086 58.65610694012086 58.62534334370994 58.59457974729903 58.59457974729903 58.59457974729903 58.59457974729903 58.59457974729903 58.59457974729903 58.563816150888115 58.59457974729903 58.59457974729903 58.563816150888115 58.59457974729903 58.59457974729903 58.59457974729903 58.59457974729903 58.59457974729903 58.563816150888115 58.563816150888115 58.563816150888115 58.533052554477194 58.50228895806629 58.50228895806629 58.47152536165537 58.44076176524446 58.40999816883354 58.40999816883354 58.44076176524446 58.40999816883354 58.37923457242263 58.40999816883354 58.37923457242263 58.37923457242263 58.37923457242263 58.37923457242263 58.37923457242263 58.37923457242263 58.37923457242263 58.37923457242263 58.37923457242263 58.37923457242263 58.37923457242263 58.40999816883354 58.40999816883354 58.37923457242263 58.37923457242263 58.37923457242263 58.37923457242263 58.40999816883354 58.37923457242263 58.37923457242263 58.37923457242263 58.37923457242263 58.317707379600805 58.28694378318989 58.28694378318989 58.25618018677898 58.22541659036806 58.22541659036806 58.22541659036806 58.19465299395715 58.163889397546235 58.163889397546235 58.1023622047244 58.1023622047244 58.071598608313494 58.1023622047244 58.071598608313494 58.071598608313494 58.1023622047244 58.1023622047244 58.071598608313494 58.1023622047244 58.071598608313494 58.1023622047244 58.1023622047244 58.1023622047244 58.1023622047244 58.1023622047244 58.1023622047244 58.1023622047244 58.1023622047244 58.13312580113532 58.1023622047244 58.13312580113532 58.13312580113532 58.1023622047244 58.13312580113532 58.13312580113532 58.1023622047244 58.1023622047244 58.1023622047244 58.1023622047244 58.1023622047244 58.1023622047244 58.1023622047244 58.1023622047244 58.1023622047244 58.1023622047244 58.1023622047244 58.071598608313494 58.071598608313494 58.071598608313494 58.071598608313494 58.071598608313494 58.071598608313494 58.071598608313494 58.071598608313494 58.071598608313494 58.071598608313494 58.071598608313494 58.071598608313494 58.071598608313494 58.04083501190259 58.04083501190259 58.04083501190259 58.010071415491666 57.97930781908075 57.97930781908075 57.97930781908075 57.97930781908075 57.97930781908075 57.97930781908075 57.97930781908075 57.97930781908075 57.97930781908075 57.97930781908075 57.97930781908075 57.97930781908075 57.97930781908075 57.97930781908075 57.97930781908075 57.97930781908075 58.010071415491666 58.010071415491666 58.010071415491666 58.010071415491666 58.010071415491666 58.010071415491666 58.04083501190259 57.97930781908075 58.010071415491666 58.04083501190259 58.010071415491666 57.97930781908075 58.010071415491666 57.97930781908075 58.010071415491666 57.97930781908075 58.010071415491666 58.010071415491666 58.010071415491666 57.97930781908075 57.97930781908075 57.97930781908075 58.010071415491666 57.97930781908075 58.010071415491666 58.010071415491666 58.010071415491666 58.010071415491666 58.010071415491666 57.97930781908075 57.97930781908075 57.97930781908075 57.97930781908075 57.97930781908075 57.97930781908075 57.97930781908075 57.97930781908075 57.97930781908075 57.94854422266984 57.97930781908075 57.97930781908075 57.94854422266984 57.97930781908075 57.94854422266984 57.94854422266984 57.97930781908075 57.97930781908075 57.97930781908075 57.97930781908075 57.97930781908075 57.97930781908075 57.94854422266984 57.97930781908075 57.97930781908075 57.97930781908075 57.97930781908075 57.97930781908075 57.97930781908075 57.94854422266984 57.917780626258924 57.917780626258924 57.917780626258924 57.8562534334371 57.8562534334371 57.8562534334371 57.8562534334371 57.82548983702618 57.82548983702618 57.82548983702618 57.79472624061527 57.79472624061527 57.79472624061527 57.79472624061527 57.79472624061527 57.79472624061527 57.79472624061527 57.79472624061527 57.79472624061527 57.79472624061527 57.79472624061527 57.79472624061527 57.79472624061527 57.79472624061527 57.82548983702618 57.79472624061527 57.79472624061527 57.82548983702618 57.79472624061527 57.79472624061527 57.79472624061527 57.79472624061527 57.79472624061527 57.79472624061527 57.79472624061527 57.79472624061527 57.79472624061527 57.79472624061527 57.79472624061527 57.763962644204355 57.79472624061527 57.79472624061527 57.79472624061527 57.79472624061527 57.79472624061527 57.79472624061527 57.79472624061527 57.79472624061527 57.79472624061527 57.79472624061527 57.79472624061527 57.79472624061527 57.79472624061527 57.79472624061527 57.79472624061527 57.82548983702618 57.82548983702618 57.82548983702618 57.82548983702618 57.8562534334371 57.88701702984801 57.917780626258924 57.917780626258924 57.917780626258924 57.94854422266984 57.94854422266984 57.97930781908075 57.97930781908075 57.97930781908075 57.97930781908075 57.97930781908075 57.97930781908075 57.97930781908075 57.97930781908075 57.97930781908075 57.97930781908075 57.97930781908075 57.97930781908075 57.97930781908075 57.97930781908075 57.97930781908075 57.97930781908075 57.97930781908075 57.97930781908075 57.97930781908075 57.94854422266984 57.94854422266984 57.94854422266984 57.917780626258924 57.917780626258924 57.917780626258924 57.917780626258924 57.8562534334371 57.82548983702618 57.79472624061527 57.73319904779344 57.57938106573887 57.48709027650613 57.33327229445156 57.179454312397 57.056399926753336 56.93334554110969 56.748763962644205 56.68723676982238 56.56418238417872 56.41036440212415 56.28731001648049 56.13349203442593 56.01043764878227 55.88738326313862 55.76432887749496 55.641274491851306 55.48745650979674 55.33363852774217 55.27211133492034 55.149056949276684 55.026002563633035 54.90294817798937 54.74913019593481 54.65683940670207 54.5030214246475 54.34920344259293 54.25691265336019 54.10309467130563 54.01080388207288 53.918513092840136 53.79545870719648 53.67240432155283 53.45705914667643 53.364768357443694 53.24171397180004 53.118659586156376 52.99560520051273 52.87255081486907 52.718732832814496 52.62644204358176 52.47262406152719 52.31880607947262 52.19575169382897 52.0419337117744 51.949642922541656 51.703534151254345 51.488188976377955 51.3651345907343 51.18055301226882 50.995971433803334 50.903680644570585 50.842153451748764 50.688335469694195 50.534517487639626 50.41146310199597 50.380699505585056 50.19611792711957 50.134590734297745 50.07306354147592 49.95000915583226 49.82695477018861 49.673136788134045 49.51931880607947 49.45779161325764 49.30397363120308 49.24244643838125 48.99633766709394 48.873283281450284 48.75022889580663 48.565647317341146 48.411829335286576 48.25801135323201 48.04266617835561 47.98113898553378 47.765793810657385 47.67350302142465 47.550448635780995 47.48892144295917 47.36586705731551 47.27357626808276 47.18128547885003 47.08899468961728 46.965940303973625 46.87364951474089 46.81212232191906 46.68906793627541 46.56601355063175 46.442959164988096 46.16608679728987 46.043032411646216 45.79692364035891 45.643105658304336 45.396996887017025 45.12012451931881 44.874015748031496 44.68943416956601 44.4433253982787 44.25874381981322 43.981871452114994 43.70499908441677 43.52041750595129 43.24354513825307 42.8743819813221 42.75132759567845 42.53598242080205 42.35140084233657 42.013001281816514 41.7668925105292 41.64383812488555 41.36696575718733 41.12085698590002 40.936275407434536 40.75169382896905 40.597875846914484 40.444057864859914 40.22871268998352 40.136421900750776 39.982603918696206 39.82878593664164 39.70573155099798 39.55191356894342 39.49038637612159 39.367331990477936 39.24427760483428 39.121223219190625 38.99816883354697 38.90587804431423 38.75206006225966 38.53671488738326 38.413660501739606 38.29060611609595 38.013733748397726 37.921442959164985 37.70609778428859 37.4907526094122 37.24464383812489 37.02929866324849 36.906244277604834 36.598608313495696 36.444790331441126 36.26020875297564 36.01409998168833 35.86028199963376 35.64493682475737 35.46035524629189 35.30653726423732 35.029664896539096 34.8143197216627 34.75279252884087 34.56821095037539 34.475920161142646 34.26057498626625 34.137520600622594 34.075993407800766 34.01446621497894 33.95293902215711 33.922175425746204 33.922175425746204 33.89141182933528 33.89141182933528 33.89141182933528 33.860648232924376 33.79912104010255 33.79912104010255 33.73759384728072 33.67606665445889 33.614539461637065 33.58377586522615 33.49148507599341 33.460721479582496 33.368430690349754 33.27613990111701 33.214612708295185 33.15308551547336 33.060794726240616 32.968503937007874 32.84544955136422 32.72239516572056 32.63010437648782 32.53781358725508 32.47628639443325 32.3532320087896 32.29170481596777 32.23017762314594 32.1378868339132 32.107123237502286 32.014832448269544 31.95330525544772 31.830250869804065 31.768723676982237 31.70719648416041 31.64566929133858 31.55337850210584 31.491851309284012 31.36879692364036 31.307269730818533 31.184215345174877 31.12268815235305 31.06116095953122 30.938106573887566 30.784288591832997 30.72276139901117 30.5689434169566 30.507416224134772 30.38436183849112 30.261307452847465 30.169016663614723 30.07672587438198 29.953671488738326 29.8921442959165 29.83061710309467 29.83061710309467 29.83061710309467 29.799853506683757 29.799853506683757 29.769089910272843 29.769089910272843 29.769089910272843 29.73832631386193 29.73832631386193 29.73832631386193 29.73832631386193 29.707562717451015 29.707562717451015 29.6767991210401 29.6767991210401 29.6767991210401 29.646035524629188 29.646035524629188 29.615271928218274 29.615271928218274 29.615271928218274 29.58450833180736 29.58450833180736 29.58450833180736 29.58450833180736 29.58450833180736 29.58450833180736 29.553744735396446 29.58450833180736 29.553744735396446 29.553744735396446 29.553744735396446 29.522981138985532 29.522981138985532 29.522981138985532 29.522981138985532 29.49221754257462 29.461453946163708 29.461453946163708 29.461453946163708 29.430690349752794 29.430690349752794 29.430690349752794 29.430690349752794 29.430690349752794 29.430690349752794 29.39992675334188 29.39992675334188 29.39992675334188 29.39992675334188 29.39992675334188 29.39992675334188 29.39992675334188 29.39992675334188 29.39992675334188 29.369163156930966 29.39992675334188 29.39992675334188 29.369163156930966 29.39992675334188 29.369163156930966 29.369163156930966 29.369163156930966 29.369163156930966 29.369163156930966 29.369163156930966 29.369163156930966 29.369163156930966 29.369163156930966 29.369163156930966 29.369163156930966 29.369163156930966 29.369163156930966 29.338399560520052 29.338399560520052 29.338399560520052 29.338399560520052 29.338399560520052 29.338399560520052 29.338399560520052 29.338399560520052 29.338399560520052 29.338399560520052 29.338399560520052 29.338399560520052 29.338399560520052 29.338399560520052 29.338399560520052 29.30763596410914 29.338399560520052 29.338399560520052 29.338399560520052 29.30763596410914 29.338399560520052 29.30763596410914 29.30763596410914 29.30763596410914 29.30763596410914 29.30763596410914 29.30763596410914 29.30763596410914 29.30763596410914 29.30763596410914 29.30763596410914 29.30763596410914 29.276872367698225 29.276872367698225 29.30763596410914 29.30763596410914 29.276872367698225 29.276872367698225 29.30763596410914 29.276872367698225 29.276872367698225 29.276872367698225 29.276872367698225 29.276872367698225 29.276872367698225 29.276872367698225 29.276872367698225 29.276872367698225 29.276872367698225 29.276872367698225 29.276872367698225 29.276872367698225 29.276872367698225 29.276872367698225 29.276872367698225 29.276872367698225 29.276872367698225 29.276872367698225 29.276872367698225 29.276872367698225 29.276872367698225 29.276872367698225 29.276872367698225 29.276872367698225 29.24610877128731 29.276872367698225 29.276872367698225 29.24610877128731 29.276872367698225 29.276872367698225 29.24610877128731 29.24610877128731 29.24610877128731 29.24610877128731 29.276872367698225 29.24610877128731 29.24610877128731 29.24610877128731 29.24610877128731 29.24610877128731 29.276872367698225 29.24610877128731 29.24610877128731 29.24610877128731 29.24610877128731 29.24610877128731 29.24610877128731 29.24610877128731 29.24610877128731 29.24610877128731 29.24610877128731 29.24610877128731 29.24610877128731 29.24610877128731 29.24610877128731 29.24610877128731 29.24610877128731 29.24610877128731 29.24610877128731 29.24610877128731 29.24610877128731 29.24610877128731 29.24610877128731 29.24610877128731 29.24610877128731 29.24610877128731 29.24610877128731 29.24610877128731 29.24610877128731 29.24610877128731 29.24610877128731 29.24610877128731 29.24610877128731 29.24610877128731 29.24610877128731 29.24610877128731 29.24610877128731 29.24610877128731 29.24610877128731 29.24610877128731 29.215345174876397 29.24610877128731 29.24610877128731 29.24610877128731 29.215345174876397 29.24610877128731 29.24610877128731 29.215345174876397 29.24610877128731 29.24610877128731 29.24610877128731 29.215345174876397 29.215345174876397 29.215345174876397 29.215345174876397 29.215345174876397 29.215345174876397 29.215345174876397 29.215345174876397 29.24610877128731 29.215345174876397 29.215345174876397 29.215345174876397 29.215345174876397 29.215345174876397 29.24610877128731 29.215345174876397 29.215345174876397 29.215345174876397 29.215345174876397 29.215345174876397 29.215345174876397 29.215345174876397 29.215345174876397 29.215345174876397 29.215345174876397 29.215345174876397 29.215345174876397 29.215345174876397 29.215345174876397 29.215345174876397 29.215345174876397 29.215345174876397 29.215345174876397 29.215345174876397 29.215345174876397 29.215345174876397 29.215345174876397 29.215345174876397 29.215345174876397 29.215345174876397 29.215345174876397 29.215345174876397 29.184581578465483 29.215345174876397 29.215345174876397 29.215345174876397 29.184581578465483 29.215345174876397 29.215345174876397 29.184581578465483 29.184581578465483 29.184581578465483 29.184581578465483 29.184581578465483 29.184581578465483 29.184581578465483 29.184581578465483 29.184581578465483 29.184581578465483 29.215345174876397 29.184581578465483 29.184581578465483 29.184581578465483 29.184581578465483 29.184581578465483 29.184581578465483 29.184581578465483 29.184581578465483 29.184581578465483 29.184581578465483 29.184581578465483 29.184581578465483 29.184581578465483 29.184581578465483 29.184581578465483 29.184581578465483 29.184581578465483 29.184581578465483 29.184581578465483 29.184581578465483 29.184581578465483 29.184581578465483 29.184581578465483 29.184581578465483 29.184581578465483 29.184581578465483 29.184581578465483 29.184581578465483 29.184581578465483 29.184581578465483 29.184581578465483 29.184581578465483 29.184581578465483 29.184581578465483 29.184581578465483 29.184581578465483 29.184581578465483 29.184581578465483 29.184581578465483 29.184581578465483 29.184581578465483 29.184581578465483 29.184581578465483 29.184581578465483 29.184581578465483 29.184581578465483 29.184581578465483 29.184581578465483 29.184581578465483 29.184581578465483 29.184581578465483 29.184581578465483 29.184581578465483 29.184581578465483 29.184581578465483 29.184581578465483 29.184581578465483 29.184581578465483 29.184581578465483 29.184581578465483 29.184581578465483 29.184581578465483 29.184581578465483 29.184581578465483 29.184581578465483 29.184581578465483 29.184581578465483 29.184581578465483 29.184581578465483 29.184581578465483 29.184581578465483 29.184581578465483 29.184581578465483 29.184581578465483 29.184581578465483 29.184581578465483 29.184581578465483 29.184581578465483 29.184581578465483 29.184581578465483 29.184581578465483 29.184581578465483 29.184581578465483 29.184581578465483 29.184581578465483 29.184581578465483 29.184581578465483 29.15381798205457 29.184581578465483 29.184581578465483 29.184581578465483 29.184581578465483 29.15381798205457 29.184581578465483 29.15381798205457 29.184581578465483 29.15381798205457 29.15381798205457 29.184581578465483 29.15381798205457 29.15381798205457 29.15381798205457 29.184581578465483 29.184581578465483 29.15381798205457 29.15381798205457 29.184581578465483 29.184581578465483 29.184581578465483 29.184581578465483 29.184581578465483 29.15381798205457 29.15381798205457 29.15381798205457 29.15381798205457 29.15381798205457 29.15381798205457 29.15381798205457 29.15381798205457 29.15381798205457 29.15381798205457 29.184581578465483 29.15381798205457 29.184581578465483 29.15381798205457 29.15381798205457 29.15381798205457 29.15381798205457 29.15381798205457 29.15381798205457 29.15381798205457 29.15381798205457 29.15381798205457 29.15381798205457 29.15381798205457 29.15381798205457 29.15381798205457 29.15381798205457 29.15381798205457 29.15381798205457 29.15381798205457 29.15381798205457 29.15381798205457 29.15381798205457 29.15381798205457 29.15381798205457 29.15381798205457 29.15381798205457 29.15381798205457 29.15381798205457 29.15381798205457 29.15381798205457 29.15381798205457 29.15381798205457 29.15381798205457 29.15381798205457 29.15381798205457 29.15381798205457 29.15381798205457 29.15381798205457 29.15381798205457 29.15381798205457 29.15381798205457 29.15381798205457 29.15381798205457 29.15381798205457 29.15381798205457 29.15381798205457 29.15381798205457 29.15381798205457 29.15381798205457 29.15381798205457 29.15381798205457 29.15381798205457 29.15381798205457 29.15381798205457 29.15381798205457 29.15381798205457 29.15381798205457 29.15381798205457 29.15381798205457 29.15381798205457 29.15381798205457 29.15381798205457 29.15381798205457 29.15381798205457 29.15381798205457 29.15381798205457 29.15381798205457 29.15381798205457 29.15381798205457 29.15381798205457 29.15381798205457 29.15381798205457 29.15381798205457 29.15381798205457 29.15381798205457 29.15381798205457 29.15381798205457 29.15381798205457 29.15381798205457 29.15381798205457 29.15381798205457 29.15381798205457 29.15381798205457 29.15381798205457 29.15381798205457 29.15381798205457 29.15381798205457 29.15381798205457 29.15381798205457 29.15381798205457 29.15381798205457 29.15381798205457 29.15381798205457 29.15381798205457 29.15381798205457 29.15381798205457 29.15381798205457 29.15381798205457 29.15381798205457 29.15381798205457 29.15381798205457 29.15381798205457 29.15381798205457 29.15381798205457 29.15381798205457 29.15381798205457 29.15381798205457 29.15381798205457 29.15381798205457 29.15381798205457 29.15381798205457 29.15381798205457 29.15381798205457 29.15381798205457 29.15381798205457 29.15381798205457 29.15381798205457 29.15381798205457 29.123054385643655 29.15381798205457 29.15381798205457 29.15381798205457 29.15381798205457 29.15381798205457 29.15381798205457 29.15381798205457 29.15381798205457 29.15381798205457 29.15381798205457 29.15381798205457 29.123054385643655 29.123054385643655 29.15381798205457 29.15381798205457 29.123054385643655 29.15381798205457 29.123054385643655 29.15381798205457 29.15381798205457 29.123054385643655 29.15381798205457 29.15381798205457 29.15381798205457 29.15381798205457 29.15381798205457 29.123054385643655 29.123054385643655 29.15381798205457 29.15381798205457 29.15381798205457 29.15381798205457 29.15381798205457 29.123054385643655 29.123054385643655 29.123054385643655 29.123054385643655 29.15381798205457 29.15381798205457 29.123054385643655 29.15381798205457 29.15381798205457 29.15381798205457 29.123054385643655 29.15381798205457 29.123054385643655 29.15381798205457 29.15381798205457 29.123054385643655 29.15381798205457 29.123054385643655 29.15381798205457 29.123054385643655 29.123054385643655 29.123054385643655 29.15381798205457 29.123054385643655 29.123054385643655 29.123054385643655 29.15381798205457 29.15381798205457 29.15381798205457 29.15381798205457 29.123054385643655 29.123054385643655 29.123054385643655 29.15381798205457 29.123054385643655 29.123054385643655 29.123054385643655 29.123054385643655 29.123054385643655 29.15381798205457 29.123054385643655 29.123054385643655 29.123054385643655 29.123054385643655 29.123054385643655 29.123054385643655 29.123054385643655 29.123054385643655 29.15381798205457 29.123054385643655 29.123054385643655 29.123054385643655 29.123054385643655 29.123054385643655 29.123054385643655 29.123054385643655 29.123054385643655 29.15381798205457 29.123054385643655 29.123054385643655 29.123054385643655 29.123054385643655 29.123054385643655 29.123054385643655 29.123054385643655 29.123054385643655 29.123054385643655 29.123054385643655 29.15381798205457 29.123054385643655 29.123054385643655 29.15381798205457 29.123054385643655 29.123054385643655 29.15381798205457 29.123054385643655 29.123054385643655 29.123054385643655 29.123054385643655 29.123054385643655 29.123054385643655 29.123054385643655 29.123054385643655 29.123054385643655 29.123054385643655 29.123054385643655 29.123054385643655 29.123054385643655 29.123054385643655 29.15381798205457 29.123054385643655 29.123054385643655 29.123054385643655 29.123054385643655 29.123054385643655 29.123054385643655 29.123054385643655 29.123054385643655 29.123054385643655 29.123054385643655 29.123054385643655 29.123054385643655 29.123054385643655 29.123054385643655 29.123054385643655 29.123054385643655 29.123054385643655 29.123054385643655 29.123054385643655 29.123054385643655 29.123054385643655 29.15381798205457 29.123054385643655 29.123054385643655 29.123054385643655 29.123054385643655 29.123054385643655 29.123054385643655 29.123054385643655 29.123054385643655 29.123054385643655 29.123054385643655 29.123054385643655 29.123054385643655 29.123054385643655 29.123054385643655 29.123054385643655 29.123054385643655 29.123054385643655 29.123054385643655 29.123054385643655 29.123054385643655 29.123054385643655 29.123054385643655 29.123054385643655 29.123054385643655 29.123054385643655 29.123054385643655 29.123054385643655 29.123054385643655 29.123054385643655 29.123054385643655 29.123054385643655 29.123054385643655 29.123054385643655 29.123054385643655 29.123054385643655 29.123054385643655 29.123054385643655 29.123054385643655 29.123054385643655 29.123054385643655 29.123054385643655 29.123054385643655 29.123054385643655 29.123054385643655 29.123054385643655 29.123054385643655 29.123054385643655 29.123054385643655 29.123054385643655 29.123054385643655 29.123054385643655 29.123054385643655 29.123054385643655 29.123054385643655 29.123054385643655 29.123054385643655 29.123054385643655 29.123054385643655 29.123054385643655 29.123054385643655 29.123054385643655 29.123054385643655 29.123054385643655 29.123054385643655 29.123054385643655 29.123054385643655 29.123054385643655 29.123054385643655 29.123054385643655 29.123054385643655 29.123054385643655 29.123054385643655 29.123054385643655 29.123054385643655 29.123054385643655 29.123054385643655 29.123054385643655 29.123054385643655 29.123054385643655 29.123054385643655 29.123054385643655 29.123054385643655 29.123054385643655 29.123054385643655 29.123054385643655 29.123054385643655 29.123054385643655 29.123054385643655 29.123054385643655 29.123054385643655 29.123054385643655 29.123054385643655 29.123054385643655 29.123054385643655 29.123054385643655 29.123054385643655 29.123054385643655 29.123054385643655 29.123054385643655 29.123054385643655 29.123054385643655 29.123054385643655 29.123054385643655 29.123054385643655 29.123054385643655 29.123054385643655 29.123054385643655 29.123054385643655 29.123054385643655 29.123054385643655 29.123054385643655 29.123054385643655 29.123054385643655 29.15381798205457 29.123054385643655 29.123054385643655 29.123054385643655 29.123054385643655 29.123054385643655 29.123054385643655 29.123054385643655 29.123054385643655 29.123054385643655 29.123054385643655 29.15381798205457 29.15381798205457 29.15381798205457 29.15381798205457 29.15381798205457 29.15381798205457 29.15381798205457 29.15381798205457 29.184581578465483 29.184581578465483 29.184581578465483 29.184581578465483 29.215345174876397 29.215345174876397 29.215345174876397 29.24610877128731 29.24610877128731 29.24610877128731 29.276872367698225 29.24610877128731 29.276872367698225 29.276872367698225 29.30763596410914 29.30763596410914 29.338399560520052 29.338399560520052 29.338399560520052 29.338399560520052 29.338399560520052 29.369163156930966 29.39992675334188 29.430690349752794 29.430690349752794 29.49221754257462 29.49221754257462 29.522981138985532 29.553744735396446 29.615271928218274 29.615271928218274 29.6767991210401 29.73832631386193 29.769089910272843 29.83061710309467 29.8921442959165 29.98443508514924 30.015198681560154 30.07672587438198 30.169016663614723 30.261307452847465 30.415125434902034 30.47665262772386 30.599707013367514 30.72276139901117 30.845815784654825 30.96887017029848 31.091924555942136 31.21497894158579 31.307269730818533 31.399560520051274 31.461087712873102 31.522614905694926 30.96887017029848 30.47665262772386 30.599707013367514 30.630470609778428 30.691997802600255 30.72276139901117 30.784288591832997 30.81505218824391 30.907342977476652 30.96887017029848 31.091924555942136 31.184215345174877 31.21497894158579 31.27650613440762 31.338033327229446 31.36879692364036 31.461087712873102 31.522614905694926 31.64566929133858 31.70719648416041 31.79948727339315 31.891778062625892 31.922541659036806 31.95330525544772 31.922541659036806 31.95330525544772 32.107123237502286 32.23017762314594 32.38399560520051 32.53781358725508 32.69163156930965 33.0300311298297 33.30690349752793 33.55301226881524 33.860648232924376 34.075993407800766 34.56821095037539 34.96813770371727 35.27577366782641 35.583409631935545 35.89104559604468 36.13715436733199 36.598608313495696 36.998535066837576 37.33693462735763 37.61380699505585 37.82915216993224 38.10602453763047 38.35213330891778 38.69053286943783 38.967405237136056 39.121223219190625 39.33656839406702 39.55191356894342 39.674967954587075 39.890313129463465 40.01336751510712 40.1979490935726 40.413294268449 40.56711225050357 40.81322102179088 41.12085698590002 41.3054385643655 41.42849295000916 41.61307452847464 41.7668925105292 41.92071049258377 42.105292071049256 42.28987364951474 42.47445522798022 42.62827321003479 42.812854788500275 42.966672770554844 43.15125434902033 43.366599523896724 43.52041750595129 43.7665262772386 43.981871452114994 44.135689434169564 44.381798205456874 44.535616187511444 44.75096136238784 44.90477934444241 45.02783373008606 45.181651712140635 45.36623329060612 45.5508148690716 45.70463285112616 45.79692364035891 45.950741622413474 46.16608679728987 46.2276139901117 46.41219556857718 46.53524995422084 46.658304339864486 46.81212232191906 46.93517670756272 47.1197582860282 47.33510346090459 47.519685039370074 47.70426661783556 47.91961179271196 48.073429774766524 48.28877494964292 48.38106573887566 48.59641091375206 48.81175608862846 48.96557407068302 49.24244643838125 49.427028016846734 49.61160959531221 49.85771836659953 50.042299945065004 50.34993590917414 50.534517487639626 50.688335469694195 50.87291704815968 51.02673503021424 51.211316608679724 51.30360739791247 51.51895257278886 51.73429774766526 51.949642922541656 52.16498809741805 52.38033327229445 52.53415125434902 52.74949642922542 52.903314411279986 52.99560520051273 53.21095037538912 53.45705914667643 53.64164072514191 54.01080388207288 54.226149056949275 54.44149423182567 54.68760300311298 54.81065738875664 55.026002563633035 55.27211133492034 55.395165720563995 55.57974729902948 55.67203808826222 55.82585607031679 55.88738326313862 56.01043764878227 56.13349203442593 56.225782823658676 56.28731001648049 56.31807361289141 56.37960080571324 56.441127998535066 56.47189159494598 56.47189159494598 56.47189159494598 56.441127998535066 56.441127998535066 56.441127998535066 56.41036440212415 56.41036440212415 56.37960080571324 56.37960080571324 56.37960080571324 56.348837209302324 56.31807361289141 56.28731001648049 56.28731001648049 56.25654642006958 56.225782823658676 56.195019227247755 56.16425563083684 56.16425563083684 56.16425563083684 56.16425563083684 56.16425563083684 56.13349203442593 56.13349203442593 56.13349203442593 56.10272843801501 56.10272843801501 56.10272843801501 56.10272843801501 56.13349203442593 56.13349203442593 56.10272843801501 56.10272843801501 56.10272843801501 56.10272843801501 56.13349203442593 56.10272843801501 56.10272843801501 56.10272843801501 56.13349203442593 56.0719648416041 56.0719648416041 56.01043764878227 55.97967405237136 55.91814685954953 55.88738326313862 55.85661966672771 55.82585607031679 55.76432887749496 55.76432887749496 55.73356528108405 55.73356528108405 55.73356528108405 55.73356528108405 55.73356528108405 55.73356528108405 55.73356528108405 55.73356528108405 55.73356528108405 55.73356528108405 55.70280168467313 55.70280168467313 55.70280168467313 55.73356528108405 55.73356528108405 55.73356528108405 55.70280168467313 55.73356528108405 55.73356528108405 55.70280168467313 55.70280168467313 55.70280168467313 55.70280168467313 55.70280168467313 55.73356528108405 55.73356528108405 55.73356528108405 55.70280168467313 55.70280168467313 55.70280168467313 55.70280168467313 55.73356528108405 55.76432887749496 55.82585607031679 55.82585607031679 55.85661966672771 55.85661966672771 55.88738326313862 55.91814685954953 55.91814685954953 55.948910455960444 55.97967405237136 56.01043764878227 56.01043764878227 56.041201245193186 56.041201245193186 56.041201245193186 56.041201245193186 56.041201245193186 56.0719648416041 56.041201245193186 56.041201245193186 56.041201245193186 56.041201245193186 56.041201245193186 56.041201245193186 56.041201245193186 56.041201245193186 56.041201245193186 56.041201245193186 56.041201245193186 56.041201245193186 56.041201245193186 56.041201245193186 56.041201245193186 56.041201245193186 56.041201245193186 56.041201245193186 56.041201245193186 56.041201245193186 56.0719648416041 56.13349203442593 56.13349203442593 56.16425563083684 56.16425563083684 56.16425563083684 56.195019227247755 56.195019227247755 56.195019227247755 56.195019227247755 56.16425563083684 56.195019227247755 56.195019227247755 56.195019227247755 56.195019227247755 56.195019227247755 56.195019227247755 56.195019227247755 56.195019227247755 56.25654642006958 56.25654642006958 56.25654642006958 56.25654642006958 56.25654642006958 56.25654642006958 56.28731001648049 56.31807361289141 56.28731001648049 56.31807361289141 56.31807361289141 56.28731001648049 56.28731001648049 56.28731001648049 56.25654642006958 56.28731001648049 56.25654642006958 56.28731001648049 56.28731001648049 56.25654642006958 56.25654642006958 56.25654642006958 56.25654642006958 56.25654642006958 56.25654642006958 56.25654642006958 56.25654642006958 56.25654642006958 56.25654642006958 56.25654642006958 56.25654642006958 56.25654642006958 56.25654642006958 56.25654642006958 56.25654642006958 56.25654642006958 56.25654642006958 56.25654642006958 56.25654642006958 56.195019227247755 56.225782823658676 56.195019227247755 56.195019227247755 56.195019227247755 56.195019227247755 56.195019227247755 56.195019227247755 56.195019227247755 56.195019227247755 56.195019227247755 56.195019227247755 56.225782823658676 56.225782823658676 56.25654642006958 56.25654642006958 56.25654642006958 56.28731001648049 56.31807361289141 56.31807361289141 56.31807361289141 56.31807361289141 56.37960080571324 56.37960080571324 56.37960080571324 56.348837209302324 56.37960080571324 56.31807361289141 56.348837209302324 56.31807361289141 56.348837209302324 56.348837209302324 56.348837209302324 56.31807361289141 56.348837209302324 56.31807361289141 56.31807361289141 56.348837209302324 56.348837209302324 56.348837209302324 56.37960080571324 56.41036440212415 56.41036440212415 56.441127998535066 56.441127998535066 56.502655191356894 56.502655191356894 56.502655191356894 56.53341878776781 56.53341878776781 56.56418238417872 56.56418238417872 56.56418238417872 56.59494598058963 56.59494598058963 56.59494598058963 56.62570957700055 56.656473173411456 56.62570957700055 56.656473173411456 56.68723676982238 56.68723676982238 56.68723676982238 56.68723676982238 56.718000366233284 56.68723676982238 56.718000366233284 56.68723676982238 56.718000366233284 56.718000366233284 56.718000366233284 56.748763962644205 56.748763962644205 56.748763962644205 56.748763962644205 56.748763962644205 56.748763962644205 56.77952755905512 56.81029115546603 56.841054751876946 56.841054751876946 56.841054751876946 56.87181834828786 56.87181834828786 56.87181834828786 56.87181834828786 56.87181834828786 56.87181834828786 56.87181834828786 56.87181834828786 56.87181834828786 56.87181834828786 56.841054751876946 56.87181834828786 56.841054751876946 56.841054751876946 56.841054751876946 56.841054751876946 56.841054751876946 56.841054751876946 56.841054751876946 56.841054751876946 56.841054751876946 56.81029115546603 56.81029115546603 56.81029115546603 56.81029115546603 56.81029115546603 56.81029115546603 56.81029115546603 56.81029115546603 56.77952755905512 56.81029115546603 56.81029115546603 56.81029115546603 56.81029115546603 56.81029115546603 56.77952755905512 56.748763962644205 56.718000366233284 56.59494598058963 56.502655191356894 56.41036440212415 56.31807361289141 56.16425563083684 56.10272843801501 55.91814685954953 55.82585607031679 55.61051089544039 55.45669291338582 55.33363852774217 55.179820545687605 55.05676616004395 54.90294817798937 54.74913019593481 54.65683940670207 54.47225782823658 54.25691265336019 54.16462186412745 53.980040285661964 53.85698590001831 53.67240432155283 53.48782274308734 53.3955319538546 53.14942318256729 52.811023622047244 52.68796923640359 52.44186046511628 52.288042483061716 52.103460904596226 51.88811572971983 51.61124336202161 51.39589818714521 51.211316608679724 51.08826222303607 51.05749862662516 51.02673503021424 50.934444240981506 50.78062625892693 50.71909906610511 50.534517487639626 50.41146310199597 50.288408716352315 50.134590734297745 50.01153634865409 49.79619117377769 49.61160959531221 49.45779161325764 49.21168284197033 49.027101263504846 48.719465299395715 48.53488372093023 48.38106573887566 48.13495696758835 47.85808459989013 47.70426661783556 47.48892144295917 47.33510346090459 47.08899468961728 46.904413111151804 46.71983153268632 46.504486357809924 46.25837758652261 46.104559604468044 46.0122688152353 46.196850393700785 46.28914118293353 46.28914118293353 46.25837758652261 46.16608679728987 46.043032411646216 45.950741622413474 45.79692364035891 45.70463285112616 45.58157846548251 45.45852407983885 45.396996887017025 45.3354696941952 45.15088811572972 45.12012451931881 45.12012451931881 45.089360922907886 45.05859732649698 45.02783373008606 44.99707013367515 44.874015748031496 44.75096136238784 44.6586705731551 44.50485259110053 44.35103460904596 44.19721662699139 44.074162241347736 43.981871452114994 43.828053470060425 43.7665262772386 43.64347189159494 43.39736312030763 43.274308734663975 43.0897271561985 42.93590917414393 42.812854788500275 42.72056399926753 42.59750961362388 42.505218824391136 42.38216443874748 42.32063724592565 42.22834645669291 42.13605566746017 42.04376487822743 41.951474088994686 41.88994689617286 41.7668925105292 41.67460172129647 41.58231093206372 41.490020142830986 41.336202160776416 41.243911371543675 41.15162058231093 41.05932979307819 40.90551181102362 40.75169382896905 40.56711225050357 40.35176707562717 40.16718549716169 39.982603918696206 39.82878593664164 39.644204358176154 39.39809558688884 39.15198681560154 38.967405237136056 38.721296465848745 38.413660501739606 38.167551730452296 37.921442959164985 37.70609778428859 37.398461820179456 37.152353048892145 36.906244277604834 36.66013550631752 36.29097234938656 36.13715436733199 35.98333638527742 35.82951840322285 35.61417322834646 35.46035524629189 35.337300860648234 35.183482878593665 34.96813770371727 34.937374107306354 34.8143197216627 34.69126533601904 34.537447353964474 34.383629371909905 34.29133858267716 34.16828419703351 34.10675700421168 34.01446621497894 33.95293902215711 33.922175425746204 33.89141182933528 33.829884636513455 33.79912104010255 33.73759384728072 33.7068302508698 33.7068302508698 33.64530305804798 33.614539461637065 33.49148507599341 33.39919428676067 33.30690349752793 33.214612708295185 33.12232191906244 33.060794726240616 33.0300311298297 32.93774034059696 32.84544955136422 32.72239516572056 32.63010437648782 32.53781358725508 32.47628639443325 32.38399560520051 32.3532320087896 32.32246841237868 32.29170481596777 32.260941219556855 32.260941219556855 32.19941402673503 32.168650430324114 32.107123237502286 32.07635964109137 32.04559604468046 31.984068851858634 31.891778062625892 31.830250869804065 31.737960080571323 31.676432887749495 31.584142098516754 31.522614905694926 31.491851309284012 31.430324116462188 31.399560520051274 31.36879692364036 31.245742537996705 31.184215345174877 31.030397363120308 30.907342977476652 30.845815784654825 30.72276139901117 30.599707013367514 30.507416224134772 30.415125434902034 30.29207104925838 30.199780260025637 30.07672587438198 30.045962277971068 29.98443508514924 29.953671488738326 29.861380699505585 29.799853506683757 29.769089910272843 29.73832631386193 29.707562717451015 29.707562717451015 29.6767991210401 29.646035524629188 29.646035524629188 29.646035524629188 29.646035524629188 29.615271928218274 29.553744735396446 29.553744735396446 29.522981138985532 29.49221754257462 29.49221754257462 29.461453946163708 29.461453946163708 29.39992675334188 29.39992675334188 29.39992675334188 29.39992675334188 29.39992675334188 29.39992675334188 29.39992675334188 29.39992675334188 29.39992675334188 29.39992675334188 29.39992675334188 29.39992675334188 29.369163156930966 29.369163156930966 29.369163156930966 29.369163156930966 29.338399560520052 29.338399560520052 29.338399560520052 29.338399560520052 29.30763596410914 29.30763596410914 29.276872367698225 29.276872367698225 29.276872367698225 29.24610877128731 29.24610877128731 29.215345174876397 29.215345174876397 29.184581578465483 29.184581578465483 29.15381798205457 29.15381798205457 29.15381798205457 29.15381798205457 29.15381798205457 29.15381798205457 29.15381798205457 29.15381798205457 29.15381798205457 29.15381798205457 29.15381798205457 29.15381798205457 29.15381798205457 29.15381798205457 29.15381798205457 29.15381798205457 29.15381798205457 29.15381798205457 29.15381798205457 29.15381798205457 29.15381798205457 29.15381798205457 29.123054385643655 29.15381798205457 29.123054385643655 29.123054385643655 29.123054385643655 29.123054385643655 29.123054385643655 29.123054385643655 29.123054385643655 29.15381798205457 29.123054385643655 29.15381798205457 29.123054385643655 29.123054385643655 29.123054385643655 29.123054385643655 29.123054385643655 29.123054385643655 29.123054385643655 29.123054385643655 29.123054385643655 29.123054385643655 29.123054385643655 29.123054385643655 29.123054385643655 29.123054385643655 29.123054385643655 29.123054385643655 29.123054385643655 29.123054385643655 29.123054385643655 29.123054385643655 29.123054385643655 29.123054385643655 29.123054385643655 29.123054385643655 29.09229078923274 29.123054385643655 29.123054385643655 29.123054385643655 29.123054385643655 29.123054385643655 29.123054385643655 29.123054385643655 29.123054385643655 29.123054385643655 29.09229078923274 29.09229078923274 29.09229078923274 29.09229078923274 29.09229078923274 29.123054385643655 29.09229078923274 29.123054385643655 29.123054385643655 29.09229078923274 29.123054385643655 29.09229078923274 29.09229078923274 29.09229078923274 29.09229078923274 29.09229078923274 29.09229078923274 29.09229078923274 29.09229078923274 29.09229078923274 29.09229078923274 29.09229078923274 29.09229078923274 29.09229078923274 29.09229078923274 29.09229078923274 29.09229078923274 29.09229078923274 29.09229078923274 29.09229078923274 29.09229078923274 29.09229078923274 29.09229078923274 29.09229078923274 29.09229078923274 29.09229078923274 29.09229078923274 29.09229078923274 29.09229078923274 29.09229078923274 29.09229078923274 29.09229078923274 29.09229078923274 29.09229078923274 29.09229078923274 29.09229078923274 29.09229078923274 29.09229078923274 29.09229078923274 29.09229078923274 29.09229078923274 29.061527192821828 29.09229078923274 29.09229078923274 29.09229078923274 29.09229078923274 29.09229078923274 29.09229078923274 29.09229078923274 29.09229078923274 29.09229078923274 29.09229078923274 29.09229078923274 29.09229078923274 29.09229078923274 29.09229078923274 29.09229078923274 29.09229078923274 29.09229078923274 29.09229078923274 29.061527192821828 29.09229078923274 29.061527192821828 29.061527192821828 29.09229078923274 29.09229078923274 29.09229078923274 29.09229078923274 29.061527192821828 29.09229078923274 29.061527192821828 29.09229078923274 29.09229078923274 29.09229078923274 29.061527192821828 29.09229078923274 29.061527192821828 29.09229078923274 29.09229078923274 29.09229078923274 29.09229078923274 29.09229078923274 29.09229078923274 29.09229078923274 29.09229078923274 29.09229078923274 29.09229078923274 29.09229078923274 29.09229078923274 29.061527192821828 29.09229078923274 29.09229078923274 29.09229078923274 29.061527192821828 29.061527192821828 29.09229078923274 29.09229078923274 29.061527192821828 29.061527192821828 29.061527192821828 29.09229078923274 29.09229078923274 29.061527192821828 29.09229078923274 29.061527192821828 29.061527192821828 29.061527192821828 29.061527192821828 29.061527192821828 29.061527192821828 29.09229078923274 29.061527192821828 29.09229078923274 29.061527192821828 29.061527192821828 29.061527192821828 29.061527192821828 29.09229078923274 29.061527192821828 29.061527192821828 29.061527192821828 29.061527192821828 29.061527192821828 29.061527192821828 29.061527192821828 29.061527192821828 29.061527192821828 29.061527192821828 29.061527192821828 29.061527192821828 29.061527192821828 29.061527192821828 29.061527192821828 29.061527192821828 29.061527192821828 29.061527192821828 29.061527192821828 29.061527192821828 29.061527192821828 29.061527192821828 29.061527192821828 29.061527192821828 29.061527192821828 29.061527192821828 29.061527192821828 29.061527192821828 29.061527192821828 29.061527192821828 29.061527192821828 29.061527192821828 29.061527192821828 29.061527192821828 29.061527192821828 29.061527192821828 29.061527192821828 29.061527192821828 29.061527192821828 29.061527192821828 29.061527192821828 29.061527192821828 29.061527192821828 29.061527192821828 29.061527192821828 29.061527192821828 29.061527192821828 29.061527192821828 29.061527192821828 29.061527192821828 29.061527192821828 29.061527192821828 29.061527192821828 29.061527192821828 29.061527192821828 29.061527192821828 29.061527192821828 29.061527192821828 29.061527192821828 29.061527192821828 29.061527192821828 29.061527192821828 29.061527192821828 29.061527192821828 29.061527192821828 29.061527192821828 29.061527192821828 29.061527192821828 29.061527192821828 29.061527192821828 29.061527192821828 29.061527192821828 29.061527192821828 29.061527192821828 29.061527192821828 29.061527192821828 29.061527192821828 29.061527192821828 29.061527192821828 29.061527192821828 29.061527192821828 29.061527192821828 29.061527192821828 29.061527192821828 29.061527192821828 29.061527192821828 29.061527192821828 29.061527192821828 29.061527192821828 29.061527192821828 29.061527192821828 29.061527192821828 29.061527192821828 29.061527192821828 29.061527192821828 29.061527192821828 29.061527192821828 29.061527192821828 29.061527192821828 29.061527192821828 29.030763596410914 29.030763596410914 29.061527192821828 29.061527192821828 29.061527192821828 29.061527192821828 29.061527192821828 29.061527192821828 29.061527192821828 29.030763596410914 29.061527192821828 29.061527192821828 29.030763596410914 29.030763596410914 29.030763596410914 29.061527192821828 29.030763596410914 29.061527192821828 29.061527192821828 29.061527192821828 29.030763596410914 29.061527192821828 29.061527192821828 29.061527192821828 29.061527192821828 29.061527192821828 29.061527192821828 29.030763596410914 29.061527192821828 29.030763596410914 29.061527192821828 29.061527192821828 29.030763596410914 29.061527192821828 29.030763596410914 29.030763596410914 29.061527192821828 29.061527192821828 29.061527192821828 29.030763596410914 29.030763596410914 29.030763596410914 29.030763596410914 29.061527192821828 29.030763596410914 29.030763596410914 29.030763596410914 29.030763596410914 29.030763596410914 29.030763596410914 29.030763596410914 29.030763596410914 29.030763596410914 29.030763596410914 29.030763596410914 29.030763596410914 29.061527192821828 29.030763596410914 29.030763596410914 29.030763596410914 29.030763596410914 29.030763596410914 29.030763596410914 29.030763596410914 29.030763596410914 29.030763596410914 29.030763596410914 29.030763596410914 29.030763596410914 29.061527192821828 29.030763596410914 29.030763596410914 29.030763596410914 29.030763596410914 29.030763596410914 29.030763596410914 29.030763596410914 29.030763596410914 29.030763596410914 29.030763596410914 29.030763596410914 29.030763596410914 29.030763596410914 29.030763596410914 29.030763596410914 29.030763596410914 29.030763596410914 29.030763596410914 29.030763596410914 29.030763596410914 29.030763596410914 29.030763596410914 29.030763596410914 29.030763596410914 29.030763596410914 29.030763596410914 29.030763596410914 29.030763596410914 29.030763596410914 29.030763596410914 29.030763596410914 29.030763596410914 29.030763596410914 29.030763596410914 29.030763596410914 29.030763596410914 29.030763596410914 29.030763596410914 29.030763596410914 29.030763596410914 29.030763596410914 29.030763596410914 29.030763596410914 29.030763596410914 29.030763596410914 29.030763596410914 29.030763596410914 29.030763596410914 29.030763596410914 29.030763596410914 29.030763596410914 29.030763596410914 29.030763596410914 29.030763596410914 29.030763596410914 29.030763596410914 29.030763596410914 29.030763596410914 29.030763596410914 29.030763596410914 29.030763596410914 29.030763596410914 29.030763596410914 29.030763596410914 29.030763596410914 29.030763596410914 29.030763596410914 29.030763596410914 29.030763596410914 29.030763596410914 29.030763596410914 29.030763596410914 29.030763596410914 29.030763596410914 29.030763596410914 29.030763596410914 29.030763596410914 29.030763596410914 29.030763596410914 29.030763596410914 29.030763596410914 29.030763596410914 29.030763596410914 29.030763596410914 29.030763596410914 29.030763596410914 29.030763596410914 29.030763596410914 29.030763596410914 29.030763596410914 29.030763596410914 29.030763596410914 29.030763596410914 29.030763596410914 29.030763596410914 29.030763596410914 29.030763596410914 29.030763596410914 29.030763596410914 29.030763596410914 29.030763596410914 29.030763596410914 29.030763596410914 29.030763596410914 29.030763596410914 29.030763596410914 29.030763596410914 29.030763596410914 29.030763596410914 29.030763596410914 29.030763596410914 29.030763596410914 29.030763596410914 29.030763596410914 29.030763596410914 29.030763596410914 29.030763596410914 29.030763596410914 29.030763596410914 29.030763596410914 29.030763596410914 29.030763596410914 29.030763596410914 29.030763596410914 29.030763596410914 29.030763596410914 29.030763596410914 29.030763596410914 29.030763596410914 29.030763596410914 29.030763596410914 29.030763596410914 29.030763596410914 29.030763596410914 29.030763596410914 29.030763596410914 29.030763596410914 29.030763596410914 29.030763596410914 29.030763596410914 29.030763596410914 29.030763596410914 29.030763596410914 29.030763596410914 29.030763596410914 29.030763596410914 29.030763596410914 29.030763596410914 29.030763596410914 29.030763596410914 29.030763596410914 29.030763596410914 29.030763596410914 29.030763596410914 29.030763596410914 29.0 29.030763596410914 29.030763596410914 29.030763596410914 29.030763596410914 29.030763596410914 29.030763596410914 29.030763596410914 29.030763596410914 29.030763596410914 29.030763596410914 29.030763596410914 29.030763596410914 29.030763596410914 29.030763596410914 29.030763596410914 29.030763596410914 29.030763596410914 29.030763596410914 29.030763596410914 29.030763596410914 29.030763596410914 29.030763596410914 29.030763596410914 29.030763596410914 29.030763596410914 29.030763596410914 29.0 29.030763596410914 29.030763596410914 29.030763596410914 29.030763596410914 29.030763596410914 29.030763596410914 29.030763596410914 29.030763596410914 29.030763596410914 29.030763596410914 29.030763596410914 29.030763596410914 29.030763596410914 29.030763596410914 29.030763596410914 29.030763596410914 29.030763596410914 29.030763596410914 29.030763596410914 29.030763596410914 29.030763596410914 29.030763596410914 29.030763596410914 29.030763596410914 29.030763596410914 29.030763596410914 29.030763596410914 29.030763596410914 29.030763596410914 29.030763596410914 29.030763596410914 29.030763596410914 29.030763596410914 29.030763596410914 29.030763596410914 29.030763596410914 29.030763596410914 29.030763596410914 29.030763596410914 29.030763596410914 29.030763596410914 29.030763596410914 29.030763596410914 29.030763596410914 29.030763596410914 29.030763596410914 29.030763596410914 29.0 29.030763596410914 29.030763596410914 29.0 29.030763596410914 29.030763596410914 29.030763596410914 29.0 29.0 29.030763596410914 29.0 29.030763596410914 29.0 29.030763596410914 29.0 29.0 29.030763596410914 29.030763596410914 29.0 29.030763596410914 29.0 29.030763596410914 29.030763596410914 29.030763596410914 29.030763596410914 29.030763596410914 29.0 29.0 29.030763596410914 29.030763596410914 29.0 29.030763596410914 29.0 29.0 29.030763596410914 29.030763596410914 29.030763596410914 29.0 29.0 29.0 29.0 29.030763596410914 29.0 29.0 29.030763596410914 29.030763596410914 29.030763596410914 29.030763596410914 29.030763596410914 29.030763596410914 29.0 29.0 29.030763596410914 29.030763596410914 29.0 29.030763596410914 29.030763596410914 29.030763596410914 29.030763596410914 29.030763596410914 29.030763596410914 29.0 29.0 29.030763596410914 29.030763596410914 29.0 29.030763596410914 29.0 29.030763596410914 29.0 29.030763596410914 29.030763596410914 29.0 29.030763596410914 29.0 29.030763596410914 29.030763596410914 29.0 29.0 29.030763596410914 29.030763596410914 29.0 29.030763596410914 29.030763596410914 29.0 29.030763596410914 29.0 29.030763596410914 29.030763596410914 29.030763596410914 29.0 29.0 29.030763596410914 29.0 29.030763596410914 29.030763596410914 29.030763596410914 29.0 29.030763596410914 29.030763596410914 29.0 29.030763596410914 29.0 29.0 29.030763596410914 29.030763596410914 29.030763596410914 29.030763596410914 29.030763596410914 29.030763596410914 29.030763596410914 29.030763596410914 29.030763596410914 29.030763596410914 29.030763596410914 29.030763596410914 29.030763596410914 29.030763596410914 29.030763596410914 29.030763596410914 29.030763596410914 29.030763596410914 29.061527192821828 29.061527192821828 29.061527192821828 29.061527192821828 29.061527192821828 29.061527192821828 29.061527192821828 29.061527192821828 29.09229078923274 29.09229078923274 29.09229078923274 29.09229078923274 29.09229078923274 29.09229078923274 29.09229078923274 29.09229078923274 29.123054385643655 29.123054385643655 29.123054385643655 29.123054385643655 29.15381798205457 29.15381798205457 29.15381798205457 29.184581578465483 29.184581578465483 29.184581578465483 29.184581578465483 29.215345174876397 29.24610877128731 29.276872367698225 29.276872367698225 29.30763596410914 29.30763596410914 29.338399560520052 29.369163156930966 29.39992675334188 29.430690349752794 29.461453946163708 29.49221754257462 29.522981138985532 29.553744735396446 29.615271928218274 29.646035524629188 29.707562717451015 29.73832631386193 29.83061710309467 29.8921442959165 29.953671488738326 30.015198681560154 30.07672587438198 30.107489470792896 30.169016663614723 30.261307452847465 30.322834645669293 30.38436183849112 30.47665262772386 30.538179820545686 30.599707013367514 30.691997802600255 30.753524995422083 30.81505218824391 30.87657938106574 30.907342977476652 30.845815784654825 30.81505218824391 30.81505218824391 30.87657938106574 30.87657938106574 30.938106573887566 30.999633766709394 31.06116095953122 31.091924555942136 31.12268815235305 31.12268815235305 31.12268815235305 31.12268815235305 31.153451748763963 31.21497894158579 31.27650613440762 31.338033327229446 31.430324116462188 31.522614905694926 31.584142098516754 31.64566929133858 31.737960080571323 31.79948727339315 31.891778062625892 32.014832448269544 32.1378868339132 32.07635964109137 31.86101446621498 31.830250869804065 31.86101446621498 31.95330525544772 32.1378868339132 32.568577183665994 32.814685954953305 33.09155832265153 33.55301226881524 33.67606665445889 34.10675700421168 34.383629371909905 34.5989745467863 34.783556125251785 34.937374107306354 35.09119208936092 35.24501007141549 35.30653726423732 35.46035524629189 35.61417322834646 35.76799121040103 35.89104559604468 36.01409998168833 36.198681560153815 36.41402673503021 36.506317524262954 36.598608313495696 36.72166269913935 36.93700787401575 37.18311664530306 37.459989013001284 37.58304339864493 37.859915766343164 38.04449734480864 38.22907892327412 38.475187694561434 38.721296465848745 38.99816883354697 39.15198681560154 39.33656839406702 39.39809558688884 39.55191356894342 39.61344076176525 39.70573155099798 39.890313129463465 40.07489470792895 40.1979490935726 40.444057864859914 40.690166636147225 40.87474821461271 40.997802600256364 41.18238417872185 41.39772935359824 41.797656106940124 42.013001281816514 42.28987364951474 42.53598242080205 42.905145577733016 43.305072331074896 43.612708295184035 43.92034425929317 44.32027101263505 44.59714338033327 44.96630653726424 45.30470609778429 45.61234206189343 45.91997802600257 46.104559604468044 46.504486357809924 46.68906793627541 46.87364951474089 47.1197582860282 47.304339864493684 47.519685039370074 47.64273942501373 47.765793810657385 48.011902581944696 48.165720563999265 48.28877494964292 48.44259293169749 48.62717451016297 48.780992492217536 48.96557407068302 49.1501556491485 49.334737227613985 49.51931880607947 49.70390038454495 49.91924555942135 50.01153634865409 50.19611792711957 50.41146310199597 50.56528108405054 50.74986266251602 50.995971433803334 51.149789415857896 51.39589818714521 51.457425379967034 51.703534151254345 51.85735213330892 51.949642922541656 52.19575169382897 52.47262406152719 52.56491485075993 52.68796923640359 52.811023622047244 52.96484160410181 53.18018677897821 53.364768357443694 53.48782274308734 53.70316791796374 53.88774949642922 54.10309467130563 54.379967039003844 54.59531221388024 54.77989379234572 54.99523896722212 55.21058414209851 55.36440212415309 55.70280168467313 55.91814685954953 56.0719648416041 56.28731001648049 56.502655191356894 56.656473173411456 56.81029115546603 56.93334554110969 57.056399926753336 57.179454312397 57.240981505218826 57.33327229445156 57.4255630836843 57.456326680095216 57.48709027650613 57.48709027650613 57.48709027650613 57.48709027650613 57.456326680095216 57.4255630836843 57.4255630836843 57.4255630836843 57.4255630836843 57.39479948727339 57.36403589086248 57.33327229445156 57.302508698040654 57.27174510162973 57.240981505218826 57.240981505218826 57.240981505218826 57.240981505218826 57.240981505218826 57.240981505218826 57.240981505218826 57.240981505218826 57.27174510162973 57.240981505218826 57.240981505218826 57.27174510162973 57.240981505218826 57.240981505218826 57.240981505218826 57.240981505218826 57.27174510162973 57.27174510162973 57.302508698040654 57.302508698040654 57.302508698040654 57.302508698040654 57.302508698040654 57.302508698040654 57.33327229445156 57.302508698040654 57.302508698040654 57.302508698040654 57.302508698040654 57.302508698040654 57.302508698040654 57.302508698040654 57.27174510162973 57.27174510162973 57.302508698040654 57.27174510162973 57.27174510162973 57.27174510162973 57.27174510162973 57.27174510162973 57.240981505218826 57.27174510162973 57.27174510162973 57.27174510162973 57.27174510162973 57.240981505218826 57.27174510162973 57.27174510162973 57.27174510162973 57.27174510162973 57.27174510162973 57.27174510162973 57.27174510162973 57.27174510162973 57.27174510162973 57.302508698040654 57.27174510162973 57.27174510162973 57.240981505218826 57.210217908807905 57.14869071598608 57.056399926753336 56.994872733931516 56.90258194469877 56.841054751876946 56.748763962644205 56.62570957700055 56.56418238417872 56.41036440212415 56.31807361289141 56.25654642006958 56.16425563083684 56.16425563083684 56.13349203442593 56.10272843801501 56.0719648416041 56.041201245193186 56.041201245193186 56.041201245193186 56.041201245193186 56.01043764878227 56.041201245193186 56.041201245193186 56.01043764878227 56.041201245193186 56.041201245193186 56.01043764878227 56.01043764878227 56.01043764878227 56.041201245193186 56.041201245193186 56.01043764878227 56.01043764878227 56.01043764878227 56.041201245193186 56.01043764878227 56.01043764878227 56.01043764878227 56.041201245193186 56.01043764878227 56.01043764878227 56.01043764878227 56.01043764878227 56.041201245193186 56.01043764878227 56.01043764878227 56.041201245193186 56.041201245193186 56.01043764878227 56.041201245193186 56.041201245193186 56.041201245193186 56.01043764878227 56.041201245193186 56.01043764878227 56.01043764878227 56.041201245193186 56.01043764878227 56.01043764878227 56.01043764878227 56.041201245193186 56.01043764878227 56.01043764878227 56.01043764878227 56.01043764878227 56.01043764878227 56.01043764878227 56.01043764878227 56.01043764878227 56.01043764878227 56.01043764878227 56.01043764878227 55.948910455960444 55.97967405237136 55.948910455960444 55.91814685954953 55.88738326313862 55.88738326313862 55.88738326313862 55.85661966672771 55.88738326313862 55.85661966672771 55.85661966672771 55.85661966672771 55.85661966672771 55.85661966672771 55.85661966672771 55.85661966672771 55.88738326313862 55.85661966672771 55.85661966672771 55.85661966672771 55.85661966672771 55.85661966672771 55.85661966672771 55.82585607031679 55.85661966672771 55.85661966672771 55.85661966672771 55.85661966672771 55.85661966672771 55.85661966672771 55.85661966672771 55.85661966672771 55.85661966672771 55.85661966672771 55.85661966672771 55.88738326313862 55.85661966672771 55.88738326313862 55.88738326313862 55.88738326313862 55.88738326313862 55.88738326313862 55.88738326313862 55.88738326313862 55.88738326313862 55.85661966672771 55.85661966672771 55.88738326313862 55.85661966672771 55.85661966672771 55.85661966672771 55.85661966672771 55.85661966672771 55.85661966672771 55.85661966672771 55.85661966672771 55.82585607031679 55.85661966672771 55.82585607031679 55.82585607031679 55.85661966672771 55.82585607031679 55.85661966672771 55.82585607031679 55.82585607031679 55.85661966672771 55.85661966672771 55.85661966672771 55.85661966672771 55.85661966672771 55.85661966672771 55.85661966672771 55.85661966672771 55.88738326313862 55.85661966672771 55.88738326313862 55.88738326313862 55.85661966672771 55.85661966672771 55.85661966672771 55.85661966672771 55.85661966672771 55.85661966672771 55.85661966672771 55.85661966672771 55.85661966672771 55.85661966672771 55.85661966672771 55.82585607031679 55.85661966672771 55.85661966672771 55.85661966672771 55.82585607031679 55.85661966672771 55.85661966672771 55.85661966672771 55.85661966672771 55.85661966672771 55.85661966672771 55.85661966672771 55.85661966672771 55.85661966672771 55.85661966672771 55.85661966672771 55.85661966672771 55.85661966672771 55.85661966672771 55.85661966672771 55.85661966672771 55.88738326313862 55.85661966672771 55.88738326313862 55.85661966672771 55.85661966672771 55.85661966672771 55.85661966672771 55.85661966672771 55.88738326313862 55.85661966672771 55.85661966672771 55.85661966672771 55.85661966672771 55.85661966672771 55.82585607031679 55.85661966672771 55.85661966672771 55.85661966672771 55.85661966672771 55.85661966672771 55.85661966672771 55.85661966672771 55.85661966672771 55.85661966672771 55.85661966672771 55.88738326313862 55.85661966672771 55.88738326313862 55.91814685954953 55.948910455960444 55.948910455960444 56.01043764878227 56.01043764878227 56.041201245193186 56.01043764878227 56.041201245193186 56.041201245193186 56.041201245193186 56.01043764878227 56.01043764878227 56.01043764878227 56.01043764878227 55.97967405237136 55.948910455960444 55.91814685954953 55.85661966672771 55.82585607031679 55.70280168467313 55.61051089544039 55.54898370261857 55.45669291338582 55.395165720563995 55.27211133492034 55.21058414209851 55.149056949276684 54.99523896722212 54.872184581578466 54.74913019593481 54.59531221388024 54.44149423182567 54.2876762497711 53.980040285661964 53.85698590001831 53.73393151437466 53.580113532320084 53.45705914667643 53.303241164621866 53.118659586156376 52.9340780076909 52.718732832814496 52.56491485075993 52.38033327229445 52.22651529023988 52.07269730818531 51.76506134407617 51.64200695843252 51.42666178355613 51.211316608679724 51.149789415857896 50.87291704815968 50.78062625892693 50.65757187328328 50.50375389122871 50.41146310199597 50.288408716352315 50.042299945065004 49.91924555942135 49.79619117377769 49.642373191723124 49.51931880607947 49.27321003479216 49.1501556491485 48.96557407068302 48.6887017029848 48.50412012451932 48.319538546053835 48.073429774766524 47.73503021424648 47.550448635780995 47.27357626808276 46.904413111151804 46.56601355063175 46.41219556857718 45.98150521882439 45.70463285112616 45.30470609778429 44.99707013367515 44.75096136238784 44.474088994689616 44.25874381981322 44.074162241347736 43.7665262772386 43.73576268082768 43.67423548800586 43.45889031312946 43.305072331074896 43.18201794543124 43.058963559787585 42.905145577733016 42.84361838491119 42.812854788500275 42.659036806445705 42.412928035158394 42.16681926387108 41.88994689617286 41.64383812488555 41.36696575718733 40.997802600256364 40.78245742537997 40.413294268449 40.1979490935726 40.01336751510712 40.01336751510712 40.07489470792895 39.982603918696206 39.7364951474089 39.5211499725325 39.275041201245195 39.028932429957884 38.78282365867057 38.567478483794176 38.35213330891778 38.167551730452296 37.9522065555759 37.767624977110415 37.552279802234025 37.42922541659037 37.306171030946714 37.152353048892145 36.96777147042666 36.84471708478301 36.62937190990661 36.506317524262954 36.32173594579747 36.13715436733199 36.01409998168833 35.89104559604468 35.82951840322285 35.61417322834646 35.583409631935545 35.46035524629189 35.39882805347006 35.27577366782641 35.183482878593665 34.99890130012818 34.96813770371727 34.8143197216627 34.72202893242996 34.5989745467863 34.50668375755356 34.32210217908808 34.229811389855335 34.137520600622594 34.04522981138985 33.95293902215711 33.89141182933528 33.829884636513455 33.73759384728072 33.67606665445889 33.58377586522615 33.522248672404324 33.460721479582496 33.368430690349754 33.30690349752793 33.2453763047061 33.18384911188427 33.12232191906244 33.060794726240616 32.93774034059696 32.87621314777513 32.814685954953305 32.72239516572056 32.660867972898735 32.568577183665994 32.47628639443325 32.44552279802234 32.38399560520051 32.32246841237868 32.260941219556855 32.168650430324114 32.1378868339132 32.04559604468046 32.014832448269544 31.95330525544772 31.922541659036806 31.86101446621498 31.79948727339315 31.676432887749495 31.64566929133858 31.55337850210584 31.461087712873102 31.399560520051274 31.307269730818533 31.27650613440762 31.12268815235305 31.06116095953122 30.999633766709394 30.87657938106574 30.81505218824391 30.753524995422083 30.691997802600255 30.630470609778428 30.5689434169566 30.47665262772386 30.445889031312948 30.38436183849112 30.322834645669293 30.29207104925838 30.23054385643655 30.199780260025637 30.169016663614723 30.107489470792896 30.045962277971068 29.98443508514924 29.922907892327412 29.8921442959165 29.861380699505585 29.83061710309467 29.799853506683757 29.769089910272843 29.769089910272843 29.73832631386193 29.707562717451015 29.6767991210401 29.6767991210401 29.646035524629188 29.646035524629188 29.58450833180736 29.58450833180736 29.553744735396446 29.522981138985532 29.522981138985532 29.49221754257462 29.461453946163708 29.430690349752794 29.430690349752794 29.39992675334188 29.39992675334188 29.39992675334188 29.369163156930966 29.369163156930966 29.369163156930966 29.369163156930966 29.369163156930966 29.369163156930966 29.369163156930966 29.369163156930966 29.369163156930966 29.369163156930966 29.369163156930966 29.369163156930966 29.338399560520052 29.338399560520052 29.338399560520052 29.338399560520052 29.30763596410914 29.30763596410914 29.30763596410914 29.30763596410914 29.30763596410914 29.276872367698225 29.276872367698225 29.276872367698225 29.276872367698225 29.276872367698225 29.24610877128731 29.24610877128731 29.24610877128731 29.24610877128731 29.24610877128731 29.24610877128731 29.24610877128731 29.24610877128731 29.24610877128731 29.24610877128731 29.24610877128731 29.215345174876397 29.215345174876397 29.24610877128731 29.215345174876397 29.215345174876397 29.215345174876397 29.215345174876397 29.215345174876397 29.215345174876397 29.215345174876397 29.215345174876397 29.215345174876397 29.215345174876397 29.215345174876397 29.215345174876397 29.215345174876397 29.215345174876397 29.215345174876397 29.215345174876397 29.215345174876397 29.215345174876397 29.215345174876397 29.215345174876397 29.215345174876397 29.215345174876397 29.215345174876397 29.215345174876397 29.215345174876397 29.215345174876397 29.215345174876397 29.215345174876397 29.215345174876397 29.215345174876397 29.215345174876397 29.215345174876397 29.215345174876397 29.215345174876397 29.215345174876397 29.215345174876397 29.215345174876397 29.215345174876397 29.215345174876397 29.215345174876397 29.184581578465483 29.215345174876397 29.215345174876397 29.215345174876397 29.184581578465483 29.215345174876397 29.184581578465483 29.215345174876397 29.184581578465483 29.184581578465483 29.184581578465483 29.184581578465483 29.184581578465483 29.184581578465483 29.184581578465483 29.184581578465483 29.184581578465483 29.184581578465483 29.184581578465483 29.184581578465483 29.184581578465483 29.184581578465483 29.184581578465483 29.184581578465483 29.184581578465483 29.184581578465483 29.184581578465483 29.184581578465483 29.184581578465483 29.184581578465483 29.184581578465483 29.184581578465483 29.184581578465483 29.184581578465483 29.184581578465483 29.184581578465483 29.184581578465483 29.184581578465483 29.184581578465483 29.184581578465483 29.184581578465483 29.184581578465483 29.184581578465483 29.184581578465483 29.184581578465483 29.184581578465483 29.184581578465483 29.184581578465483 29.184581578465483 29.184581578465483 29.184581578465483 29.184581578465483 29.184581578465483 29.15381798205457 29.15381798205457 29.15381798205457 29.15381798205457 29.15381798205457 29.15381798205457 29.15381798205457 29.15381798205457 29.15381798205457 29.15381798205457 29.184581578465483 29.15381798205457 29.15381798205457 29.15381798205457 29.15381798205457 29.15381798205457 29.15381798205457 29.15381798205457 29.15381798205457 29.15381798205457 29.15381798205457 29.15381798205457 29.15381798205457 29.15381798205457 29.15381798205457 29.15381798205457 29.15381798205457 29.15381798205457 29.15381798205457 29.15381798205457 29.15381798205457 29.15381798205457 29.15381798205457 29.15381798205457 29.15381798205457 29.15381798205457 29.15381798205457 29.15381798205457 29.15381798205457 29.15381798205457 29.15381798205457 29.15381798205457 29.15381798205457 29.15381798205457 29.15381798205457 29.15381798205457 29.15381798205457 29.15381798205457 29.15381798205457 29.15381798205457 29.15381798205457 29.15381798205457 29.15381798205457 29.15381798205457 29.15381798205457 29.15381798205457 29.15381798205457 29.15381798205457 29.15381798205457 29.15381798205457 29.15381798205457 29.15381798205457 29.15381798205457 29.15381798205457 29.15381798205457 29.15381798205457 29.15381798205457 29.15381798205457 29.15381798205457 29.15381798205457 29.15381798205457 29.15381798205457 29.15381798205457 29.15381798205457 29.15381798205457 29.15381798205457 29.15381798205457 29.15381798205457 29.15381798205457 29.15381798205457 29.15381798205457 29.15381798205457 29.15381798205457 29.15381798205457 29.15381798205457 29.15381798205457 29.15381798205457 29.15381798205457 29.15381798205457 29.15381798205457 29.15381798205457 29.15381798205457 29.15381798205457 29.15381798205457 29.15381798205457 29.15381798205457 29.15381798205457 29.15381798205457 29.15381798205457 29.15381798205457 29.15381798205457 29.15381798205457 29.15381798205457 29.15381798205457 29.15381798205457 29.15381798205457 29.15381798205457 29.15381798205457 29.15381798205457 29.15381798205457 29.15381798205457 29.15381798205457 29.15381798205457 29.123054385643655 29.15381798205457 29.15381798205457 29.123054385643655 29.15381798205457 29.15381798205457 29.15381798205457 29.123054385643655 29.15381798205457 29.15381798205457 29.15381798205457 29.15381798205457 29.15381798205457 29.15381798205457 29.15381798205457 29.15381798205457 29.15381798205457 29.15381798205457 29.15381798205457 29.15381798205457 29.15381798205457 29.15381798205457 29.15381798205457 29.15381798205457 29.15381798205457 29.15381798205457 29.15381798205457 29.15381798205457 29.123054385643655 29.15381798205457 29.15381798205457 29.15381798205457 29.15381798205457 29.15381798205457 29.15381798205457 29.15381798205457 29.15381798205457 29.15381798205457 29.15381798205457 29.123054385643655 29.123054385643655 29.15381798205457 29.15381798205457 29.123054385643655 29.15381798205457 29.15381798205457 29.123054385643655 29.123054385643655 29.123054385643655 29.123054385643655 29.15381798205457 29.123054385643655 29.123054385643655 29.123054385643655 29.123054385643655 29.123054385643655 29.123054385643655 29.123054385643655 29.123054385643655 29.123054385643655 29.123054385643655 29.123054385643655 29.123054385643655 29.123054385643655 29.123054385643655 29.123054385643655 29.09229078923274 29.123054385643655 29.123054385643655 29.123054385643655 29.123054385643655 29.123054385643655 29.123054385643655 29.123054385643655 29.123054385643655 29.123054385643655 29.123054385643655 29.123054385643655 29.09229078923274 29.123054385643655 29.123054385643655 29.123054385643655 29.09229078923274 29.123054385643655 29.123054385643655 29.123054385643655 29.123054385643655 29.09229078923274 29.123054385643655 29.123054385643655 29.09229078923274 29.09229078923274 29.123054385643655 29.123054385643655 29.123054385643655 29.123054385643655 29.123054385643655 29.123054385643655 29.09229078923274 29.123054385643655 29.123054385643655 29.09229078923274 29.09229078923274 29.123054385643655 29.09229078923274 29.09229078923274 29.09229078923274 29.09229078923274 29.09229078923274 29.09229078923274 29.123054385643655 29.09229078923274 29.09229078923274 29.123054385643655 29.123054385643655 29.123054385643655 29.123054385643655 29.09229078923274 29.09229078923274 29.09229078923274 29.09229078923274 29.09229078923274 29.09229078923274 29.09229078923274 29.09229078923274 29.09229078923274 29.09229078923274 29.09229078923274 29.123054385643655 29.09229078923274 29.09229078923274 29.123054385643655 29.09229078923274 29.09229078923274 29.09229078923274 29.09229078923274 29.09229078923274 29.09229078923274 29.09229078923274 29.09229078923274 29.09229078923274 29.09229078923274 29.09229078923274 29.09229078923274 29.09229078923274 29.09229078923274 29.09229078923274 29.09229078923274 29.09229078923274 29.09229078923274 29.09229078923274 29.09229078923274 29.09229078923274 29.09229078923274 29.09229078923274 29.09229078923274 29.09229078923274 29.09229078923274 29.09229078923274 29.09229078923274 29.09229078923274 29.09229078923274 29.09229078923274 29.09229078923274 29.09229078923274 29.09229078923274 29.123054385643655 29.09229078923274 29.123054385643655 29.09229078923274 29.09229078923274 29.09229078923274 29.09229078923274 29.09229078923274 29.09229078923274 29.09229078923274 29.09229078923274 29.09229078923274 29.09229078923274 29.09229078923274 29.09229078923274 29.09229078923274 29.09229078923274 29.09229078923274 29.09229078923274 29.09229078923274 29.09229078923274 29.09229078923274 29.09229078923274 29.09229078923274 29.09229078923274 29.09229078923274 29.09229078923274 29.09229078923274 29.09229078923274 29.09229078923274 29.09229078923274 29.09229078923274 29.09229078923274 29.09229078923274 29.09229078923274 29.09229078923274 29.09229078923274 29.09229078923274 29.09229078923274 29.09229078923274 29.09229078923274 29.09229078923274 29.09229078923274 29.09229078923274 29.09229078923274 29.09229078923274 29.09229078923274 29.09229078923274 29.09229078923274 29.09229078923274 29.09229078923274 29.09229078923274 29.09229078923274 29.09229078923274 29.09229078923274 29.09229078923274 29.09229078923274 29.09229078923274 29.09229078923274 29.09229078923274 29.09229078923274 29.09229078923274 29.09229078923274 29.09229078923274 29.09229078923274 29.09229078923274 29.09229078923274 29.09229078923274 29.09229078923274 29.09229078923274 29.09229078923274 29.09229078923274 29.09229078923274 29.09229078923274 29.09229078923274 29.09229078923274 29.09229078923274 29.09229078923274 29.09229078923274 29.09229078923274 29.09229078923274 29.09229078923274 29.09229078923274 29.09229078923274 29.09229078923274 29.09229078923274 29.09229078923274 29.09229078923274 29.09229078923274 29.09229078923274 29.09229078923274 29.09229078923274 29.09229078923274 29.09229078923274 29.09229078923274 29.09229078923274 29.09229078923274 29.09229078923274 29.09229078923274 29.09229078923274 29.09229078923274 29.09229078923274 29.09229078923274 29.09229078923274 29.09229078923274 29.09229078923274 29.09229078923274 29.09229078923274 29.09229078923274 29.09229078923274 29.09229078923274 29.09229078923274 29.09229078923274 29.09229078923274 29.09229078923274 29.09229078923274 29.09229078923274 29.09229078923274 29.09229078923274 29.09229078923274 29.09229078923274 29.09229078923274 29.09229078923274 29.09229078923274 29.09229078923274 29.09229078923274 29.061527192821828 29.09229078923274 29.09229078923274 29.09229078923274 29.09229078923274 29.09229078923274 29.09229078923274 29.09229078923274 29.09229078923274 29.09229078923274 29.09229078923274 29.09229078923274 29.09229078923274 29.09229078923274 29.09229078923274 29.09229078923274 29.09229078923274 29.09229078923274 29.09229078923274 29.09229078923274 29.09229078923274 29.09229078923274 29.09229078923274 29.09229078923274 29.09229078923274 29.09229078923274 29.09229078923274 29.09229078923274 29.09229078923274 29.09229078923274 29.09229078923274 29.09229078923274 29.09229078923274 29.09229078923274 29.09229078923274 29.09229078923274 29.09229078923274 29.09229078923274 29.061527192821828 29.09229078923274 29.061527192821828 29.09229078923274 29.09229078923274 29.09229078923274 29.09229078923274 29.09229078923274 29.09229078923274 29.09229078923274 29.09229078923274 29.09229078923274 29.09229078923274 29.09229078923274 29.09229078923274 29.061527192821828 29.061527192821828 29.09229078923274 29.09229078923274 29.09229078923274 29.09229078923274 29.09229078923274 29.09229078923274 29.09229078923274 29.061527192821828 29.09229078923274 29.09229078923274 29.061527192821828 29.09229078923274 29.09229078923274 29.09229078923274 29.09229078923274 29.09229078923274 29.09229078923274 29.061527192821828 29.09229078923274 29.09229078923274 29.061527192821828 29.09229078923274 29.061527192821828 29.09229078923274 29.09229078923274 29.061527192821828 29.09229078923274 29.061527192821828 29.09229078923274 29.061527192821828 29.09229078923274 29.09229078923274 29.09229078923274 29.061527192821828 29.09229078923274 29.061527192821828 29.061527192821828 29.09229078923274 29.09229078923274 29.09229078923274 29.09229078923274 29.061527192821828 29.061527192821828 29.09229078923274 29.09229078923274 29.09229078923274 29.061527192821828 29.09229078923274 29.09229078923274 29.09229078923274 29.09229078923274 29.061527192821828 29.061527192821828 29.09229078923274 29.09229078923274 29.061527192821828 29.09229078923274 29.061527192821828 29.09229078923274 29.09229078923274 29.09229078923274 29.09229078923274 29.061527192821828 29.09229078923274 29.09229078923274 29.09229078923274 29.09229078923274 29.09229078923274 29.061527192821828 29.061527192821828 29.061527192821828 29.061527192821828 29.061527192821828 29.061527192821828 29.061527192821828 29.061527192821828 29.061527192821828 29.09229078923274 29.09229078923274 29.061527192821828 29.061527192821828 29.061527192821828 29.061527192821828 29.061527192821828 29.061527192821828 29.09229078923274 29.09229078923274 29.061527192821828 29.061527192821828 29.09229078923274 29.061527192821828 29.061527192821828 29.061527192821828 29.061527192821828 29.09229078923274 29.061527192821828 29.09229078923274 29.061527192821828 29.09229078923274 29.061527192821828 29.061527192821828 29.09229078923274 29.061527192821828 29.061527192821828 29.061527192821828 29.061527192821828 29.061527192821828 29.061527192821828 29.061527192821828 29.061527192821828 29.061527192821828 29.061527192821828 29.09229078923274 29.09229078923274 29.061527192821828 29.061527192821828 29.09229078923274 29.061527192821828 29.09229078923274 29.061527192821828 29.061527192821828 29.061527192821828 29.061527192821828 29.061527192821828 29.061527192821828 29.061527192821828 29.061527192821828 29.061527192821828 29.061527192821828 29.061527192821828 29.061527192821828 29.061527192821828 29.061527192821828 29.061527192821828 29.061527192821828 29.061527192821828 29.061527192821828 29.061527192821828 29.061527192821828 29.061527192821828 29.09229078923274 29.061527192821828 29.061527192821828 29.061527192821828 29.061527192821828 29.061527192821828 29.061527192821828 29.061527192821828 29.09229078923274 29.061527192821828 29.09229078923274 29.061527192821828 29.061527192821828 29.061527192821828 29.061527192821828 29.061527192821828 29.09229078923274 29.061527192821828 29.061527192821828 29.061527192821828 29.061527192821828 29.061527192821828 29.061527192821828 29.061527192821828 29.061527192821828 29.09229078923274 29.061527192821828 29.061527192821828 29.09229078923274 29.061527192821828 29.061527192821828 29.09229078923274 29.09229078923274 29.09229078923274 29.09229078923274 29.09229078923274 29.09229078923274 29.09229078923274 29.09229078923274 29.09229078923274 29.09229078923274 29.09229078923274 29.09229078923274 29.09229078923274 29.09229078923274 29.123054385643655 29.123054385643655 29.123054385643655 29.123054385643655 29.123054385643655 29.123054385643655 29.123054385643655 29.15381798205457 29.15381798205457 29.15381798205457 29.15381798205457 29.184581578465483 29.184581578465483 29.184581578465483 29.215345174876397 29.184581578465483 29.215345174876397 29.215345174876397 29.215345174876397 29.24610877128731 29.24610877128731 29.276872367698225 29.276872367698225 29.276872367698225 29.30763596410914 29.30763596410914 29.338399560520052 29.369163156930966 29.369163156930966 29.39992675334188 29.430690349752794 29.461453946163708 29.49221754257462 29.522981138985532 29.58450833180736 29.615271928218274 29.646035524629188 29.769089910272843 29.83061710309467 29.861380699505585 29.922907892327412 29.922907892327412 29.98443508514924 30.015198681560154 30.07672587438198 30.199780260025637 30.261307452847465 30.38436183849112 30.47665262772386 30.538179820545686 30.630470609778428 30.691997802600255 30.81505218824391 30.87657938106574 30.96887017029848 31.06116095953122 31.153451748763963 31.27650613440762 31.338033327229446 31.399560520051274 31.461087712873102 31.522614905694926 31.55337850210584 31.461087712873102 31.430324116462188 31.36879692364036 31.184215345174877 30.87657938106574 30.507416224134772 30.38436183849112 30.38436183849112 30.38436183849112 30.353598242080206 30.353598242080206 30.445889031312948 30.538179820545686 30.691997802600255 30.845815784654825 30.907342977476652 30.96887017029848 31.091924555942136 31.21497894158579 31.36879692364036 31.522614905694926 31.614905694927668 31.768723676982237 31.830250869804065 32.014832448269544 32.29170481596777 32.47628639443325 32.660867972898735 32.814685954953305 33.214612708295185 33.522248672404324 33.76835744369163 34.16828419703351 34.41439296832082 34.75279252884087 35.09119208936092 35.36806445705915 35.706464017579194 36.01409998168833 36.22944515656473 36.72166269913935 36.93700787401575 37.18311664530306 37.552279802234025 37.73686138069951 37.98297015198681 38.19831532686321 38.35213330891778 38.53671488738326 38.59824208020509 38.75206006225966 38.90587804431423 39.028932429957884 39.30580479765611 39.5211499725325 39.674967954587075 39.921076725874386 40.10565830433986 40.32100347921626 40.50558505768174 40.6286394433254 40.81322102179088 41.05932979307819 41.243911371543675 41.55154733565281 41.705365317707376 41.9822376854056 42.13605566746017 42.35140084233657 42.566746017212964 42.78209119208936 42.99743636696576 43.24354513825307 43.42812671671855 43.73576268082768 43.88958066288225 43.981871452114994 44.28950741622413 44.535616187511444 44.72019776597693 45.089360922907886 45.27394250137337 45.67386925471526 46.16608679728987 46.38143197216627 46.53524995422084 46.71983153268632 46.84288591832997 47.02746749679545 47.24281267167186 47.48892144295917 47.765793810657385 47.98113898553378 48.22724775682109 48.38106573887566 48.53488372093023 48.84251968503936 48.96557407068302 49.1501556491485 49.365500824024906 49.48855520966856 49.79619117377769 49.95000915583226 50.19611792711957 50.4729902948178 50.534517487639626 50.688335469694195 50.87291704815968 51.02673503021424 51.27284380150155 51.39589818714521 51.64200695843252 51.91887932613075 52.103460904596226 52.47262406152719 52.78026002563632 53.057132393334555 53.24171397180004 53.42629555026552 53.76469511078557 54.01080388207288 54.19538546053836 54.41073063541476 54.74913019593481 54.841420985167545 55.087529756454856 55.21058414209851 55.36440212415309 55.54898370261857 55.641274491851306 55.79509247390588 55.91814685954953 56.01043764878227 56.13349203442593 56.195019227247755 56.348837209302324 56.47189159494598 56.62570957700055 56.68723676982238 56.81029115546603 56.87181834828786 56.93334554110969 57.02563633034242 57.117927119575164 57.210217908807905 57.240981505218826 57.302508698040654 57.33327229445156 57.36403589086248 57.36403589086248 57.36403589086248 57.36403589086248 57.36403589086248 57.36403589086248 57.36403589086248 57.36403589086248 57.36403589086248 57.36403589086248 57.36403589086248 57.33327229445156 57.36403589086248 57.36403589086248 57.33327229445156 57.36403589086248 57.33327229445156 57.36403589086248 57.36403589086248 57.36403589086248 57.33327229445156 57.33327229445156 57.36403589086248 57.36403589086248 57.33327229445156 57.33327229445156 57.33327229445156 57.33327229445156 57.33327229445156 57.33327229445156 57.33327229445156 57.36403589086248 57.302508698040654 57.33327229445156 57.33327229445156 57.302508698040654 57.302508698040654 57.302508698040654 57.302508698040654 57.302508698040654 57.302508698040654 57.27174510162973 57.27174510162973 57.27174510162973 57.302508698040654 57.27174510162973 57.27174510162973 57.27174510162973 57.27174510162973 57.27174510162973 57.240981505218826 57.240981505218826 57.240981505218826 57.240981505218826 57.240981505218826 57.240981505218826 57.240981505218826 57.240981505218826 57.240981505218826 57.240981505218826 57.210217908807905 57.210217908807905 57.210217908807905 57.179454312397 57.179454312397 57.14869071598608 57.14869071598608 57.14869071598608 57.117927119575164 57.14869071598608 57.117927119575164 57.117927119575164 57.117927119575164 57.117927119575164 57.117927119575164 57.14869071598608 57.117927119575164 57.117927119575164 57.117927119575164 57.08716352316425 57.117927119575164 57.08716352316425 57.117927119575164 57.056399926753336 57.056399926753336 57.056399926753336 57.08716352316425 57.056399926753336 57.056399926753336 57.056399926753336 57.056399926753336 57.056399926753336 57.056399926753336 57.056399926753336 57.056399926753336 57.056399926753336 57.056399926753336 57.056399926753336 57.056399926753336 57.056399926753336 57.056399926753336 57.056399926753336 57.056399926753336 57.056399926753336 57.056399926753336 57.056399926753336 57.056399926753336 57.056399926753336 57.056399926753336 57.056399926753336 57.056399926753336 57.056399926753336 57.056399926753336 57.056399926753336 57.056399926753336 57.056399926753336 