29.0 29.0 29.0 29.0 29.0 29.0 29.0 29.0 29.0 29.0 29.0 29.0 29.0 29.0 29.0 29.0 29.0 29.0 29.0 29.0 29.0 29.0 29.0 29.0 29.0 29.0 29.0 29.0 29.0 29.0 29.0 29.0 29.0 29.0 29.0 29.0 29.0 29.0 29.0 29.0 29.0 29.0 29.0 29.0 29.0 29.0 29.0 29.0 29.0 29.0 29.0 29.0 29.0 29.0 29.0 29.0 29.0 29.0 29.0 29.0 29.0 29.0 29.0 29.0 29.0 29.0 29.0 29.0 29.0 29.0 29.0 29.0 29.0 29.0 29.0 29.0 29.0 29.0 29.0 29.0 29.0 29.0 29.0 29.0 29.0 29.0 29.0 29.0 29.0 29.0 29.0 29.0 29.0 29.0 29.0 29.0 29.0 29.0 29.0 29.0 29.0 29.0 29.0 29.0 29.0 29.0 29.0 29.0 29.0 29.0 29.0 29.0 29.0 29.0 29.0 29.0 29.0 29.0 29.0 29.0 29.0 29.0 29.0 29.0 29.0 29.0 29.0 29.0 29.0 29.0 29.0 29.0 29.0 29.0 29.0 29.0 29.0 29.0 29.0 29.0 29.0 29.0 29.0 29.0 29.0 29.0 29.0 29.0 29.0 29.0 29.0 29.0 29.0 29.0 29.0 29.0 29.0 29.0 29.0 29.0 29.0 29.0 29.0 29.0 29.0 29.0 29.0 29.0 29.0 29.0 29.0 29.0 29.0 29.0 29.0 29.0 29.0 29.0 29.0 29.0 29.0 29.0 29.0 29.030763596410914 29.0 29.0 29.0 29.0 29.0 29.0 29.0 29.0 29.0 29.0 29.0 29.0 29.0 29.0 29.0 29.0 29.0 29.0 29.0 29.0 29.0 29.0 29.0 29.0 29.0 29.0 29.0 29.0 29.0 29.0 29.0 29.0 29.0 29.0 29.0 29.0 29.0 29.0 29.0 29.0 29.0 29.0 29.0 29.0 29.0 29.0 29.0 29.0 29.0 29.0 29.0 29.0 29.0 29.0 29.0 29.0 29.0 29.0 29.0 29.0 29.0 29.0 29.0 29.0 29.0 29.0 29.0 29.0 29.0 29.0 29.0 29.0 29.0 29.0 29.0 29.0 29.0 29.0 29.0 29.0 29.0 29.0 29.0 29.0 29.0 29.0 29.0 29.0 29.0 29.0 29.0 29.0 29.0 29.0 29.0 29.0 29.0 29.0 29.0 29.0 29.0 29.0 29.0 29.0 29.0 29.0 29.0 29.0 29.0 29.0 29.0 29.0 29.0 29.0 29.0 29.0 29.0 29.0 29.0 29.0 29.0 29.0 29.0 29.0 29.0 29.0 29.0 29.0 29.0 29.0 29.0 29.0 29.0 29.0 29.0 29.0 29.0 29.0 29.0 29.0 29.0 29.0 29.0 29.0 29.0 29.0 29.0 29.0 29.0 29.0 29.0 29.0 29.0 29.0 29.0 29.0 29.0 29.0 29.0 29.0 29.0 29.0 29.0 29.0 29.0 29.0 29.0 29.0 29.0 29.0 29.0 29.0 29.0 29.0 29.0 29.0 29.0 29.0 29.0 29.0 29.0 29.0 29.0 29.0 29.0 29.0 29.0 29.0 29.0 29.0 29.0 29.0 29.0 29.0 29.0 29.0 29.0 29.0 29.0 29.0 29.0 29.0 29.0 29.0 29.0 29.0 29.0 29.0 29.0 29.0 29.0 29.0 29.0 29.0 29.0 29.0 29.0 29.0 29.0 29.0 29.0 29.0 29.0 29.0 29.0 29.0 29.0 29.0 29.0 29.0 29.0 29.0 29.0 29.0 29.0 29.0 29.0 29.0 29.0 29.0 29.0 29.0 29.0 29.0 29.0 29.0 29.0 29.0 29.0 29.0 29.0 29.0 29.0 29.0 29.0 29.0 29.0 29.0 29.0 29.0 29.0 29.0 29.0 29.0 29.0 29.0 29.0 29.0 29.0 29.0 29.0 29.0 29.0 29.0 29.0 29.0 29.0 29.0 29.0 29.0 29.0 29.0 29.0 29.0 29.0 29.0 29.0 29.0 29.0 29.0 29.0 29.0 29.0 29.0 29.0 29.0 29.0 29.0 29.0 29.0 29.0 29.0 29.0 29.0 29.0 29.0 29.0 29.0 29.0 29.0 29.0 29.0 29.0 29.0 29.0 29.0 29.0 29.0 29.0 29.0 29.0 29.0 29.0 29.0 29.0 29.0 29.0 29.0 29.0 29.0 29.0 29.0 29.0 29.0 29.0 29.0 29.0 29.0 29.0 29.0 29.0 29.0 29.0 29.0 29.0 29.0 29.0 29.0 29.0 29.0 29.0 29.0 29.0 29.0 29.0 29.0 29.0 29.0 29.0 29.0 29.0 29.0 29.0 29.0 29.0 29.0 29.0 29.0 29.0 29.0 29.0 29.0 29.0 29.0 29.0 29.0 29.0 29.0 29.0 29.0 29.0 29.0 29.0 29.0 29.0 29.0 29.0 29.0 29.0 29.0 29.0 29.0 29.0 29.0 29.0 29.0 29.0 29.0 29.0 29.0 29.0 29.0 29.0 29.0 29.0 29.0 29.0 29.0 29.0 29.0 29.0 29.0 29.0 29.0 29.0 29.0 29.0 29.0 29.0 29.0 29.0 29.0 29.0 29.0 29.0 29.0 29.0 29.0 29.0 29.0 29.0 29.0 29.0 29.030763596410914 29.0 29.0 29.030763596410914 29.030763596410914 29.030763596410914 29.061527192821828 29.061527192821828 29.061527192821828 29.09229078923274 29.09229078923274 29.123054385643655 29.123054385643655 29.15381798205457 29.184581578465483 29.215345174876397 29.24610877128731 29.276872367698225 29.369163156930966 29.430690349752794 29.461453946163708 29.49221754257462 29.522981138985532 29.553744735396446 29.58450833180736 29.646035524629188 29.6767991210401 29.707562717451015 29.73832631386193 29.769089910272843 29.83061710309467 29.861380699505585 29.922907892327412 29.953671488738326 30.015198681560154 30.07672587438198 30.107489470792896 30.169016663614723 30.29207104925838 30.322834645669293 30.38436183849112 30.415125434902034 30.507416224134772 30.5689434169566 30.66123420618934 30.753524995422083 30.845815784654825 30.96887017029848 31.091924555942136 31.21497894158579 31.307269730818533 31.461087712873102 31.64566929133858 31.79948727339315 31.984068851858634 32.168650430324114 32.32246841237868 32.507049990844166 32.69163156930965 32.968503937007874 33.15308551547336 33.42995788317158 33.64530305804798 33.922175425746204 34.137520600622594 34.41439296832082 34.629738143197216 34.87584691448453 35.09119208936092 35.30653726423732 35.583409631935545 35.79875480681194 36.044863578099246 36.32173594579747 36.62937190990661 36.906244277604834 37.24464383812489 37.552279802234025 37.921442959164985 38.29060611609595 38.721296465848745 39.121223219190625 39.55191356894342 39.982603918696206 40.444057864859914 40.81322102179088 41.36696575718733 41.92071049258377 42.28987364951474 42.812854788500275 43.33583592748581 43.67423548800586 44.32027101263505 44.627906976744185 44.96630653726424 45.396996887017025 45.70463285112616 46.2276139901117 46.84288591832997 47.18128547885003 47.70426661783556 48.04266617835561 48.44259293169749 49.08862845632668 49.45779161325764 49.91924555942135 50.34993590917414 50.65757187328328 51.08826222303607 51.39589818714521 51.79582494048709 52.22651529023988 52.47262406152719 52.87255081486907 53.24171397180004 53.48782274308734 53.79545870719648 54.01080388207288 54.25691265336019 54.44149423182567 54.59531221388024 54.841420985167545 54.9644753708112 55.21058414209851 55.395165720563995 55.51822010620765 55.73356528108405 55.91814685954953 56.10272843801501 56.41036440212415 56.59494598058963 56.87181834828786 57.210217908807905 57.302508698040654 57.57938106573887 57.88701702984801 58.1023622047244 58.34847097601172 58.563816150888115 59.05603369346274 59.2098516755173 59.425196850393704 59.60977842885918 59.886650796557404 60.07123237502289 60.40963193554294 60.594213514008416 60.87108588170665 61.11719465299395 61.33253982787035 61.57864859915766 61.855520966855885 62.04010254532137 62.31697491301959 62.47079289507416 62.716901666361466 62.96301043764878 63.239882805347 63.60904596227797 63.73210034792162 63.916681926387106 64.1012635048526 64.25508148690716 64.62424464383813 64.90111701153634 65.08569859000184 65.36257095770006 65.54715253616553 65.73173411463102 66.00860648232924 66.37776963926021 66.5931148141366 66.86998718183483 67.08533235671122 67.39296832082036 67.60831349569676 67.94671305621681 68.3774034059696 68.46969419520234 68.90038454495513 69.11572971983153 69.39260208752975 69.88481963010437 70.19245559421351 70.50009155832265 70.86925471525362 71.14612708295184 71.60758102911555 72.19208936092289 72.49972532503205 72.93041567478483 73.23805163889398 73.5149240065922 74.06866874198865 74.34554110968686 74.74546786302875 75.14539461637062 75.42226698406884 75.85295733382165 76.09906610510895 76.46822926203993 76.80662882255997 77.14502838308002 77.42190075077824 77.82182750412012 78.06793627540742 78.37557223951657 78.68320820362571 78.83702618568027 79.05237136055666 79.17542574620032 79.36000732466582 79.51382530672038 79.72917048159677 80.006042849295 80.2213880241714 80.4367331990478 80.99047793444424 81.26735030214246 81.72880424830618 82.15949459805896 82.4671305621681 82.92858450833181 83.20545687603003 83.63614722578282 84.06683757553562 84.37447353964475 84.80516388939753 85.23585423915033 85.66654458890312 85.88188976377953 86.15876213147774 86.4971616919978 86.74327046328511 86.89708844533968 87.14319721662699 87.2047244094488 87.29701519868155 87.32777879509247 87.32777879509247 87.32777879509247 87.32777879509247 87.32777879509247 87.29701519868155 87.29701519868155 87.23548800585974 87.14319721662699 87.05090642739424 86.98937923457241 86.89708844533968 86.83556125251785 86.77403405969602 86.74327046328511 86.65097967405237 86.62021607764146 86.58945248123054 86.52792528840871 86.52792528840871 86.4971616919978 86.43563449917598 86.40487090276505 86.34334370994324 86.3125801135323 86.2818165171214 86.25105292071049 86.18952572788865 86.15876213147774 86.15876213147774 86.15876213147774 86.12799853506684 86.066471342245 86.03570774583409 86.00494414942318 85.97418055301226 85.97418055301226 85.97418055301226 85.97418055301226 85.94341695660134 85.88188976377953 85.8511261673686 85.8511261673686 85.8511261673686 85.8511261673686 85.8511261673686 85.8203625709577 85.8203625709577 85.8203625709577 85.8203625709577 85.8203625709577 85.78959897454678 85.78959897454678 85.78959897454678 85.8203625709577 85.78959897454678 85.8203625709577 85.8203625709577 85.78959897454678 85.8203625709577 85.78959897454678 85.78959897454678 85.75883537813587 85.69730818531404 85.66654458890312 85.63578099249222 85.60501739608131 85.54349020325947 85.51272660684856 85.42043581761581 85.3896722212049 85.32814502838306 85.26661783556125 85.23585423915033 85.1435634499176 85.08203625709577 84.98974546786303 84.92821827504119 84.89745467863028 84.89745467863028 84.86669108221938 84.86669108221938 84.86669108221938 84.83592748580845 84.86669108221938 84.83592748580845 84.86669108221938 84.83592748580845 84.83592748580845 84.86669108221938 84.83592748580845 84.83592748580845 84.86669108221938 84.83592748580845 84.83592748580845 84.83592748580845 84.83592748580845 84.80516388939753 84.83592748580845 84.83592748580845 84.80516388939753 84.83592748580845 84.83592748580845 84.83592748580845 84.80516388939753 84.80516388939753 84.83592748580845 84.80516388939753 84.83592748580845 84.83592748580845 84.80516388939753 84.83592748580845 84.80516388939753 84.83592748580845 84.80516388939753 84.77440029298663 84.77440029298663 84.7128731001648 84.65134590734297 84.62058231093206 84.58981871452116 84.55905511811024 84.52829152169932 84.49752792528841 84.49752792528841 84.4667643288775 84.43600073246657 84.43600073246657 84.43600073246657 84.40523713605566 84.40523713605566 84.40523713605566 84.37447353964475 84.34370994323385 84.34370994323385 84.31294634682291 84.31294634682291 84.31294634682291 84.31294634682291 84.31294634682291 84.31294634682291 84.282182750412 84.282182750412 84.2514191540011 84.2514191540011 84.2514191540011 84.22065555759018 84.18989196117926 84.12836476835744 84.06683757553562 84.00531038271379 83.94378318989196 83.88225599707013 83.8207288042483 83.75920161142648 83.75920161142648 83.72843801501557 83.72843801501557 83.69767441860465 83.69767441860465 83.66691082219373 83.60538362937191 83.54385643655007 83.48232924372826 83.42080205090642 83.35927485808459 83.29774766526276 83.26698406885185 83.23622047244095 83.1746932796191 83.11316608679729 83.05163889397545 82.92858450833181 82.83629371909906 82.74400292986633 82.71323933345542 82.68247573704448 82.62094854422267 82.55942135140083 82.55942135140083 82.55942135140083 82.52865775498992 82.49789415857902 82.4671305621681 82.43636696575717 82.40560336934627 82.37483977293536 82.34407617652444 82.31331258011353 82.31331258011353 82.31331258011353 82.34407617652444 82.34407617652444 82.31331258011353 82.34407617652444 82.34407617652444 82.34407617652444 82.34407617652444 82.34407617652444 82.34407617652444 82.34407617652444 82.34407617652444 82.34407617652444 82.34407617652444 82.34407617652444 82.34407617652444 82.34407617652444 82.34407617652444 82.34407617652444 82.34407617652444 82.37483977293536 82.37483977293536 82.37483977293536 82.37483977293536 82.37483977293536 82.37483977293536 82.37483977293536 82.37483977293536 82.37483977293536 82.37483977293536 82.37483977293536 82.37483977293536 82.37483977293536 82.37483977293536 82.37483977293536 82.37483977293536 82.37483977293536 82.37483977293536 82.37483977293536 82.37483977293536 82.34407617652444 82.37483977293536 82.37483977293536 82.37483977293536 82.37483977293536 82.37483977293536 82.34407617652444 82.37483977293536 82.37483977293536 82.37483977293536 82.37483977293536 82.37483977293536 82.37483977293536 82.37483977293536 82.34407617652444 82.37483977293536 82.37483977293536 82.34407617652444 82.31331258011353 82.2517853872917 82.15949459805896 82.06720380882622 82.0056766160044 81.91338582677164 81.8210950375389 81.72880424830618 81.69804065189524 81.6057498626625 81.54422266984068 81.45193188060794 81.32887749496429 81.23658670573155 81.05200512726607 80.99047793444424 80.86742354880059 80.65207837392418 80.55978758469143 80.40596960263687 80.2213880241714 79.97527925288409 79.75993407800769 79.54458890313128 79.3292437282549 78.71397180003662 78.65244460721479 78.22175425746201 77.85259110053104 77.5449551364219 77.08350119025819 76.62204724409449 76.28364768357443 75.79143014099981 75.42226698406884 74.99157663431606 74.53012268815235 74.1917231276323 73.79179637429041 73.36110602453763 73.0842336568394 72.68430690349753 72.43819813221022 71.9459805896356 71.69987181834829 71.4845266434719 71.05383629371909 70.8384911188427 70.6231459439663 70.19245559421351 69.97711041933712 69.70023805163889 69.42336568394066 69.14649331624244 68.93114814136604 68.71580296648965 68.43893059879143 68.13129463468229 67.85442226698407 67.7006042849295 67.33144112799853 67.14685954953305 66.99304156747849 66.83922358542392 66.62387841054752 66.43929683208202 66.31624244643838 66.10089727156199 65.9163156930965 65.76249771104193 65.63944332539828 65.54715253616553 65.42409815052187 65.2395165720564 65.11646218641275 64.93188060794725 64.74729902948178 64.53195385460538 64.37813587255081 64.1320271012635 63.94744552279802 63.73210034792162 63.54751876945614 63.36293719099066 63.17835561252517 62.96301043764878 62.77842885918329 62.65537447353964 62.53232008789599 62.347738509430506 62.22468412378685 62.009338948910454 61.855520966855885 61.701702984801315 61.547885002746746 61.27101263504852 61.17872184581578 61.02490386376122 60.901849478117555 60.74803149606299 60.62497711041934 60.50192272477568 60.40963193554294 60.34810474272111 60.19428676066654 60.1019959714338 60.00970518220106 59.91741439296832 59.79436000732467 59.70206921809192 59.48672404321553 59.363669657571876 59.2098516755173 58.96374290422999 58.809924922175426 58.50228895806629 58.22541659036806 57.917780626258924 57.61014466214979 57.36403589086248 57.08716352316425 56.62570957700055 56.31807361289141 55.91814685954953 55.61051089544039 55.24134773850943 54.872184581578466 54.626075810291155 54.25691265336019 53.918513092840136 53.67240432155283 53.3955319538546 53.14942318256729 52.811023622047244 52.503387657938106 52.16498809741805 51.85735213330892 51.58047976561069 51.39589818714521 51.08826222303607 50.903680644570585 50.596044680461446 50.34993590917414 50.134590734297745 49.888481963010435 49.642373191723124 49.48855520966856 49.24244643838125 49.08862845632668 48.84251968503936 48.53488372093023 48.44259293169749 48.19648416041018 47.91961179271196 47.765793810657385 47.519685039370074 47.36586705731551 47.08899468961728 46.904413111151804 46.750595129097235 46.56601355063175 46.38143197216627 46.2276139901117 45.950741622413474 45.79692364035891 45.52005127266068 45.27394250137337 45.089360922907886 44.84325215162058 44.627906976744185 44.474088994689616 44.25874381981322 44.135689434169564 43.95110785570408 43.73576268082768 43.581944698773114 43.42812671671855 43.305072331074896 43.15125434902033 42.905145577733016 42.75132759567845 42.566746017212964 42.38216443874748 42.197582860282 41.9822376854056 41.7668925105292 41.61307452847464 41.336202160776416 41.15162058231093 40.90551181102362 40.65940303973631 40.47482146127083 40.22871268998352 39.95184032228529 39.76725874381981 39.45962277971067 39.24427760483428 38.93664164072514 38.65976927302692 38.35213330891778 38.075260941219554 37.89067936275407 37.70609778428859 37.459989013001284 37.2754074345358 37.060062259659404 36.66013550631752 36.506317524262954 36.352499542208385 36.22944515656473 36.106390770921074 35.89104559604468 35.76799121040103 35.61417322834646 35.46035524629189 35.30653726423732 35.09119208936092 34.99890130012818 34.8143197216627 34.66050173960813 34.56821095037539 34.44515656473173 34.29133858267716 34.19904779344442 34.04522981138985 33.95293902215711 33.922175425746204 33.89141182933528 33.860648232924376 33.79912104010255 33.76835744369163 33.7068302508698 33.64530305804798 33.614539461637065 33.55301226881524 33.460721479582496 33.39919428676067 33.33766709393884 33.2453763047061 33.18384911188427 33.12232191906244 33.060794726240616 32.99926753341879 32.93774034059696 32.87621314777513 32.78392235854239 32.72239516572056 32.59934078007691 32.507049990844166 32.44552279802234 32.32246841237868 32.19941402673503 32.107123237502286 32.04559604468046 31.984068851858634 31.891778062625892 31.830250869804065 31.79948727339315 31.737960080571323 31.64566929133858 31.584142098516754 31.491851309284012 31.399560520051274 31.27650613440762 31.12268815235305 30.999633766709394 30.907342977476652 30.753524995422083 30.630470609778428 30.445889031312948 30.322834645669293 30.169016663614723 30.13825306720381 30.13825306720381 30.13825306720381 30.13825306720381 30.107489470792896 30.045962277971068 30.015198681560154 29.98443508514924 29.98443508514924 29.953671488738326 29.953671488738326 29.922907892327412 29.922907892327412 29.8921442959165 29.8921442959165 29.8921442959165 29.861380699505585 29.861380699505585 29.83061710309467 29.799853506683757 29.799853506683757 29.769089910272843 29.73832631386193 29.73832631386193 29.707562717451015 29.707562717451015 29.707562717451015 29.6767991210401 29.6767991210401 29.6767991210401 29.6767991210401 29.6767991210401 29.646035524629188 29.646035524629188 29.646035524629188 29.615271928218274 29.615271928218274 29.615271928218274 29.615271928218274 29.58450833180736 29.58450833180736 29.553744735396446 29.522981138985532 29.522981138985532 29.49221754257462 29.49221754257462 29.461453946163708 29.430690349752794 29.39992675334188 29.369163156930966 29.369163156930966 29.338399560520052 29.338399560520052 29.30763596410914 29.30763596410914 29.30763596410914 29.30763596410914 29.30763596410914 29.30763596410914 29.276872367698225 29.276872367698225 29.276872367698225 29.276872367698225 29.24610877128731 29.24610877128731 29.24610877128731 29.24610877128731 29.24610877128731 29.24610877128731 29.215345174876397 29.215345174876397 29.215345174876397 29.215345174876397 29.215345174876397 29.215345174876397 29.215345174876397 29.215345174876397 29.215345174876397 29.215345174876397 29.184581578465483 29.184581578465483 29.184581578465483 29.184581578465483 29.184581578465483 29.15381798205457 29.15381798205457 29.15381798205457 29.123054385643655 29.15381798205457 29.123054385643655 29.123054385643655 29.123054385643655 29.123054385643655 29.123054385643655 29.123054385643655 29.123054385643655 29.09229078923274 29.09229078923274 29.09229078923274 29.09229078923274 29.123054385643655 29.123054385643655 29.09229078923274 29.09229078923274 29.09229078923274 29.09229078923274 29.09229078923274 29.09229078923274 29.09229078923274 29.09229078923274 29.09229078923274 29.09229078923274 29.09229078923274 29.09229078923274 29.09229078923274 29.09229078923274 29.09229078923274 29.09229078923274 29.09229078923274 29.09229078923274 29.09229078923274 29.09229078923274 29.09229078923274 29.09229078923274 29.09229078923274 29.09229078923274 29.061527192821828 29.09229078923274 29.061527192821828 29.061527192821828 29.061527192821828 29.061527192821828 29.061527192821828 29.061527192821828 29.061527192821828 29.061527192821828 29.061527192821828 29.061527192821828 29.061527192821828 29.061527192821828 29.061527192821828 29.061527192821828 29.061527192821828 29.061527192821828 29.061527192821828 29.061527192821828 29.061527192821828 29.061527192821828 29.061527192821828 29.061527192821828 29.061527192821828 29.061527192821828 29.061527192821828 29.061527192821828 29.061527192821828 29.061527192821828 29.030763596410914 29.061527192821828 29.061527192821828 29.061527192821828 29.061527192821828 29.061527192821828 29.061527192821828 29.061527192821828 29.061527192821828 29.061527192821828 29.061527192821828 29.061527192821828 29.061527192821828 29.061527192821828 29.061527192821828 29.030763596410914 29.061527192821828 29.061527192821828 29.030763596410914 29.061527192821828 29.061527192821828 29.061527192821828 29.061527192821828 29.061527192821828 29.061527192821828 29.030763596410914 29.061527192821828 29.030763596410914 29.061527192821828 29.061527192821828 29.030763596410914 29.030763596410914 29.061527192821828 29.030763596410914 29.061527192821828 29.030763596410914 29.061527192821828 29.030763596410914 29.030763596410914 29.030763596410914 29.030763596410914 29.030763596410914 29.030763596410914 29.030763596410914 29.061527192821828 29.030763596410914 29.061527192821828 29.030763596410914 29.030763596410914 29.030763596410914 29.061527192821828 29.030763596410914 29.030763596410914 29.061527192821828 29.030763596410914 29.030763596410914 29.061527192821828 29.030763596410914 29.030763596410914 29.030763596410914 29.030763596410914 29.061527192821828 29.030763596410914 29.061527192821828 29.030763596410914 29.030763596410914 29.061527192821828 29.061527192821828 29.030763596410914 29.030763596410914 29.030763596410914 29.061527192821828 29.030763596410914 29.030763596410914 29.030763596410914 29.030763596410914 29.030763596410914 29.030763596410914 29.030763596410914 29.030763596410914 29.030763596410914 29.030763596410914 29.030763596410914 29.030763596410914 29.030763596410914 29.030763596410914 29.030763596410914 29.030763596410914 29.030763596410914 29.030763596410914 29.030763596410914 29.030763596410914 29.030763596410914 29.030763596410914 29.030763596410914 29.030763596410914 29.030763596410914 29.030763596410914 29.030763596410914 29.030763596410914 29.030763596410914 29.030763596410914 29.030763596410914 29.030763596410914 29.030763596410914 29.030763596410914 29.030763596410914 29.030763596410914 29.030763596410914 29.030763596410914 29.030763596410914 29.030763596410914 29.030763596410914 29.030763596410914 29.030763596410914 29.030763596410914 29.030763596410914 29.030763596410914 29.030763596410914 29.030763596410914 29.030763596410914 29.030763596410914 29.030763596410914 29.030763596410914 29.030763596410914 29.030763596410914 29.030763596410914 29.030763596410914 29.030763596410914 29.030763596410914 29.030763596410914 29.030763596410914 29.030763596410914 29.030763596410914 29.030763596410914 29.030763596410914 29.030763596410914 29.030763596410914 29.030763596410914 29.030763596410914 29.030763596410914 29.030763596410914 29.030763596410914 29.030763596410914 29.030763596410914 29.030763596410914 29.030763596410914 29.030763596410914 29.030763596410914 29.030763596410914 29.030763596410914 29.030763596410914 29.030763596410914 29.030763596410914 29.030763596410914 29.030763596410914 29.030763596410914 29.030763596410914 29.030763596410914 29.030763596410914 29.030763596410914 29.0 29.030763596410914 29.030763596410914 29.030763596410914 29.030763596410914 29.030763596410914 29.030763596410914 29.030763596410914 29.030763596410914 29.030763596410914 29.0 29.030763596410914 29.030763596410914 29.030763596410914 29.030763596410914 29.030763596410914 29.030763596410914 29.030763596410914 29.030763596410914 29.030763596410914 29.030763596410914 29.030763596410914 29.030763596410914 29.030763596410914 29.030763596410914 29.030763596410914 29.030763596410914 29.030763596410914 29.030763596410914 29.030763596410914 29.030763596410914 29.030763596410914 29.030763596410914 29.030763596410914 29.030763596410914 29.030763596410914 29.030763596410914 29.030763596410914 29.030763596410914 29.030763596410914 29.030763596410914 29.030763596410914 29.030763596410914 29.030763596410914 29.030763596410914 29.030763596410914 29.030763596410914 29.030763596410914 29.030763596410914 29.030763596410914 29.030763596410914 29.030763596410914 29.030763596410914 29.030763596410914 29.030763596410914 29.0 29.030763596410914 29.030763596410914 29.030763596410914 29.030763596410914 29.030763596410914 29.030763596410914 29.030763596410914 29.030763596410914 29.030763596410914 29.030763596410914 29.030763596410914 29.030763596410914 29.030763596410914 29.030763596410914 29.030763596410914 29.030763596410914 29.030763596410914 29.030763596410914 29.030763596410914 29.030763596410914 29.030763596410914 29.030763596410914 29.030763596410914 29.030763596410914 29.030763596410914 29.030763596410914 29.030763596410914 29.030763596410914 29.030763596410914 29.030763596410914 29.030763596410914 29.030763596410914 29.030763596410914 29.0 29.030763596410914 29.030763596410914 29.0 29.030763596410914 29.0 29.030763596410914 29.030763596410914 29.030763596410914 29.030763596410914 29.030763596410914 29.030763596410914 29.030763596410914 29.030763596410914 29.030763596410914 29.030763596410914 29.0 29.030763596410914 29.030763596410914 29.030763596410914 29.0 29.030763596410914 29.030763596410914 29.030763596410914 29.0 29.0 29.030763596410914 29.030763596410914 29.030763596410914 29.030763596410914 29.0 29.030763596410914 29.030763596410914 29.030763596410914 29.030763596410914 29.030763596410914 29.030763596410914 29.0 29.030763596410914 29.030763596410914 29.0 29.030763596410914 29.0 29.030763596410914 29.030763596410914 29.030763596410914 29.030763596410914 29.030763596410914 29.0 29.030763596410914 29.0 29.030763596410914 29.030763596410914 29.030763596410914 29.030763596410914 29.030763596410914 29.0 29.030763596410914 29.030763596410914 29.030763596410914 29.0 29.030763596410914 29.0 29.0 29.0 29.0 29.030763596410914 29.030763596410914 29.0 29.0 29.030763596410914 29.030763596410914 29.0 29.0 29.0 29.0 29.030763596410914 29.0 29.030763596410914 29.030763596410914 29.030763596410914 29.030763596410914 29.030763596410914 29.0 29.0 29.0 29.030763596410914 29.0 29.0 29.0 29.0 29.0 29.030763596410914 29.030763596410914 29.030763596410914 29.0 29.0 29.0 29.030763596410914 29.030763596410914 29.030763596410914 29.030763596410914 29.030763596410914 29.030763596410914 29.0 29.0 29.0 29.0 29.0 29.030763596410914 29.0 29.0 29.0 29.0 29.0 29.0 29.0 29.0 29.0 29.0 29.030763596410914 29.0 29.030763596410914 29.0 29.0 29.0 29.030763596410914 29.0 29.030763596410914 29.0 29.0 29.0 29.0 29.0 29.0 29.0 29.0 29.0 29.0 29.0 29.0 29.0 29.0 29.0 29.0 29.0 29.0 29.0 29.0 29.0 29.0 29.030763596410914 29.0 29.030763596410914 29.0 29.030763596410914 29.030763596410914 29.0 29.0 29.0 29.030763596410914 29.0 29.0 29.0 29.0 29.0 29.0 29.0 29.0 29.0 29.0 29.0 29.0 29.0 29.0 29.030763596410914 29.0 29.0 29.0 29.0 29.0 29.0 29.0 29.0 29.0 29.0 29.0 29.0 29.0 29.0 29.0 29.0 29.0 29.0 29.0 29.030763596410914 29.0 29.0 29.0 29.0 29.0 29.0 29.0 29.0 29.0 29.0 29.0 29.0 29.0 29.0 29.0 29.0 29.0 29.0 29.0 29.0 29.0 29.0 29.0 29.0 29.0 29.0 29.0 29.0 29.0 29.0 29.0 29.0 29.0 29.0 29.0 29.0 29.0 29.0 29.0 29.0 29.0 29.0 29.0 29.0 29.0 29.0 29.0 29.0 29.0 29.0 29.0 29.0 29.0 29.0 29.0 29.0 29.0 29.0 29.0 29.0 29.0 29.0 29.0 29.0 29.0 29.0 29.0 29.0 29.0 29.0 29.0 29.0 29.0 29.0 29.0 29.0 29.0 29.0 29.0 29.0 29.0 29.0 29.0 29.0 29.0 29.0 29.0 29.0 29.0 29.0 29.0 29.0 29.0 29.0 29.0 29.0 29.0 29.0 29.0 29.0 29.0 29.0 29.0 29.0 29.0 29.0 29.0 29.0 29.0 29.0 29.0 29.0 29.0 29.0 29.0 29.0 29.0 29.0 29.0 29.0 29.0 29.0 29.0 29.0 29.0 29.0 29.0 29.0 29.0 29.0 29.0 29.0 29.0 29.0 29.0 29.0 29.0 29.0 29.0 29.0 29.0 29.0 29.0 29.0 29.0 29.0 29.0 29.0 29.0 29.0 29.0 29.0 29.0 29.0 29.0 29.0 29.0 29.0 29.0 29.0 29.0 29.0 29.0 29.0 29.0 29.0 29.0 29.0 29.0 29.0 29.0 29.0 29.0 29.0 29.0 29.0 29.0 29.0 29.0 29.0 29.0 29.0 29.0 29.0 29.0 29.0 29.0 29.0 29.0 29.0 29.0 29.0 29.0 29.0 29.0 29.0 29.0 29.0 29.0 29.0 29.0 29.0 29.0 29.0 29.0 29.0 29.0 29.0 29.0 29.0 29.0 29.0 29.0 29.0 29.0 29.0 29.0 29.0 29.0 29.0 29.0 29.0 29.0 29.0 29.0 29.0 29.0 29.0 29.0 29.0 29.0 29.0 29.0 29.0 29.0 29.0 29.0 29.0 29.0 29.0 29.0 29.0 29.0 29.0 29.0 29.0 29.0 29.0 29.0 29.0 29.0 29.0 29.0 29.0 29.0 29.0 29.0 29.0 29.0 29.0 29.0 29.0 29.0 29.0 29.0 29.0 29.0 29.0 29.0 29.0 29.0 29.0 29.0 29.0 29.0 29.0 29.0 29.0 29.0 29.0 29.0 29.0 29.0 29.0 29.0 29.0 29.0 29.0 29.0 29.0 29.0 29.0 29.0 29.0 29.0 29.0 29.0 29.0 29.0 29.0 29.0 29.0 29.0 29.0 29.0 29.0 29.0 29.0 29.0 29.0 29.0 29.0 29.0 29.0 29.0 29.0 29.0 29.0 29.0 29.0 29.0 29.0 29.0 29.0 29.0 29.0 29.0 29.0 29.0 29.0 29.0 29.0 29.0 29.0 29.0 29.0 29.0 29.0 29.0 29.0 29.0 29.0 29.0 29.0 29.0 29.0 29.0 29.0 29.0 29.0 29.0 29.0 29.0 29.0 29.0 29.0 29.0 29.0 29.0 29.0 29.0 29.0 29.0 29.0 29.0 29.0 29.0 29.0 29.030763596410914 29.0 29.0 29.0 29.030763596410914 29.030763596410914 29.030763596410914 29.030763596410914 29.030763596410914 29.061527192821828 29.061527192821828 29.061527192821828 29.061527192821828 29.061527192821828 29.09229078923274 29.09229078923274 29.09229078923274 29.09229078923274 29.09229078923274 29.123054385643655 29.123054385643655 29.123054385643655 29.15381798205457 29.15381798205457 29.15381798205457 29.15381798205457 29.184581578465483 29.215345174876397 29.215345174876397 29.215345174876397 29.24610877128731 29.276872367698225 29.276872367698225 29.30763596410914 29.338399560520052 29.369163156930966 29.39992675334188 29.39992675334188 29.39992675334188 29.430690349752794 29.430690349752794 29.430690349752794 29.461453946163708 29.461453946163708 29.461453946163708 29.461453946163708 29.461453946163708 29.461453946163708 29.49221754257462 29.522981138985532 29.522981138985532 29.553744735396446 29.553744735396446 29.553744735396446 29.58450833180736 29.615271928218274 29.615271928218274 29.615271928218274 29.646035524629188 29.6767991210401 29.707562717451015 29.73832631386193 29.769089910272843 29.769089910272843 29.799853506683757 29.799853506683757 29.799853506683757 29.861380699505585 29.861380699505585 29.8921442959165 29.953671488738326 29.98443508514924 30.07672587438198 30.199780260025637 30.29207104925838 30.38436183849112 30.415125434902034 30.47665262772386 30.5689434169566 30.66123420618934 30.845815784654825 30.96887017029848 31.12268815235305 31.27650613440762 31.430324116462188 31.614905694927668 31.891778062625892 32.04559604468046 32.260941219556855 32.44552279802234 32.59934078007691 32.93774034059696 33.09155832265153 33.39919428676067 33.460721479582496 33.73759384728072 33.95293902215711 34.10675700421168 34.32210217908808 34.50668375755356 34.66050173960813 34.84508331807361 34.99890130012818 35.183482878593665 35.491118842702804 35.61417322834646 35.89104559604468 36.07562717451016 36.1679179637429 36.3832631386193 36.53708112067387 36.78318989196118 37.060062259659404 37.24464383812489 37.459989013001284 37.70609778428859 37.82915216993224 38.10602453763047 38.25984251968504 38.567478483794176 38.90587804431423 39.15198681560154 39.55191356894342 39.95184032228529 40.22871268998352 40.6286394433254 40.87474821461271 41.336202160776416 41.58231093206372 41.88994689617286 42.22834645669291 42.44369163156931 42.78209119208936 43.058963559787585 43.24354513825307 43.581944698773114 43.85881706647134 44.19721662699139 44.381798205456874 44.72019776597693 44.99707013367515 45.3354696941952 45.58157846548251 45.91997802600257 46.350668375755355 46.56601355063175 46.78135872550815 47.1197582860282 47.33510346090459 47.67350302142465 48.011902581944696 48.38106573887566 48.6887017029848 48.93481047427211 49.27321003479216 49.48855520966856 49.82695477018861 50.22688152353049 50.50375389122871 50.903680644570585 51.30360739791247 51.61124336202161 52.38033327229445 52.59567844717085 52.9340780076909 53.364768357443694 53.70316791796374 54.226149056949275 54.74913019593481 55.30287493133125 55.76432887749496 56.10272843801501 56.41036440212415 56.90258194469877 57.210217908807905 57.82548983702618 58.25618018677898 58.533052554477194 58.93297930781908 59.17908807910639 59.425196850393704 59.91741439296832 60.16352316425563 60.53268632118659 60.901849478117555 61.14795824940487 61.48635780992492 61.855520966855885 62.07086614173228 62.37850210584142 62.59384728071782 62.96301043764878 63.27064640175792 63.578282365867054 64.03973631203075 64.28584508331807 64.5627174510163 64.93188060794725 65.27028016846731 65.54715253616553 65.94707928950741 66.1624244643838 66.43929683208202 66.62387841054752 66.83922358542392 67.20838674235489 67.36220472440945 67.63907709210767 67.94671305621681 68.13129463468229 68.3774034059696 68.53122138802416 68.8080937557224 69.05420252700969 69.23878410547519 69.4848928767625 69.76176524446072 70.00787401574803 70.4078007690899 70.6231459439663 70.8384911188427 71.08459989013001 71.23841787218458 71.5152902398828 71.66910822193736 71.85368980040286 72.06903497527925 72.22285295733383 72.46896172862114 72.74583409631936 72.89965207837392 73.14576084966123 73.33034242812671 73.60721479582494 73.94561435634498 74.13019593481047 74.46859549533052 74.80699505585056 74.99157663431606 75.3299761948361 75.63761215894525 75.91448452664346 76.1913568943417 76.34517487639626 76.68357443691632 76.83739241897088 76.99121040102546 77.36037355795642 77.5449551364219 77.85259110053104 78.19099066105107 78.40633583592748 78.77549899285845 79.1138985533785 79.3292437282549 79.63687969236403 79.82146127082952 80.09833363852775 80.37520600622597 80.52902398828053 80.68284197033509 80.80589635597875 80.9289507416224 81.1135323200879 81.23658670573155 81.39040468778612 81.54422266984068 81.63651345907343 81.8210950375389 81.94414942318257 82.09796740523714 82.40560336934627 82.52865775498992 82.65171214063358 82.83629371909906 82.92858450833181 83.08240249038637 83.1746932796191 83.23622047244095 83.35927485808459 83.42080205090642 83.48232924372826 83.54385643655007 83.54385643655007 83.54385643655007 83.54385643655007 83.54385643655007 83.57462003296098 83.54385643655007 83.57462003296098 83.57462003296098 83.57462003296098 83.57462003296098 83.54385643655007 83.57462003296098 83.57462003296098 83.57462003296098 83.57462003296098 83.54385643655007 83.57462003296098 83.57462003296098 83.57462003296098 83.57462003296098 83.57462003296098 83.54385643655007 83.54385643655007 83.54385643655007 83.54385643655007 83.54385643655007 83.54385643655007 83.54385643655007 83.54385643655007 83.51309284013917 83.51309284013917 83.54385643655007 83.54385643655007 83.54385643655007 83.54385643655007 83.54385643655007 83.54385643655007 83.54385643655007 83.54385643655007 83.54385643655007 83.54385643655007 83.54385643655007 83.54385643655007 83.54385643655007 83.54385643655007 83.54385643655007 83.54385643655007 83.54385643655007 83.54385643655007 83.54385643655007 83.54385643655007 83.54385643655007 83.54385643655007 83.51309284013917 83.51309284013917 83.48232924372826 83.45156564731735 83.45156564731735 83.42080205090642 83.42080205090642 83.42080205090642 83.39003845449551 83.39003845449551 83.35927485808459 83.35927485808459 83.29774766526276 83.29774766526276 83.26698406885185 83.23622047244095 83.23622047244095 83.20545687603003 83.1746932796191 83.1746932796191 83.1439296832082 83.1439296832082 83.1439296832082 83.1439296832082 83.1439296832082 83.1439296832082 83.1439296832082 83.1439296832082 83.1439296832082 83.1439296832082 83.1439296832082 83.1439296832082 83.1439296832082 83.1439296832082 83.1439296832082 83.1439296832082 83.1439296832082 83.1746932796191 83.1746932796191 83.1746932796191 83.1746932796191 83.1746932796191 83.1746932796191 83.20545687603003 83.1746932796191 83.20545687603003 83.1746932796191 83.20545687603003 83.20545687603003 83.20545687603003 83.20545687603003 83.20545687603003 83.20545687603003 83.20545687603003 83.1746932796191 83.1746932796191 83.1746932796191 83.1746932796191 83.1746932796191 83.1746932796191 83.1746932796191 83.1746932796191 83.1746932796191 83.1746932796191 83.1746932796191 83.1746932796191 83.1746932796191 83.1746932796191 83.1746932796191 83.1746932796191 83.1746932796191 83.1746932796191 83.1746932796191 83.1439296832082 83.1746932796191 83.1439296832082 83.11316608679729 83.11316608679729 83.11316608679729 83.11316608679729 83.11316608679729 83.11316608679729 83.11316608679729 83.11316608679729 83.11316608679729 83.11316608679729 83.11316608679729 83.11316608679729 83.11316608679729 83.11316608679729 83.11316608679729 83.1439296832082 83.11316608679729 83.1439296832082 83.1439296832082 83.1439296832082 83.1746932796191 83.1746932796191 83.1746932796191 83.1746932796191 83.1746932796191 83.1746932796191 83.1746932796191 83.1746932796191 83.1746932796191 83.1746932796191 83.1746932796191 83.1746932796191 83.1746932796191 83.1746932796191 83.1746932796191 83.1439296832082 83.1746932796191 83.1746932796191 83.1746932796191 83.1746932796191 83.1439296832082 83.1439296832082 83.1439296832082 83.1439296832082 83.1439296832082 83.11316608679729 83.11316608679729 83.08240249038637 83.08240249038637 83.05163889397545 83.02087529756454 82.99011170115364 82.99011170115364 82.99011170115364 82.99011170115364 82.99011170115364 82.99011170115364 82.99011170115364 82.99011170115364 82.99011170115364 83.02087529756454 83.02087529756454 83.02087529756454 83.05163889397545 83.08240249038637 83.11316608679729 83.1439296832082 83.1439296832082 83.1746932796191 83.20545687603003 83.20545687603003 83.20545687603003 83.20545687603003 83.20545687603003 83.20545687603003 83.20545687603003 83.20545687603003 83.23622047244095 83.20545687603003 83.23622047244095 83.20545687603003 83.20545687603003 83.20545687603003 83.20545687603003 83.20545687603003 83.20545687603003 83.20545687603003 83.20545687603003 83.20545687603003 83.20545687603003 83.20545687603003 83.20545687603003 83.20545687603003 83.20545687603003 83.20545687603003 83.20545687603003 83.20545687603003 83.20545687603003 83.20545687603003 83.1746932796191 83.1746932796191 83.1746932796191 83.1746932796191 83.1746932796191 83.1746932796191 83.1746932796191 83.1746932796191 83.1746932796191 83.1746932796191 83.1746932796191 83.1746932796191 83.1746932796191 83.20545687603003 83.1746932796191 83.20545687603003 83.1746932796191 83.1746932796191 83.20545687603003 83.1746932796191 83.20545687603003 83.20545687603003 83.20545687603003 83.1746932796191 83.1746932796191 83.1439296832082 83.05163889397545 82.92858450833181 82.71323933345542 82.59018494781176 82.2517853872917 82.0056766160044 81.8210950375389 81.51345907342977 81.29811389855337 81.08276872367698 80.74436916315693 80.55978758469143 80.31367881340414 80.0368064457059 79.88298846365134 79.63687969236403 79.51382530672038 79.29848013184399 79.1138985533785 78.99084416773485 78.80626258926935 78.59091741439296 78.46786302874932 78.34480864310567 78.22175425746201 78.12946346822926 77.94488188976378 77.82182750412012 77.5449551364219 77.32960996154551 77.11426478666911 76.92968320820361 76.77586522614905 76.49899285845083 76.28364768357443 76.09906610510895 75.85295733382165 75.57608496612343 75.39150338765793 75.05310382713789 74.8685222486724 74.653177073796 74.43783189891961 74.22248672404322 73.94561435634498 73.7302691814686 73.36110602453763 73.0842336568394 72.86888848196301 72.65354330708661 72.4074345357993 72.22285295733383 71.91521699322467 71.76139901117011 71.54605383629371 71.36147225782824 71.20765427577366 70.99230910089727 70.77696392602087 70.6231459439663 70.43856436550081 70.28474638344625 70.03863761215894 69.76176524446072 69.54642006958431 69.17725691265336 68.86962094854422 68.65427577366782 68.3774034059696 68.10053103827138 67.76213147775132 67.2699139351767 67.02380516388939 66.65464200695843 66.43929683208202 66.07013367515107 65.73173411463102 65.51638893975462 65.20875297564548 64.90111701153634 64.68577183665994 64.43966306537264 64.1320271012635 63.916681926387106 63.670573155099795 63.4552279802234 63.17835561252517 62.93224684123786 62.74766526277239 62.47079289507416 62.22468412378685 62.04010254532137 61.79399377403406 61.609412195568574 61.27101263504852 61.086431056583045 60.87108588170665 60.655740706830244 60.47115912836477 60.25581395348837 60.040468778611974 59.85588720014648 59.60977842885918 59.332906061160955 59.17908807910639 58.93297930781908 58.7483977293536 58.50228895806629 58.25618018677898 58.1023622047244 57.88701702984801 57.57938106573887 57.456326680095216 57.33327229445156 57.210217908807905 57.08716352316425 56.93334554110969 56.87181834828786 56.656473173411456 56.56418238417872 56.47189159494598 56.348837209302324 56.225782823658676 56.10272843801501 55.91814685954953 55.79509247390588 55.57974729902948 55.36440212415309 55.21058414209851 54.872184581578466 54.68760300311298 54.44149423182567 54.16462186412745 53.94927668925105 53.610877128731005 53.21095037538912 52.99560520051273 52.68796923640359 52.503387657938106 52.31880607947262 52.103460904596226 51.949642922541656 51.64200695843252 51.457425379967034 51.33437099432338 51.149789415857896 51.05749862662516 50.903680644570585 50.688335469694195 50.596044680461446 50.442226698406884 50.22688152353049 50.10382713788683 49.91924555942135 49.70390038454495 49.51931880607947 49.27321003479216 49.08862845632668 48.780992492217536 48.473356528108404 48.165720563999265 47.85808459989013 47.61197582860282 47.36586705731551 47.08899468961728 46.904413111151804 46.504486357809924 46.31990477934444 46.07379600805713 45.85845083318073 45.70463285112616 45.48928767624977 45.3354696941952 45.181651712140635 45.02783373008606 44.90477934444241 44.81248855520967 44.68943416956601 44.59714338033327 44.41256180186779 44.32027101263505 44.227980223402305 44.04339864493682 43.85881706647134 43.70499908441677 43.5511811023622 43.24354513825307 43.0897271561985 42.93590917414393 42.78209119208936 42.47445522798022 42.28987364951474 42.013001281816514 41.73612891411829 41.490020142830986 41.18238417872185 40.87474821461271 40.6286394433254 40.290239882805345 39.982603918696206 39.674967954587075 39.33656839406702 39.09045962277971 38.81358725508149 38.50595129097235 38.321369712506865 38.075260941219554 37.82915216993224 37.64457059146676 37.459989013001284 37.33693462735763 37.152353048892145 37.060062259659404 36.906244277604834 36.62937190990661 36.444790331441126 36.22944515656473 36.044863578099246 35.89104559604468 35.706464017579194 35.55264603552463 35.429591649880976 35.27577366782641 35.15271928218275 34.99890130012818 34.783556125251785 34.629738143197216 34.44515656473173 34.383629371909905 34.229811389855335 34.075993407800766 33.922175425746204 33.76835744369163 33.64530305804798 33.522248672404324 33.39919428676067 33.33766709393884 33.2453763047061 33.12232191906244 33.0300311298297 32.93774034059696 32.814685954953305 32.75315876213148 32.63010437648782 32.568577183665994 32.53781358725508 32.47628639443325 32.414759201611425 32.38399560520051 32.32246841237868 32.260941219556855 32.168650430324114 32.1378868339132 32.07635964109137 32.014832448269544 31.95330525544772 31.768723676982237 31.737960080571323 31.64566929133858 31.55337850210584 31.461087712873102 31.36879692364036 31.184215345174877 31.091924555942136 30.96887017029848 30.784288591832997 30.691997802600255 30.445889031312948 30.322834645669293 30.169016663614723 30.015198681560154 29.953671488738326 29.922907892327412 29.8921442959165 29.83061710309467 29.769089910272843 29.707562717451015 29.6767991210401 29.646035524629188 29.646035524629188 29.615271928218274 29.58450833180736 29.58450833180736 29.58450833180736 29.553744735396446 29.553744735396446 29.522981138985532 29.522981138985532 29.522981138985532 29.49221754257462 29.49221754257462 29.49221754257462 29.461453946163708 29.461453946163708 29.461453946163708 29.461453946163708 29.461453946163708 29.430690349752794 29.430690349752794 29.39992675334188 29.39992675334188 29.369163156930966 29.369163156930966 29.369163156930966 29.338399560520052 29.338399560520052 29.30763596410914 29.276872367698225 29.24610877128731 29.215345174876397 29.215345174876397 29.184581578465483 29.15381798205457 29.123054385643655 29.123054385643655 29.123054385643655 29.123054385643655 29.09229078923274 29.09229078923274 29.09229078923274 29.061527192821828 29.061527192821828 29.061527192821828 29.061527192821828 29.030763596410914 29.030763596410914 29.030763596410914 29.030763596410914 29.030763596410914 29.030763596410914 29.030763596410914 29.030763596410914 29.030763596410914 29.0 29.0 29.0 29.0 28.969236403589086 29.0 28.969236403589086 28.969236403589086 28.969236403589086 28.969236403589086 28.969236403589086 28.969236403589086 28.969236403589086 28.969236403589086 28.969236403589086 28.969236403589086 28.969236403589086 28.969236403589086 28.969236403589086 28.938472807178172 28.938472807178172 28.969236403589086 28.938472807178172 28.969236403589086 28.969236403589086 28.938472807178172 28.938472807178172 28.938472807178172 28.938472807178172 28.938472807178172 28.938472807178172 28.969236403589086 28.938472807178172 28.938472807178172 28.938472807178172 28.938472807178172 28.938472807178172 28.938472807178172 28.938472807178172 28.938472807178172 28.938472807178172 28.938472807178172 28.938472807178172 28.938472807178172 28.938472807178172 28.938472807178172 28.938472807178172 28.938472807178172 28.938472807178172 28.938472807178172 28.938472807178172 28.938472807178172 28.938472807178172 28.938472807178172 28.938472807178172 28.938472807178172 28.938472807178172 28.938472807178172 28.938472807178172 28.938472807178172 28.938472807178172 28.938472807178172 28.938472807178172 28.938472807178172 28.938472807178172 28.938472807178172 28.938472807178172 28.938472807178172 28.938472807178172 28.938472807178172 28.938472807178172 28.938472807178172 28.938472807178172 28.938472807178172 28.938472807178172 28.938472807178172 28.938472807178172 28.938472807178172 28.938472807178172 28.938472807178172 28.938472807178172 28.938472807178172 28.938472807178172 28.90770921076726 28.938472807178172 28.938472807178172 28.90770921076726 28.938472807178172 28.938472807178172 28.938472807178172 28.90770921076726 28.938472807178172 28.938472807178172 28.938472807178172 28.938472807178172 28.938472807178172 28.938472807178172 28.938472807178172 28.938472807178172 28.938472807178172 28.938472807178172 28.90770921076726 28.90770921076726 28.938472807178172 28.938472807178172 28.938472807178172 28.938472807178172 28.938472807178172 28.938472807178172 28.90770921076726 28.938472807178172 28.90770921076726 28.938472807178172 28.938472807178172 28.938472807178172 28.90770921076726 28.90770921076726 28.938472807178172 28.938472807178172 28.90770921076726 28.90770921076726 28.938472807178172 28.90770921076726 28.938472807178172 28.938472807178172 28.90770921076726 28.90770921076726 28.90770921076726 28.90770921076726 28.938472807178172 28.90770921076726 28.938472807178172 28.90770921076726 28.90770921076726 28.90770921076726 28.938472807178172 28.938472807178172 28.938472807178172 28.938472807178172 28.938472807178172 28.938472807178172 28.90770921076726 28.90770921076726 28.938472807178172 28.90770921076726 28.90770921076726 28.90770921076726 28.90770921076726 28.90770921076726 28.90770921076726 28.938472807178172 28.90770921076726 28.90770921076726 28.90770921076726 28.90770921076726 28.90770921076726 28.90770921076726 28.90770921076726 28.90770921076726 28.90770921076726 28.90770921076726 28.90770921076726 28.90770921076726 28.90770921076726 28.90770921076726 28.90770921076726 28.90770921076726 28.90770921076726 28.90770921076726 28.90770921076726 28.90770921076726 28.90770921076726 28.90770921076726 28.90770921076726 28.90770921076726 28.90770921076726 28.90770921076726 28.90770921076726 28.90770921076726 28.90770921076726 28.90770921076726 28.90770921076726 28.90770921076726 28.90770921076726 28.90770921076726 28.90770921076726 28.90770921076726 28.90770921076726 28.90770921076726 28.90770921076726 28.90770921076726 28.90770921076726 28.90770921076726 28.90770921076726 28.90770921076726 28.90770921076726 28.90770921076726 28.90770921076726 28.90770921076726 28.90770921076726 28.90770921076726 28.90770921076726 28.90770921076726 28.90770921076726 28.90770921076726 28.90770921076726 28.90770921076726 28.90770921076726 28.90770921076726 28.90770921076726 28.90770921076726 28.876945614356345 28.90770921076726 28.90770921076726 28.90770921076726 28.90770921076726 28.90770921076726 28.90770921076726 28.90770921076726 28.90770921076726 28.90770921076726 28.90770921076726 28.876945614356345 28.90770921076726 28.90770921076726 28.90770921076726 28.90770921076726 28.90770921076726 28.876945614356345 28.876945614356345 28.876945614356345 28.90770921076726 28.90770921076726 28.876945614356345 28.876945614356345 28.876945614356345 28.876945614356345 28.876945614356345 28.876945614356345 28.90770921076726 28.876945614356345 28.876945614356345 28.876945614356345 28.876945614356345 28.876945614356345 28.876945614356345 28.876945614356345 28.876945614356345 28.876945614356345 28.876945614356345 28.90770921076726 28.876945614356345 28.876945614356345 28.876945614356345 28.876945614356345 28.876945614356345 28.876945614356345 28.876945614356345 28.876945614356345 28.876945614356345 28.876945614356345 28.876945614356345 28.876945614356345 28.876945614356345 28.876945614356345 28.876945614356345 28.876945614356345 28.876945614356345 28.876945614356345 28.876945614356345 28.876945614356345 28.876945614356345 28.876945614356345 28.876945614356345 28.876945614356345 28.876945614356345 28.876945614356345 28.876945614356345 28.876945614356345 28.876945614356345 28.876945614356345 28.876945614356345 28.876945614356345 28.876945614356345 28.876945614356345 28.876945614356345 28.876945614356345 28.876945614356345 28.876945614356345 28.876945614356345 28.876945614356345 28.876945614356345 28.876945614356345 28.876945614356345 28.876945614356345 28.876945614356345 28.876945614356345 28.876945614356345 28.876945614356345 28.876945614356345 28.876945614356345 28.876945614356345 28.876945614356345 28.876945614356345 28.876945614356345 28.876945614356345 28.876945614356345 28.876945614356345 28.876945614356345 28.876945614356345 28.876945614356345 28.876945614356345 28.876945614356345 28.876945614356345 28.876945614356345 28.876945614356345 28.876945614356345 28.876945614356345 28.876945614356345 28.876945614356345 28.876945614356345 28.876945614356345 28.876945614356345 28.876945614356345 28.876945614356345 28.876945614356345 28.876945614356345 28.876945614356345 28.876945614356345 28.876945614356345 28.876945614356345 28.876945614356345 28.876945614356345 28.876945614356345 28.876945614356345 28.876945614356345 28.876945614356345 28.876945614356345 28.876945614356345 28.876945614356345 28.876945614356345 28.876945614356345 28.876945614356345 28.876945614356345 28.876945614356345 28.876945614356345 28.876945614356345 28.876945614356345 28.876945614356345 28.876945614356345 28.876945614356345 28.876945614356345 28.876945614356345 28.876945614356345 28.876945614356345 28.876945614356345 28.876945614356345 28.876945614356345 28.876945614356345 28.876945614356345 28.876945614356345 28.876945614356345 28.876945614356345 28.876945614356345 28.876945614356345 28.876945614356345 28.876945614356345 28.876945614356345 28.876945614356345 28.876945614356345 28.876945614356345 28.876945614356345 28.876945614356345 28.876945614356345 28.876945614356345 28.876945614356345 28.876945614356345 28.876945614356345 28.876945614356345 28.876945614356345 28.876945614356345 28.876945614356345 28.876945614356345 28.876945614356345 28.876945614356345 28.876945614356345 28.876945614356345 28.876945614356345 28.876945614356345 28.876945614356345 28.876945614356345 28.876945614356345 28.876945614356345 28.876945614356345 28.876945614356345 28.876945614356345 28.876945614356345 28.876945614356345 28.876945614356345 28.876945614356345 28.876945614356345 28.876945614356345 28.876945614356345 28.876945614356345 28.876945614356345 28.876945614356345 28.876945614356345 28.876945614356345 28.876945614356345 28.876945614356345 28.876945614356345 28.876945614356345 28.876945614356345 28.876945614356345 28.876945614356345 28.876945614356345 28.876945614356345 28.876945614356345 28.876945614356345 28.876945614356345 28.876945614356345 28.876945614356345 28.876945614356345 28.876945614356345 28.876945614356345 28.876945614356345 28.876945614356345 28.876945614356345 28.876945614356345 28.876945614356345 28.876945614356345 28.876945614356345 28.876945614356345 28.876945614356345 28.876945614356345 28.876945614356345 28.876945614356345 28.876945614356345 28.876945614356345 28.876945614356345 28.876945614356345 28.876945614356345 28.876945614356345 28.876945614356345 28.876945614356345 28.876945614356345 28.876945614356345 28.876945614356345 28.876945614356345 28.876945614356345 28.876945614356345 28.876945614356345 28.876945614356345 28.876945614356345 28.876945614356345 28.876945614356345 28.876945614356345 28.876945614356345 28.876945614356345 28.876945614356345 28.876945614356345 28.876945614356345 28.876945614356345 28.876945614356345 28.876945614356345 28.876945614356345 28.876945614356345 28.876945614356345 28.876945614356345 28.876945614356345 28.876945614356345 28.84618201794543 28.876945614356345 28.876945614356345 28.876945614356345 28.876945614356345 28.876945614356345 28.876945614356345 28.876945614356345 28.876945614356345 28.876945614356345 28.84618201794543 28.876945614356345 28.876945614356345 28.876945614356345 28.876945614356345 28.876945614356345 28.876945614356345 28.876945614356345 28.876945614356345 28.876945614356345 28.876945614356345 28.876945614356345 28.876945614356345 28.876945614356345 28.876945614356345 28.876945614356345 28.876945614356345 28.876945614356345 28.876945614356345 28.876945614356345 28.876945614356345 28.876945614356345 28.876945614356345 28.876945614356345 28.876945614356345 28.876945614356345 28.876945614356345 28.876945614356345 28.876945614356345 28.876945614356345 28.876945614356345 28.876945614356345 28.876945614356345 28.876945614356345 28.876945614356345 28.876945614356345 28.876945614356345 28.876945614356345 28.876945614356345 28.84618201794543 28.876945614356345 28.876945614356345 28.876945614356345 28.876945614356345 28.876945614356345 28.876945614356345 28.876945614356345 28.876945614356345 28.876945614356345 28.876945614356345 28.876945614356345 28.876945614356345 28.876945614356345 28.876945614356345 28.876945614356345 28.876945614356345 28.876945614356345 28.876945614356345 28.876945614356345 28.876945614356345 28.876945614356345 28.876945614356345 28.876945614356345 28.876945614356345 28.876945614356345 28.876945614356345 28.876945614356345 28.876945614356345 28.876945614356345 28.876945614356345 28.876945614356345 28.876945614356345 28.876945614356345 28.876945614356345 28.876945614356345 28.876945614356345 28.876945614356345 28.876945614356345 28.876945614356345 28.876945614356345 28.876945614356345 28.876945614356345 28.876945614356345 28.876945614356345 28.876945614356345 28.876945614356345 28.876945614356345 28.876945614356345 28.876945614356345 28.876945614356345 28.876945614356345 28.876945614356345 28.876945614356345 28.876945614356345 28.876945614356345 28.876945614356345 28.876945614356345 28.876945614356345 28.876945614356345 28.876945614356345 28.876945614356345 28.84618201794543 28.876945614356345 28.876945614356345 28.876945614356345 28.876945614356345 28.876945614356345 28.876945614356345 28.876945614356345 28.876945614356345 28.876945614356345 28.876945614356345 28.876945614356345 28.876945614356345 28.876945614356345 28.876945614356345 28.876945614356345 28.876945614356345 28.876945614356345 28.876945614356345 28.876945614356345 28.84618201794543 28.876945614356345 28.876945614356345 28.876945614356345 28.84618201794543 28.84618201794543 28.876945614356345 28.876945614356345 28.84618201794543 28.876945614356345 28.876945614356345 28.84618201794543 28.876945614356345 28.876945614356345 28.876945614356345 28.876945614356345 28.84618201794543 28.876945614356345 28.876945614356345 28.84618201794543 28.876945614356345 28.876945614356345 28.876945614356345 28.876945614356345 28.876945614356345 28.876945614356345 28.876945614356345 28.84618201794543 28.876945614356345 28.876945614356345 28.876945614356345 28.876945614356345 28.876945614356345 28.876945614356345 28.876945614356345 28.876945614356345 28.876945614356345 28.876945614356345 28.876945614356345 28.876945614356345 28.876945614356345 28.90770921076726 28.90770921076726 28.90770921076726 28.90770921076726 28.90770921076726 28.90770921076726 28.90770921076726 28.938472807178172 28.938472807178172 28.938472807178172 28.938472807178172 28.938472807178172 28.969236403589086 28.969236403589086 28.969236403589086 29.0 29.0 29.0 29.0 29.0 29.0 29.030763596410914 29.030763596410914 29.061527192821828 29.061527192821828 29.09229078923274 29.123054385643655 29.15381798205457 29.15381798205457 29.184581578465483 29.184581578465483 29.215345174876397 29.215345174876397 29.215345174876397 29.24610877128731 29.24610877128731 29.276872367698225 29.276872367698225 29.30763596410914 29.30763596410914 29.30763596410914 29.338399560520052 29.369163156930966 29.369163156930966 29.430690349752794 29.430690349752794 29.461453946163708 29.49221754257462 29.522981138985532 29.58450833180736 29.58450833180736 29.58450833180736 29.646035524629188 29.646035524629188 29.707562717451015 29.73832631386193 29.769089910272843 29.799853506683757 29.83061710309467 29.8921442959165 29.98443508514924 30.045962277971068 30.13825306720381 30.199780260025637 30.29207104925838 30.445889031312948 30.66123420618934 30.784288591832997 30.907342977476652 31.12268815235305 31.27650613440762 31.55337850210584 31.676432887749495 31.891778062625892 32.014832448269544 32.1378868339132 32.260941219556855 32.38399560520051 32.59934078007691 32.87621314777513 33.0300311298297 33.214612708295185 33.33766709393884 33.55301226881524 33.73759384728072 33.922175425746204 34.137520600622594 34.35286577549899 34.50668375755356 34.84508331807361 35.029664896539096 35.21424647500458 35.491118842702804 35.67570042116829 35.98333638527742 36.444790331441126 36.69089910272844 36.96777147042666 37.152353048892145 37.36769822376854 37.798388573521336 38.013733748397726 38.38289690532869 38.721296465848745 39.028932429957884 39.428859183299764 39.55191356894342 39.921076725874386 40.290239882805345 40.536348654092656 40.90551181102362 41.27467496795458 41.55154733565281 41.92071049258377 42.197582860282 42.59750961362388 42.99743636696576 43.24354513825307 43.67423548800586 44.074162241347736 44.35103460904596 44.874015748031496 45.15088811572972 45.427760483427946 45.79692364035891 46.196850393700785 46.53524995422084 46.84288591832997 47.08899468961728 47.36586705731551 47.550448635780995 47.73503021424648 48.104193371177445 48.35030214246475 48.62717451016297 48.99633766709394 49.24244643838125 49.642373191723124 49.95000915583226 50.288408716352315 50.688335469694195 50.96520783739241 51.27284380150155 51.73429774766526 51.949642922541656 52.19575169382897 52.56491485075993 52.811023622047244 53.14942318256729 53.54934993590917 53.94927668925105 54.379967039003844 54.7183665995239 55.05676616004395 55.36440212415309 55.67203808826222 56.195019227247755 56.53341878776781 56.87181834828786 57.240981505218826 57.517853872917044 57.94854422266984 58.04083501190259 58.34847097601172 58.62534334370994 58.809924922175426 58.99450650064091 59.24061527192821 59.48672404321553 59.732832814502835 59.886650796557404 60.07123237502289 60.28657754989928 60.53268632118659 60.74803149606299 60.901849478117555 61.086431056583045 61.27101263504852 61.42483061710309 61.64017579197949 61.76323017762314 61.91704815967771 62.07086614173228 62.19392052737594 62.409265702252334 62.65537447353964 62.80919245559421 63.024537630470604 63.17835561252517 63.33217359457974 63.516755173045226 63.70133675151071 64.03973631203075 64.28584508331807 64.47042666178355 64.77806262589269 64.93188060794725 65.14722578282365 65.51638893975462 65.7009705182201 65.94707928950741 66.28547885002746 66.53158762131477 66.74693279619117 67.05456876030031 67.30067753158761 67.66984068851858 67.94671305621681 68.10053103827138 68.3466398095587 68.53122138802416 68.90038454495513 69.11572971983153 69.300311298297 69.4848928767625 69.66947445522797 69.91558322651528 70.22321919062442 70.377037172679 70.56161875114448 70.71543673319906 70.93078190807545 71.17689067936274 71.33070866141732 71.54605383629371 71.76139901117011 71.91521699322467 72.16132576451199 72.34590734297747 72.5920161142648 72.83812488555209 73.02270646401757 73.23805163889398 73.45339681377037 73.60721479582494 73.91485075993407 74.06866874198865 74.25325032045413 74.46859549533052 74.653177073796 75.02234023072697 75.23768540560337 75.51455777330159 75.82219373741073 76.06830250869804 76.40670206921808 76.77586522614905 77.05273759384727 77.39113715436733 77.7603003112983 78.0064090825856 78.40633583592748 78.68320820362571 79.1138985533785 79.51382530672038 79.7906976744186 80.19062442776048 80.71360556674601 80.95971433803334 81.20582310932063 81.54422266984068 81.75956784471708 82.0364402124153 82.31331258011353 82.62094854422267 82.89782091192089 83.1439296832082 83.45156564731735 83.66691082219373 84.00531038271379 84.34370994323385 84.68210950375389 84.95898187145211 85.23585423915033 85.51272660684856 85.94341695660134 86.12799853506684 86.3125801135323 86.52792528840871 86.68174327046327 86.83556125251785 87.05090642739424 87.1739608130379 87.32777879509247 87.45083318073613 87.60465116279069 87.78923274125617 87.94305072331073 88.15839589818714 88.2814502838308 88.40450466947445 88.4967954587072 88.5275590551181 88.61984984435085 88.71214063358359 88.77366782640541 88.83519501922726 88.92748580845998 88.98901300128182 89.05054019410363 89.08130379051455 89.11206738692547 89.14283098333638 89.14283098333638 89.17359457974729 89.17359457974729 89.14283098333638 89.17359457974729 89.14283098333638 89.14283098333638 89.14283098333638 89.14283098333638 89.14283098333638 89.14283098333638 89.11206738692547 89.11206738692547 89.11206738692547 89.11206738692547 89.11206738692547 89.11206738692547 89.11206738692547 89.11206738692547 89.11206738692547 89.11206738692547 89.11206738692547 89.11206738692547 89.11206738692547 89.11206738692547 89.08130379051455 89.08130379051455 89.05054019410363 89.01977659769273 88.98901300128182 88.98901300128182 88.95824940487088 88.95824940487088 88.92748580845998 88.92748580845998 88.92748580845998 88.92748580845998 88.95824940487088 88.95824940487088 88.95824940487088 88.95824940487088 88.95824940487088 88.95824940487088 88.95824940487088 88.95824940487088 88.95824940487088 88.95824940487088 88.95824940487088 88.95824940487088 88.95824940487088 88.95824940487088 88.95824940487088 88.95824940487088 88.95824940487088 88.95824940487088 88.95824940487088 88.95824940487088 88.95824940487088 88.95824940487088 88.95824940487088 88.95824940487088 88.95824940487088 88.95824940487088 88.95824940487088 88.92748580845998 88.92748580845998 88.89672221204907 88.86595861563816 88.80443142281632 88.7429042299945 88.68137703717267 88.65061344076176 88.58908624793993 88.4967954587072 88.46603186229628 88.43526826588536 88.40450466947445 88.40450466947445 88.40450466947445 88.40450466947445 88.40450466947445 88.40450466947445 88.43526826588536 88.43526826588536 88.46603186229628 88.46603186229628 88.46603186229628 88.46603186229628 88.46603186229628 88.4967954587072 88.4967954587072 88.4967954587072 88.4967954587072 88.4967954587072 88.4967954587072 88.4967954587072 88.4967954587072 88.5275590551181 88.4967954587072 88.4967954587072 88.4967954587072 88.4967954587072 88.4967954587072 88.4967954587072 88.4967954587072 88.4967954587072 88.4967954587072 88.4967954587072 88.4967954587072 88.4967954587072 88.4967954587072 88.4967954587072 88.4967954587072 88.4967954587072 88.4967954587072 88.4967954587072 88.4967954587072 88.4967954587072 88.4967954587072 88.4967954587072 88.4967954587072 88.4967954587072 88.4967954587072 88.4967954587072 88.4967954587072 88.4967954587072 88.4967954587072 88.4967954587072 88.4967954587072 88.46603186229628 88.4967954587072 88.46603186229628 88.43526826588536 88.40450466947445 88.40450466947445 88.37374107306354 88.37374107306354 88.34297747665262 88.31221388024171 88.2814502838308 88.25068668741989 88.21992309100898 88.18915949459806 88.18915949459806 88.15839589818714 88.15839589818714 88.15839589818714 88.15839589818714 88.15839589818714 88.15839589818714 88.18915949459806 88.15839589818714 88.18915949459806 88.18915949459806 88.18915949459806 88.21992309100898 88.21992309100898 88.25068668741989 88.21992309100898 88.25068668741989 88.25068668741989 88.25068668741989 88.25068668741989 88.25068668741989 88.25068668741989 88.25068668741989 88.25068668741989 88.21992309100898 88.25068668741989 88.25068668741989 88.25068668741989 88.25068668741989 88.25068668741989 88.25068668741989 88.25068668741989 88.25068668741989 88.25068668741989 88.25068668741989 88.2814502838308 88.31221388024171 88.31221388024171 88.31221388024171 88.31221388024171 88.31221388024171 88.31221388024171 88.31221388024171 88.31221388024171 88.31221388024171 88.31221388024171 88.31221388024171 88.31221388024171 88.31221388024171 88.31221388024171 88.31221388024171 88.31221388024171 88.31221388024171 88.31221388024171 88.31221388024171 88.31221388024171 88.31221388024171 88.2814502838308 88.2814502838308 88.2814502838308 88.2814502838308 88.2814502838308 88.2814502838308 88.2814502838308 88.2814502838308 88.2814502838308 88.2814502838308 88.2814502838308 88.2814502838308 88.2814502838308 88.2814502838308 88.25068668741989 88.25068668741989 88.25068668741989 88.25068668741989 88.25068668741989 88.21992309100898 88.21992309100898 88.21992309100898 88.21992309100898 88.21992309100898 88.18915949459806 88.21992309100898 88.21992309100898 88.21992309100898 88.21992309100898 88.21992309100898 88.21992309100898 88.21992309100898 88.21992309100898 88.21992309100898 88.21992309100898 88.21992309100898 88.21992309100898 88.21992309100898 88.21992309100898 88.21992309100898 88.21992309100898 88.21992309100898 88.21992309100898 88.21992309100898 88.21992309100898 88.21992309100898 88.18915949459806 88.15839589818714 88.09686870536532 88.09686870536532 88.00457791613258 87.94305072331073 87.91228712689983 87.81999633766708 87.78923274125617 87.72770554843434 87.69694195202344 87.69694195202344 87.66617835561252 87.60465116279069 87.57388756637978 87.51236037355795 87.48159677714705 87.4200695843252 87.3893059879143 87.3893059879143 87.35854239150339 87.35854239150339 87.35854239150339 87.35854239150339 87.35854239150339 87.35854239150339 87.3893059879143 87.3893059879143 87.3893059879143 87.3893059879143 87.3893059879143 87.4200695843252 87.45083318073613 87.45083318073613 87.45083318073613 87.45083318073613 87.48159677714705 87.48159677714705 87.48159677714705 87.48159677714705 87.48159677714705 87.48159677714705 87.48159677714705 87.48159677714705 87.51236037355795 87.48159677714705 87.48159677714705 87.48159677714705 87.48159677714705 87.48159677714705 87.48159677714705 87.48159677714705 87.45083318073613 87.45083318073613 87.45083318073613 87.4200695843252 87.3893059879143 87.26625160227064 87.1739608130379 87.08167002380517 86.98937923457241 86.86632484892877 86.7125068668742 86.52792528840871 86.40487090276505 86.18952572788865 85.94341695660134 85.8203625709577 85.60501739608131 85.45119941402672 85.26661783556125 85.08203625709577 84.92821827504119 84.77440029298663 84.58981871452116 84.4667643288775 84.18989196117926 84.06683757553562 83.91301959348104 83.69767441860465 83.42080205090642 83.23622047244095 82.86705731550998 82.68247573704448 82.40560336934627 82.22102179088078 81.91338582677164 81.51345907342977 81.42116828419702 81.1442959164988 80.8981871452115 80.71360556674601 80.49826039186962 80.34444240981506 80.12909723493865 79.94451565647316 79.7906976744186 79.60611609595313 79.36000732466582 79.26771653543307 79.1138985533785 78.8677897820912 78.71397180003662 78.49862662516023 78.22175425746201 78.03717267899651 77.88335469694195 77.66800952206555 77.45266434718914 77.32960996154551 77.17579197949092 77.02197399743636 76.92968320820361 76.80662882255997 76.71433803332724 76.59128364768358 76.43746566562899 76.40670206921808 76.28364768357443 76.1913568943417 76.09906610510895 76.00677531587621 75.88372093023256 75.79143014099981 75.66837575535615 75.60684856253434 75.48379417689067 75.39150338765793 75.29921259842519 75.14539461637062 75.0838674235488 74.93004944149423 74.77623145943966 74.653177073796 74.46859549533052 74.31477751327596 74.1917231276323 74.00714154916682 73.88408716352316 73.7302691814686 73.5149240065922 73.39186962094854 73.23805163889398 73.11499725325032 73.02270646401757 72.83812488555209 72.71507049990844 72.46896172862114 72.31514374656656 72.16132576451199 71.9459805896356 71.82292620399194 71.63834462552646 71.36147225782824 71.14612708295184 70.8384911188427 70.53085515473356 70.31550997985717 69.9463468229262 69.70023805163889 69.4848928767625 69.20802050906427 69.02343893059879 68.74656656290057 68.46969419520234 68.22358542391504 67.97747665262773 67.82365867057315 67.7006042849295 67.51602270646401 67.39296832082036 67.2391503387658 67.02380516388939 66.93151437465664 66.74693279619117 66.68540560336935 66.5931148141366 66.47006042849296 66.40853323567111 66.28547885002746 66.1316608679729 66.07013367515107 65.9163156930965 65.73173411463102 65.63944332539828 65.48562534334371 65.36257095770006 65.17798937923456 64.99340780076909 64.90111701153634 64.62424464383813 64.50119025819447 64.34737227613991 64.16279069767441 63.94744552279802 63.76286394433254 63.54751876945614 63.39370078740157 63.20911920893609 63.08606482329243 62.901483244826956 62.74766526277239 62.62461087712873 62.409265702252334 62.255447720197765 62.07086614173228 61.8862845632668 61.701702984801315 61.547885002746746 61.30177623145944 61.14795824940487 60.901849478117555 60.53268632118659 60.3173411463102 60.132759567844715 59.79436000732467 59.54825123603735 59.24061527192821 58.84068851858633 58.44076176524446 58.04083501190259 57.763962644204355 57.39479948727339 57.08716352316425 56.81029115546603 56.441127998535066 56.225782823658676 55.91814685954953 55.73356528108405 55.48745650979674 55.179820545687605 54.99523896722212 54.841420985167545 54.626075810291155 54.44149423182567 54.19538546053836 53.94927668925105 53.67240432155283 53.45705914667643 53.303241164621866 53.08789598974546 52.9340780076909 52.718732832814496 52.47262406152719 52.31880607947262 52.103460904596226 51.88811572971983 51.76506134407617 51.457425379967034 51.30360739791247 51.149789415857896 50.934444240981506 50.74986266251602 50.4729902948178 50.134590734297745 49.95000915583226 49.73466398095587 49.48855520966856 49.334737227613985 49.18091924555942 48.99633766709394 48.59641091375206 48.319538546053835 47.91961179271196 47.73503021424648 47.48892144295917 47.24281267167186 46.904413111151804 46.62754074345358 46.2276139901117 45.82768723676982 45.5508148690716 45.181651712140635 44.781724958798755 44.535616187511444 44.135689434169564 43.85881706647134 43.48965390954038 43.0897271561985 42.812854788500275 42.44369163156931 42.259110053103825 42.04376487822743 41.7668925105292 41.490020142830986 41.3054385643655 40.96703900384545 40.78245742537997 40.536348654092656 40.35176707562717 40.136421900750776 39.890313129463465 39.7364951474089 39.5211499725325 39.30580479765611 39.121223219190625 38.90587804431423 38.75206006225966 38.44442409815052 38.29060611609595 38.13678813404138 37.89067936275407 37.61380699505585 37.459989013001284 37.09082585607032 36.906244277604834 36.72166269913935 36.444790331441126 36.13715436733199 35.89104559604468 35.583409631935545 35.39882805347006 35.12195568577184 34.87584691448453 34.5989745467863 34.35286577549899 34.16828419703351 33.983702618568024 33.860648232924376 33.79912104010255 33.67606665445889 33.614539461637065 33.49148507599341 33.39919428676067 33.33766709393884 33.214612708295185 33.15308551547336 33.12232191906244 33.09155832265153 33.0300311298297 32.968503937007874 32.906976744186046 32.87621314777513 32.78392235854239 32.69163156930965 32.63010437648782 32.568577183665994 32.507049990844166 32.414759201611425 32.32246841237868 32.260941219556855 32.168650430324114 32.07635964109137 31.984068851858634 31.830250869804065 31.768723676982237 31.676432887749495 31.55337850210584 31.399560520051274 31.307269730818533 31.21497894158579 31.091924555942136 30.999633766709394 30.907342977476652 30.81505218824391 30.753524995422083 30.630470609778428 30.5689434169566 30.47665262772386 30.38436183849112 30.29207104925838 30.13825306720381 30.045962277971068 29.953671488738326 29.8921442959165 29.799853506683757 29.73832631386193 29.6767991210401 29.646035524629188 29.615271928218274 29.58450833180736 29.58450833180736 29.553744735396446 29.553744735396446 29.522981138985532 29.522981138985532 29.49221754257462 29.49221754257462 29.461453946163708 29.461453946163708 29.430690349752794 29.430690349752794 29.430690349752794 29.430690349752794 29.39992675334188 29.369163156930966 29.369163156930966 29.369163156930966 29.338399560520052 29.30763596410914 29.30763596410914 29.30763596410914 29.276872367698225 29.276872367698225 29.276872367698225 29.276872367698225 29.276872367698225 29.24610877128731 29.24610877128731 29.24610877128731 29.24610877128731 29.24610877128731 29.215345174876397 29.215345174876397 29.215345174876397 29.184581578465483 29.184581578465483 29.184581578465483 29.184581578465483 29.184581578465483 29.184581578465483 29.15381798205457 29.15381798205457 29.15381798205457 29.15381798205457 29.123054385643655 29.09229078923274 29.09229078923274 29.09229078923274 29.061527192821828 29.061527192821828 29.061527192821828 29.061527192821828 29.061527192821828 29.030763596410914 29.030763596410914 29.030763596410914 29.030763596410914 29.030763596410914 29.030763596410914 29.030763596410914 29.030763596410914 29.030763596410914 29.0 29.0 29.0 29.0 29.0 29.0 28.969236403589086 28.969236403589086 28.969236403589086 28.969236403589086 28.969236403589086 28.969236403589086 28.969236403589086 28.969236403589086 29.0 28.969236403589086 28.969236403589086 28.969236403589086 28.969236403589086 28.969236403589086 28.969236403589086 28.969236403589086 28.969236403589086 28.969236403589086 28.969236403589086 28.969236403589086 28.938472807178172 28.938472807178172 28.938472807178172 28.938472807178172 28.938472807178172 28.938472807178172 28.938472807178172 28.938472807178172 28.938472807178172 28.90770921076726 28.938472807178172 28.90770921076726 28.90770921076726 28.938472807178172 28.938472807178172 28.90770921076726 28.90770921076726 28.90770921076726 28.90770921076726 28.938472807178172 28.90770921076726 28.90770921076726 28.938472807178172 28.938472807178172 28.938472807178172 28.90770921076726 28.90770921076726 28.90770921076726 28.938472807178172 28.90770921076726 28.90770921076726 28.90770921076726 28.90770921076726 28.90770921076726 28.90770921076726 28.90770921076726 28.90770921076726 28.90770921076726 28.90770921076726 28.90770921076726 28.90770921076726 28.90770921076726 28.90770921076726 28.90770921076726 28.90770921076726 28.90770921076726 28.90770921076726 28.90770921076726 28.90770921076726 28.90770921076726 28.90770921076726 28.90770921076726 28.90770921076726 28.90770921076726 28.90770921076726 28.90770921076726 28.90770921076726 28.90770921076726 28.90770921076726 28.90770921076726 28.90770921076726 28.90770921076726 28.90770921076726 28.90770921076726 28.90770921076726 28.90770921076726 28.90770921076726 28.90770921076726 28.90770921076726 28.90770921076726 28.90770921076726 28.90770921076726 28.90770921076726 28.90770921076726 28.90770921076726 28.90770921076726 28.90770921076726 28.90770921076726 28.90770921076726 28.90770921076726 28.90770921076726 28.90770921076726 28.90770921076726 28.90770921076726 28.90770921076726 28.90770921076726 28.90770921076726 28.90770921076726 28.90770921076726 28.90770921076726 28.90770921076726 28.90770921076726 28.90770921076726 28.90770921076726 28.90770921076726 28.90770921076726 28.90770921076726 28.90770921076726 28.90770921076726 28.90770921076726 28.90770921076726 28.90770921076726 28.90770921076726 28.90770921076726 28.90770921076726 28.90770921076726 28.90770921076726 28.90770921076726 28.90770921076726 28.90770921076726 28.90770921076726 28.90770921076726 28.90770921076726 28.90770921076726 28.90770921076726 28.90770921076726 28.90770921076726 28.876945614356345 28.876945614356345 28.90770921076726 28.90770921076726 28.90770921076726 28.90770921076726 28.90770921076726 28.90770921076726 28.90770921076726 28.90770921076726 28.90770921076726 28.90770921076726 28.90770921076726 28.90770921076726 28.90770921076726 28.876945614356345 28.90770921076726 28.90770921076726 28.90770921076726 28.90770921076726 28.90770921076726 28.90770921076726 28.90770921076726 28.90770921076726 28.90770921076726 28.876945614356345 28.90770921076726 28.90770921076726 28.90770921076726 28.90770921076726 28.876945614356345 28.90770921076726 28.90770921076726 28.90770921076726 28.90770921076726 28.876945614356345 28.90770921076726 28.876945614356345 28.90770921076726 28.90770921076726 28.90770921076726 28.90770921076726 28.90770921076726 28.90770921076726 28.876945614356345 28.90770921076726 28.90770921076726 28.876945614356345 28.90770921076726 28.90770921076726 28.90770921076726 28.876945614356345 28.90770921076726 28.876945614356345 28.876945614356345 28.876945614356345 28.90770921076726 28.876945614356345 28.90770921076726 28.876945614356345 28.90770921076726 28.876945614356345 28.876945614356345 28.90770921076726 28.90770921076726 28.876945614356345 28.876945614356345 28.90770921076726 28.876945614356345 28.90770921076726 28.90770921076726 28.90770921076726 28.876945614356345 28.90770921076726 28.90770921076726 28.876945614356345 28.876945614356345 28.876945614356345 28.90770921076726 28.876945614356345 28.90770921076726 28.876945614356345 28.876945614356345 28.90770921076726 28.876945614356345 28.90770921076726 28.90770921076726 28.90770921076726 28.876945614356345 28.876945614356345 28.90770921076726 28.876945614356345 28.876945614356345 28.876945614356345 28.90770921076726 28.90770921076726 28.876945614356345 28.90770921076726 28.876945614356345 28.90770921076726 28.876945614356345 28.876945614356345 28.876945614356345 28.876945614356345 28.90770921076726 28.876945614356345 28.876945614356345 28.876945614356345 28.90770921076726 28.876945614356345 28.90770921076726 28.876945614356345 28.90770921076726 28.90770921076726 28.876945614356345 28.90770921076726 28.876945614356345 28.90770921076726 28.90770921076726 28.90770921076726 28.90770921076726 28.876945614356345 28.90770921076726 28.876945614356345 28.876945614356345 28.876945614356345 28.876945614356345 28.90770921076726 28.876945614356345 28.876945614356345 28.90770921076726 28.90770921076726 28.90770921076726 28.876945614356345 28.876945614356345 28.90770921076726 28.876945614356345 28.876945614356345 28.90770921076726 28.90770921076726 28.90770921076726 28.90770921076726 28.876945614356345 28.90770921076726 28.90770921076726 28.876945614356345 28.876945614356345 28.876945614356345 28.876945614356345 28.90770921076726 28.90770921076726 28.90770921076726 28.876945614356345 28.876945614356345 28.876945614356345 28.90770921076726 28.90770921076726 28.876945614356345 28.90770921076726 28.90770921076726 28.90770921076726 28.876945614356345 28.876945614356345 28.876945614356345 28.876945614356345 28.876945614356345 28.876945614356345 28.90770921076726 28.90770921076726 28.876945614356345 28.90770921076726 28.876945614356345 28.90770921076726 28.876945614356345 28.876945614356345 28.90770921076726 28.90770921076726 28.876945614356345 28.876945614356345 28.876945614356345 28.876945614356345 28.90770921076726 28.876945614356345 28.876945614356345 28.876945614356345 28.876945614356345 28.876945614356345 28.876945614356345 28.90770921076726 28.90770921076726 28.876945614356345 28.876945614356345 28.90770921076726 28.90770921076726 28.876945614356345 28.90770921076726 28.876945614356345 28.876945614356345 28.876945614356345 28.90770921076726 28.876945614356345 28.876945614356345 28.876945614356345 28.876945614356345 28.876945614356345 28.876945614356345 28.876945614356345 28.876945614356345 28.876945614356345 28.876945614356345 28.876945614356345 28.876945614356345 28.876945614356345 28.876945614356345 28.876945614356345 28.90770921076726 28.876945614356345 28.876945614356345 28.876945614356345 28.876945614356345 28.876945614356345 28.876945614356345 28.876945614356345 28.876945614356345 28.876945614356345 28.876945614356345 28.90770921076726 28.876945614356345 28.876945614356345 28.876945614356345 28.876945614356345 28.876945614356345 28.876945614356345 28.876945614356345 28.876945614356345 28.876945614356345 28.876945614356345 28.876945614356345 28.876945614356345 28.876945614356345 28.876945614356345 28.876945614356345 28.876945614356345 28.876945614356345 28.876945614356345 28.876945614356345 28.876945614356345 28.876945614356345 28.876945614356345 28.876945614356345 28.876945614356345 28.876945614356345 28.876945614356345 28.876945614356345 28.876945614356345 28.876945614356345 28.876945614356345 28.90770921076726 28.876945614356345 28.876945614356345 28.876945614356345 28.876945614356345 28.876945614356345 28.876945614356345 28.876945614356345 28.876945614356345 28.876945614356345 28.876945614356345 28.876945614356345 28.876945614356345 28.876945614356345 28.876945614356345 28.876945614356345 28.876945614356345 28.876945614356345 28.876945614356345 28.876945614356345 28.876945614356345 28.876945614356345 28.876945614356345 28.876945614356345 28.876945614356345 28.876945614356345 28.876945614356345 28.876945614356345 28.876945614356345 28.876945614356345 28.876945614356345 28.876945614356345 28.876945614356345 28.876945614356345 28.876945614356345 28.876945614356345 28.876945614356345 28.876945614356345 28.876945614356345 28.876945614356345 28.876945614356345 28.876945614356345 28.876945614356345 28.876945614356345 28.876945614356345 28.876945614356345 28.876945614356345 28.876945614356345 28.876945614356345 28.876945614356345 28.876945614356345 28.876945614356345 28.876945614356345 28.876945614356345 28.876945614356345 28.876945614356345 28.876945614356345 28.876945614356345 28.876945614356345 28.876945614356345 28.876945614356345 28.876945614356345 28.876945614356345 28.876945614356345 28.876945614356345 28.876945614356345 28.876945614356345 28.876945614356345 28.876945614356345 28.876945614356345 28.876945614356345 28.876945614356345 28.876945614356345 28.876945614356345 28.876945614356345 28.876945614356345 28.876945614356345 28.876945614356345 28.876945614356345 28.876945614356345 28.876945614356345 28.876945614356345 28.876945614356345 28.876945614356345 28.876945614356345 28.876945614356345 28.876945614356345 28.876945614356345 28.876945614356345 28.876945614356345 28.876945614356345 28.876945614356345 28.876945614356345 28.876945614356345 28.876945614356345 28.876945614356345 28.876945614356345 28.876945614356345 28.876945614356345 28.876945614356345 28.876945614356345 28.876945614356345 28.876945614356345 28.876945614356345 28.876945614356345 28.876945614356345 28.876945614356345 28.876945614356345 28.876945614356345 28.876945614356345 28.876945614356345 28.876945614356345 28.876945614356345 28.876945614356345 28.876945614356345 28.876945614356345 28.876945614356345 28.876945614356345 28.876945614356345 28.876945614356345 28.876945614356345 28.876945614356345 28.876945614356345 28.876945614356345 28.876945614356345 28.876945614356345 28.876945614356345 28.876945614356345 28.876945614356345 28.876945614356345 28.876945614356345 28.876945614356345 28.876945614356345 28.876945614356345 28.876945614356345 28.876945614356345 28.876945614356345 28.876945614356345 28.876945614356345 28.876945614356345 28.876945614356345 28.876945614356345 28.876945614356345 28.876945614356345 28.876945614356345 28.876945614356345 28.876945614356345 28.876945614356345 28.876945614356345 28.876945614356345 28.876945614356345 28.876945614356345 28.876945614356345 28.876945614356345 28.876945614356345 28.876945614356345 28.876945614356345 28.876945614356345 28.876945614356345 28.876945614356345 28.876945614356345 28.876945614356345 28.876945614356345 28.876945614356345 28.876945614356345 28.876945614356345 28.876945614356345 28.876945614356345 28.876945614356345 28.876945614356345 28.876945614356345 28.876945614356345 28.876945614356345 28.876945614356345 28.876945614356345 28.876945614356345 28.876945614356345 28.876945614356345 28.876945614356345 28.876945614356345 28.876945614356345 28.876945614356345 28.876945614356345 28.876945614356345 28.876945614356345 28.876945614356345 28.876945614356345 28.876945614356345 28.876945614356345 28.876945614356345 28.876945614356345 28.876945614356345 28.876945614356345 28.876945614356345 28.876945614356345 28.876945614356345 28.876945614356345 28.876945614356345 28.876945614356345 28.876945614356345 28.876945614356345 28.876945614356345 28.876945614356345 28.876945614356345 28.876945614356345 28.876945614356345 28.876945614356345 28.876945614356345 28.876945614356345 28.876945614356345 28.876945614356345 28.876945614356345 28.876945614356345 28.876945614356345 28.876945614356345 28.876945614356345 28.876945614356345 28.876945614356345 28.876945614356345 28.876945614356345 28.876945614356345 28.876945614356345 28.876945614356345 28.876945614356345 28.876945614356345 28.876945614356345 28.876945614356345 28.876945614356345 28.876945614356345 28.876945614356345 28.876945614356345 28.876945614356345 28.876945614356345 28.876945614356345 28.876945614356345 28.876945614356345 28.876945614356345 28.876945614356345 28.876945614356345 28.876945614356345 28.876945614356345 28.876945614356345 28.876945614356345 28.876945614356345 28.876945614356345 28.876945614356345 28.876945614356345 28.876945614356345 28.876945614356345 28.876945614356345 28.876945614356345 28.876945614356345 28.876945614356345 28.876945614356345 28.876945614356345 28.876945614356345 28.876945614356345 28.876945614356345 28.876945614356345 28.876945614356345 28.876945614356345 28.876945614356345 28.876945614356345 28.876945614356345 28.876945614356345 28.876945614356345 28.876945614356345 28.876945614356345 28.876945614356345 28.876945614356345 28.876945614356345 28.876945614356345 28.876945614356345 28.876945614356345 28.876945614356345 28.876945614356345 28.876945614356345 28.876945614356345 28.876945614356345 28.876945614356345 28.876945614356345 28.876945614356345 28.876945614356345 28.876945614356345 28.876945614356345 28.876945614356345 28.876945614356345 28.876945614356345 28.876945614356345 28.876945614356345 28.876945614356345 28.876945614356345 28.876945614356345 28.876945614356345 28.876945614356345 28.876945614356345 28.876945614356345 28.876945614356345 28.876945614356345 28.876945614356345 28.876945614356345 28.876945614356345 28.876945614356345 28.876945614356345 28.876945614356345 28.876945614356345 28.876945614356345 28.876945614356345 28.876945614356345 28.876945614356345 28.876945614356345 28.876945614356345 28.876945614356345 28.876945614356345 28.876945614356345 28.876945614356345 28.876945614356345 28.876945614356345 28.876945614356345 28.876945614356345 28.876945614356345 28.876945614356345 28.876945614356345 28.876945614356345 28.876945614356345 28.876945614356345 28.876945614356345 28.876945614356345 28.876945614356345 28.876945614356345 28.876945614356345 28.876945614356345 28.876945614356345 28.876945614356345 28.876945614356345 28.876945614356345 28.90770921076726 28.876945614356345 28.876945614356345 28.90770921076726 28.876945614356345 28.90770921076726 28.90770921076726 28.90770921076726 28.90770921076726 28.90770921076726 28.90770921076726 28.90770921076726 28.938472807178172 28.938472807178172 28.938472807178172 28.938472807178172 28.90770921076726 28.938472807178172 28.938472807178172 28.938472807178172 28.938472807178172 28.938472807178172 28.969236403589086 28.969236403589086 28.969236403589086 28.969236403589086 28.969236403589086 29.0 29.0 29.0 29.0 29.030763596410914 29.030763596410914 29.061527192821828 29.09229078923274 29.09229078923274 29.15381798205457 29.15381798205457 29.184581578465483 29.215345174876397 29.215345174876397 29.24610877128731 29.24610877128731 29.24610877128731 29.24610877128731 29.276872367698225 29.30763596410914 29.30763596410914 29.30763596410914 29.338399560520052 29.369163156930966 29.430690349752794 29.430690349752794 29.461453946163708 29.49221754257462 29.522981138985532 29.553744735396446 29.553744735396446 29.58450833180736 29.58450833180736 29.58450833180736 29.615271928218274 29.615271928218274 29.6767991210401 29.73832631386193 29.83061710309467 29.953671488738326 30.045962277971068 30.13825306720381 30.261307452847465 30.38436183849112 30.47665262772386 30.538179820545686 30.66123420618934 30.845815784654825 31.091924555942136 31.36879692364036 31.614905694927668 31.768723676982237 32.014832448269544 32.168650430324114 32.38399560520051 32.660867972898735 32.87621314777513 33.214612708295185 33.55301226881524 33.983702618568024 34.383629371909905 34.69126533601904 34.99890130012818 35.46035524629189 35.79875480681194 36.29097234938656 36.84471708478301 37.2754074345358 37.61380699505585 37.921442959164985 38.19831532686321 38.629005676616 39.0596960263688 39.49038637612159 39.85954953305256 40.136421900750776 40.444057864859914 40.690166636147225 41.090093389489105 41.459256546420065 41.7668925105292 42.04376487822743 42.35140084233657 42.59750961362388 43.0897271561985 43.39736312030763 43.67423548800586 44.10492583775865 44.4433253982787 44.874015748031496 45.3354696941952 45.82768723676982 46.31990477934444 46.68906793627541 47.02746749679545 47.70426661783556 48.04266617835561 48.53488372093023 49.05786485991577 49.39626442043581 49.888481963010435 50.19611792711957 50.688335469694195 51.11902581944699 51.457425379967034 51.85735213330892 52.31880607947262 52.62644204358176 53.08789598974546 53.42629555026552 53.826222303607395 54.19538546053836 54.47225782823658 54.99523896722212 55.21058414209851 55.48745650979674 55.948910455960444 56.195019227247755 56.47189159494598 56.81029115546603 57.179454312397 57.517853872917044 57.88701702984801 58.13312580113532 58.50228895806629 58.7483977293536 59.05603369346274 59.425196850393704 59.67130562168101 60.040468778611974 60.25581395348837 60.71726789965207 60.96337667093938 61.20948544222669 61.547885002746746 61.91704815967771 62.19392052737594 62.62461087712873 63.08606482329243 63.516755173045226 63.88591832997619 64.28584508331807 64.74729902948178 65.08569859000184 65.54715253616553 66.00860648232924 66.31624244643838 66.80845998901299 67.2391503387658 67.54678630287492 67.97747665262773 68.3774034059696 68.65427577366782 69.05420252700969 69.33107489470792 69.70023805163889 70.16169199780259 70.377037172679 70.6231459439663 70.96154550448635 71.17689067936274 71.54605383629371 71.88445339681377 72.19208936092289 72.53048892144295 72.77659769273026 73.14576084966123 73.5456876030031 73.82255997070132 74.13019593481047 74.37630470609778 74.71470426661784 75.05310382713789 75.29921259842519 75.729902948178 75.9760117194653 76.25288408716352 76.52975645486174 76.74510162973814 77.08350119025819 77.48342794360008 77.69877311847647 77.97564548617468 78.19099066105107 78.37557223951657 78.65244460721479 78.8677897820912 79.29848013184399 79.60611609595313 79.85222486724042 80.15986083134956 80.34444240981506 80.62131477751328 80.83665995238968 81.1442959164988 81.29811389855337 81.54422266984068 81.75956784471708 82.0364402124153 82.37483977293536 82.59018494781176 82.86705731550998 83.1439296832082 83.35927485808459 83.69767441860465 83.94378318989196 84.31294634682291 84.49752792528841 84.7128731001648 85.08203625709577 85.29738143197216 85.45119941402672 85.8203625709577 85.97418055301226 86.18952572788865 86.34334370994324 86.55868888481963 86.65097967405237 86.7125068668742 86.80479765610693 86.86632484892877 86.89708844533968 86.92785204175058 86.9586156381615 86.98937923457241 86.98937923457241 86.98937923457241 87.02014283098333 87.02014283098333 87.02014283098333 87.02014283098333 87.02014283098333 87.02014283098333 87.02014283098333 87.02014283098333 87.02014283098333 87.02014283098333 87.02014283098333 86.98937923457241 87.02014283098333 87.02014283098333 86.98937923457241 86.98937923457241 86.98937923457241 86.98937923457241 86.98937923457241 86.98937923457241 86.98937923457241 86.98937923457241 86.98937923457241 87.02014283098333 86.98937923457241 86.98937923457241 87.02014283098333 87.02014283098333 86.98937923457241 86.98937923457241 86.98937923457241 86.98937923457241 86.98937923457241 86.98937923457241 86.98937923457241 86.98937923457241 86.98937923457241 86.98937923457241 86.98937923457241 86.98937923457241 86.98937923457241 86.98937923457241 86.98937923457241 86.98937923457241 86.98937923457241 87.02014283098333 86.98937923457241 87.02014283098333 87.02014283098333 86.98937923457241 87.02014283098333 87.02014283098333 87.08167002380517 87.08167002380517 87.11243362021608 87.14319721662699 87.1739608130379 87.1739608130379 87.2047244094488 87.26625160227064 87.29701519868155 87.32777879509247 87.35854239150339 87.3893059879143 87.4200695843252 87.45083318073613 87.48159677714705 87.51236037355795 87.48159677714705 87.51236037355795 87.51236037355795 87.51236037355795 87.51236037355795 87.51236037355795 87.51236037355795 87.51236037355795 87.51236037355795 87.51236037355795 87.51236037355795 87.51236037355795 87.51236037355795 87.51236037355795 87.51236037355795 87.51236037355795 87.51236037355795 87.51236037355795 87.48159677714705 87.51236037355795 87.48159677714705 87.51236037355795 87.48159677714705 87.48159677714705 87.48159677714705 87.48159677714705 87.48159677714705 87.48159677714705 87.48159677714705 87.51236037355795 87.51236037355795 87.48159677714705 87.48159677714705 87.51236037355795 87.48159677714705 87.48159677714705 87.48159677714705 87.48159677714705 87.48159677714705 87.51236037355795 87.48159677714705 87.48159677714705 87.48159677714705 87.48159677714705 87.48159677714705 87.48159677714705 87.51236037355795 87.48159677714705 87.51236037355795 87.48159677714705 87.48159677714705 87.51236037355795 87.48159677714705 87.48159677714705 87.48159677714705 87.51236037355795 87.48159677714705 87.48159677714705 87.48159677714705 87.48159677714705 87.45083318073613 87.45083318073613 87.45083318073613 87.45083318073613 87.45083318073613 87.45083318073613 87.45083318073613 87.4200695843252 87.45083318073613 87.45083318073613 87.45083318073613 87.45083318073613 87.45083318073613 87.45083318073613 87.4200695843252 87.4200695843252 87.4200695843252 87.4200695843252 87.4200695843252 87.4200695843252 87.4200695843252 87.3893059879143 87.35854239150339 87.3893059879143 87.35854239150339 87.3893059879143 87.35854239150339 87.35854239150339 87.35854239150339 87.35854239150339 87.35854239150339 87.35854239150339 87.35854239150339 87.3893059879143 87.35854239150339 87.35854239150339 87.35854239150339 87.35854239150339 87.35854239150339 87.35854239150339 87.32777879509247 87.35854239150339 87.32777879509247 87.32777879509247 87.29701519868155 87.29701519868155 87.26625160227064 87.23548800585974 87.23548800585974 87.2047244094488 87.2047244094488 87.2047244094488 87.1739608130379 87.1739608130379 87.1739608130379 87.1739608130379 87.1739608130379 87.1739608130379 87.2047244094488 87.2047244094488 87.1739608130379 87.1739608130379 87.2047244094488 87.2047244094488 87.2047244094488 87.2047244094488 87.2047244094488 87.2047244094488 87.2047244094488 87.2047244094488 87.2047244094488 87.2047244094488 87.2047244094488 87.2047244094488 87.2047244094488 87.2047244094488 87.2047244094488 87.2047244094488 87.2047244094488 87.1739608130379 87.2047244094488 87.1739608130379 87.1739608130379 87.1739608130379 87.1739608130379 87.14319721662699 87.11243362021608 87.08167002380517 87.08167002380517 87.08167002380517 87.05090642739424 87.08167002380517 87.08167002380517 87.05090642739424 87.05090642739424 87.08167002380517 87.05090642739424 87.05090642739424 87.05090642739424 87.05090642739424 87.05090642739424 87.05090642739424 87.05090642739424 87.08167002380517 87.05090642739424 87.08167002380517 87.08167002380517 87.08167002380517 87.08167002380517 87.08167002380517 87.08167002380517 87.08167002380517 87.08167002380517 87.08167002380517 87.08167002380517 87.08167002380517 87.08167002380517 87.05090642739424 87.05090642739424 87.05090642739424 86.98937923457241 86.98937923457241 86.92785204175058 86.89708844533968 86.83556125251785 86.80479765610693 86.77403405969602 86.74327046328511 86.7125068668742 86.65097967405237 86.62021607764146 86.55868888481963 86.52792528840871 86.4971616919978 86.46639809558688 86.43563449917598 86.40487090276505 86.37410730635415 86.34334370994324 86.3125801135323 86.3125801135323 86.3125801135323 86.3125801135323 86.3125801135323 86.34334370994324 86.34334370994324 86.3125801135323 86.34334370994324 86.34334370994324 86.34334370994324 86.37410730635415 86.37410730635415 86.37410730635415 86.37410730635415 86.37410730635415 86.34334370994324 86.34334370994324 86.34334370994324 86.34334370994324 86.34334370994324 86.3125801135323 86.3125801135323 86.3125801135323 86.2818165171214 86.2818165171214 86.25105292071049 86.25105292071049 86.22028932429959 86.22028932429959 86.12799853506684 86.09723493865592 86.00494414942318 85.88188976377953 85.72807178172496 85.60501739608131 85.29738143197216 85.1435634499176 84.89745467863028 84.62058231093206 84.43600073246657 84.15912836476835 83.97454678630287 83.69767441860465 83.42080205090642 83.23622047244095 82.95934810474272 82.68247573704448 82.49789415857902 82.22102179088078 82.0364402124153 81.79033144112799 81.42116828419702 81.26735030214246 81.05200512726607 80.74436916315693 80.55978758469143 80.19062442776048 79.97527925288409 79.69840688518586 79.42153451748763 79.20618934261125 78.8985533785021 78.68320820362571 78.37557223951657 78.06793627540742 77.85259110053104 77.5449551364219 77.05273759384727 76.92968320820361 76.52975645486174 76.37593847280718 76.03753891228712 75.66837575535615 75.39150338765793 74.96081303790514 74.49935909174144 74.37630470609778 74.03790514557772 73.85332356711226 73.66874198864676 73.42263321735945 73.17652444607214 72.96117927119576 72.74583409631936 72.6227797106757 72.43819813221022 72.31514374656656 72.19208936092289 71.9459805896356 71.82292620399194 71.60758102911555 71.36147225782824 71.20765427577366 70.80772752243178 70.46932796191174 70.25398278703534 70.03863761215894 69.79252884087163 69.4848928767625 69.02343893059879 68.74656656290057 68.3774034059696 68.10053103827138 67.85442226698407 67.45449551364219 67.20838674235489 66.71616919978025 66.40853323567111 66.1624244643838 65.88555209668559 65.67020692180918 65.39333455411096 65.11646218641275 64.96264420435817 64.74729902948178 64.5627174510163 64.40889946896172 64.25508148690716 64.07049990844168 63.916681926387106 63.73210034792162 63.60904596227797 63.424464383812484 63.27064640175792 63.055301226881525 62.80919245559421 62.65537447353964 62.47079289507416 62.13239333455411 61.91704815967771 61.64017579197949 61.45559421351401 61.11719465299395 60.84032228529573 60.62497711041934 60.28657754989928 59.94817798937923 59.60977842885918 59.39443325398278 59.17908807910639 58.90221571140816 58.62534334370994 58.44076176524446 58.13312580113532 57.94854422266984 57.79472624061527 57.517853872917044 57.39479948727339 57.179454312397 56.964109137520595 56.841054751876946 56.62570957700055 56.41036440212415 56.25654642006958 56.041201245193186 55.88738326313862 55.641274491851306 55.395165720563995 55.21058414209851 54.9644753708112 54.68760300311298 54.5030214246475 54.25691265336019 54.0415674784838 53.67240432155283 53.364768357443694 53.057132393334555 52.87255081486907 52.65720563999267 52.47262406152719 52.16498809741805 52.011170115363484 51.76506134407617 51.54971616919978 51.39589818714521 51.18055301226882 51.02673503021424 50.842153451748764 50.65757187328328 50.50375389122871 50.34993590917414 50.19611792711957 50.07306354147592 49.82695477018861 49.73466398095587 49.61160959531221 49.48855520966856 49.365500824024906 49.21168284197033 48.99633766709394 48.873283281450284 48.6887017029848 48.53488372093023 48.411829335286576 48.22724775682109 48.073429774766524 47.765793810657385 47.519685039370074 47.36586705731551 47.08899468961728 46.87364951474089 46.62754074345358 46.31990477934444 46.13532320087896 45.85845083318073 45.5508148690716 45.3354696941952 45.02783373008606 44.68943416956601 44.50485259110053 44.16645303058048 43.981871452114994 43.70499908441677 43.42812671671855 43.12049075260941 42.84361838491119 42.659036806445705 42.44369163156931 42.16681926387108 41.88994689617286 41.58231093206372 41.336202160776416 41.12085698590002 40.90551181102362 40.690166636147225 40.50558505768174 40.290239882805345 40.136421900750776 39.95184032228529 39.76725874381981 39.644204358176154 39.49038637612159 39.33656839406702 39.15198681560154 38.99816883354697 38.875114447903314 38.65976927302692 38.475187694561434 38.321369712506865 37.9522065555759 37.89067936275407 37.70609778428859 37.4907526094122 37.33693462735763 37.12158945248123 36.998535066837576 36.81395348837209 36.598608313495696 36.41402673503021 36.26020875297564 36.07562717451016 35.86028199963376 35.737227613990115 35.64493682475737 35.52188243911371 35.36806445705915 35.30653726423732 35.183482878593665 35.09119208936092 35.029664896539096 34.90661051089544 34.84508331807361 34.75279252884087 34.69126533601904 34.5989745467863 34.475920161142646 34.41439296832082 34.32210217908808 34.229811389855335 34.16828419703351 34.04522981138985 33.95293902215711 33.89141182933528 33.860648232924376 33.79912104010255 33.73759384728072 33.67606665445889 33.58377586522615 33.460721479582496 33.33766709393884 33.2453763047061 33.12232191906244 33.0300311298297 32.968503937007874 32.814685954953305 32.75315876213148 32.63010437648782 32.568577183665994 32.507049990844166 32.47628639443325 32.44552279802234 32.38399560520051 32.32246841237868 32.29170481596777 32.260941219556855 32.19941402673503 32.1378868339132 32.07635964109137 31.984068851858634 31.922541659036806 31.830250869804065 31.79948727339315 31.737960080571323 31.64566929133858 31.584142098516754 31.522614905694926 31.491851309284012 31.430324116462188 31.36879692364036 31.307269730818533 31.21497894158579 31.153451748763963 31.091924555942136 31.030397363120308 30.999633766709394 30.938106573887566 30.87657938106574 30.81505218824391 30.753524995422083 30.691997802600255 30.66123420618934 30.599707013367514 30.538179820545686 30.507416224134772 30.445889031312948 30.38436183849112 30.29207104925838 30.199780260025637 30.07672587438198 29.953671488738326 29.8921442959165 29.861380699505585 29.83061710309467 29.83061710309467 29.83061710309467 29.799853506683757 29.799853506683757 29.769089910272843 29.769089910272843 29.73832631386193 29.73832631386193 29.73832631386193 29.707562717451015 29.6767991210401 29.646035524629188 29.615271928218274 29.615271928218274 29.553744735396446 29.553744735396446 29.522981138985532 29.522981138985532 29.461453946163708 29.430690349752794 29.369163156930966 29.338399560520052 29.30763596410914 29.24610877128731 29.215345174876397 29.215345174876397 29.184581578465483 29.184581578465483 29.15381798205457 29.15381798205457 29.15381798205457 29.123054385643655 29.123054385643655 29.123054385643655 29.123054385643655 29.123054385643655 29.09229078923274 29.09229078923274 29.09229078923274 29.061527192821828 29.061527192821828 29.061527192821828 29.030763596410914 29.030763596410914 29.030763596410914 29.030763596410914 29.030763596410914 29.030763596410914 29.030763596410914 29.030763596410914 29.030763596410914 29.030763596410914 29.0 29.030763596410914 29.0 29.030763596410914 29.0 29.0 29.0 29.0 29.0 29.0 29.0 29.0 29.0 29.0 29.0 29.0 29.0 29.0 29.0 29.0 29.0 29.0 29.0 29.0 29.0 28.969236403589086 29.0 29.0 29.0 29.0 29.0 28.969236403589086 28.969236403589086 28.969236403589086 28.969236403589086 29.0 28.969236403589086 28.969236403589086 28.969236403589086 28.969236403589086 28.969236403589086 28.969236403589086 28.969236403589086 28.969236403589086 28.969236403589086 28.969236403589086 28.969236403589086 28.969236403589086 28.969236403589086 28.969236403589086 28.969236403589086 28.969236403589086 28.969236403589086 28.969236403589086 28.969236403589086 28.969236403589086 28.969236403589086 28.969236403589086 28.969236403589086 28.969236403589086 28.969236403589086 28.969236403589086 28.969236403589086 28.969236403589086 28.969236403589086 28.969236403589086 28.969236403589086 28.969236403589086 28.969236403589086 28.969236403589086 28.969236403589086 28.969236403589086 28.969236403589086 28.969236403589086 28.969236403589086 28.969236403589086 28.969236403589086 28.969236403589086 28.969236403589086 28.969236403589086 28.969236403589086 28.969236403589086 28.969236403589086 28.969236403589086 28.969236403589086 28.969236403589086 28.969236403589086 28.969236403589086 28.969236403589086 28.969236403589086 28.969236403589086 28.969236403589086 28.969236403589086 28.969236403589086 28.969236403589086 28.969236403589086 28.969236403589086 28.969236403589086 28.969236403589086 28.969236403589086 28.969236403589086 28.969236403589086 28.969236403589086 28.969236403589086 28.969236403589086 28.969236403589086 28.969236403589086 28.969236403589086 28.969236403589086 28.969236403589086 28.969236403589086 28.969236403589086 28.969236403589086 28.969236403589086 28.969236403589086 28.969236403589086 28.969236403589086 28.969236403589086 28.969236403589086 28.969236403589086 28.969236403589086 28.969236403589086 28.969236403589086 28.969236403589086 28.969236403589086 28.969236403589086 28.969236403589086 28.969236403589086 28.969236403589086 28.969236403589086 28.969236403589086 28.969236403589086 28.969236403589086 28.969236403589086 28.969236403589086 28.969236403589086 28.969236403589086 28.969236403589086 28.938472807178172 28.969236403589086 28.969236403589086 28.969236403589086 28.969236403589086 28.969236403589086 28.969236403589086 28.969236403589086 28.969236403589086 28.969236403589086 28.969236403589086 28.969236403589086 28.969236403589086 28.969236403589086 28.969236403589086 28.938472807178172 28.969236403589086 28.969236403589086 28.969236403589086 28.969236403589086 28.938472807178172 28.969236403589086 28.969236403589086 28.969236403589086 28.969236403589086 28.938472807178172 28.969236403589086 28.969236403589086 28.938472807178172 28.969236403589086 28.938472807178172 28.969236403589086 28.938472807178172 28.969236403589086 28.938472807178172 28.969236403589086 28.938472807178172 28.938472807178172 28.938472807178172 28.969236403589086 28.938472807178172 28.969236403589086 28.938472807178172 28.969236403589086 28.938472807178172 28.938472807178172 28.938472807178172 28.938472807178172 28.969236403589086 28.938472807178172 28.969236403589086 28.969236403589086 28.938472807178172 28.938472807178172 28.938472807178172 28.938472807178172 28.938472807178172 28.938472807178172 28.938472807178172 28.938472807178172 28.938472807178172 28.938472807178172 28.938472807178172 28.938472807178172 28.938472807178172 28.938472807178172 28.938472807178172 28.938472807178172 28.938472807178172 28.938472807178172 28.938472807178172 28.938472807178172 28.938472807178172 28.938472807178172 28.938472807178172 28.938472807178172 28.938472807178172 28.938472807178172 28.938472807178172 28.938472807178172 28.938472807178172 28.938472807178172 28.938472807178172 28.938472807178172 28.938472807178172 28.938472807178172 28.938472807178172 28.938472807178172 28.938472807178172 28.938472807178172 28.938472807178172 28.938472807178172 28.938472807178172 28.938472807178172 28.938472807178172 28.938472807178172 28.938472807178172 28.938472807178172 28.938472807178172 28.938472807178172 28.938472807178172 28.938472807178172 28.938472807178172 28.938472807178172 28.938472807178172 28.938472807178172 28.938472807178172 28.938472807178172 28.90770921076726 28.90770921076726 28.90770921076726 28.90770921076726 28.938472807178172 28.90770921076726 28.938472807178172 28.938472807178172 28.938472807178172 28.938472807178172 28.938472807178172 28.90770921076726 28.90770921076726 28.938472807178172 28.938472807178172 28.90770921076726 28.90770921076726 28.938472807178172 28.90770921076726 28.90770921076726 28.938472807178172 28.938472807178172 28.90770921076726 28.938472807178172 28.90770921076726 28.90770921076726 28.90770921076726 28.90770921076726 28.938472807178172 28.90770921076726 28.938472807178172 28.90770921076726 28.938472807178172 28.938472807178172 28.938472807178172 28.90770921076726 28.90770921076726 28.90770921076726 28.90770921076726 28.90770921076726 28.90770921076726 28.938472807178172 28.90770921076726 28.90770921076726 28.938472807178172 28.938472807178172 28.938472807178172 28.90770921076726 28.938472807178172 28.90770921076726 28.938472807178172 28.90770921076726 28.90770921076726 28.90770921076726 28.90770921076726 28.90770921076726 28.90770921076726 28.90770921076726 28.90770921076726 28.90770921076726 28.90770921076726 28.90770921076726 28.90770921076726 28.90770921076726 28.90770921076726 28.90770921076726 28.90770921076726 28.90770921076726 28.90770921076726 28.876945614356345 28.90770921076726 28.876945614356345 28.876945614356345 28.876945614356345 28.876945614356345 28.876945614356345 28.876945614356345 28.876945614356345 28.876945614356345 28.876945614356345 28.876945614356345 28.876945614356345 28.876945614356345 28.876945614356345 28.876945614356345 28.876945614356345 28.876945614356345 28.876945614356345 28.876945614356345 28.876945614356345 28.876945614356345 28.876945614356345 28.84618201794543 28.876945614356345 28.876945614356345 28.876945614356345 28.84618201794543 28.84618201794543 28.84618201794543 28.84618201794543 28.84618201794543 28.876945614356345 28.876945614356345 28.876945614356345 28.84618201794543 28.84618201794543 28.876945614356345 28.84618201794543 28.84618201794543 28.876945614356345 28.84618201794543 28.84618201794543 28.84618201794543 28.84618201794543 28.84618201794543 28.84618201794543 28.84618201794543 28.84618201794543 28.876945614356345 28.84618201794543 28.84618201794543 28.876945614356345 28.84618201794543 28.84618201794543 28.84618201794543 28.84618201794543 28.84618201794543 28.876945614356345 28.84618201794543 28.84618201794543 28.84618201794543 28.84618201794543 28.84618201794543 28.84618201794543 28.84618201794543 28.84618201794543 28.84618201794543 28.84618201794543 28.84618201794543 28.84618201794543 28.84618201794543 28.84618201794543 28.84618201794543 28.84618201794543 28.84618201794543 28.84618201794543 28.84618201794543 28.84618201794543 28.84618201794543 28.84618201794543 28.876945614356345 28.84618201794543 28.84618201794543 28.84618201794543 28.84618201794543 28.84618201794543 28.84618201794543 28.84618201794543 28.84618201794543 28.84618201794543 28.84618201794543 28.84618201794543 28.84618201794543 28.84618201794543 28.84618201794543 28.84618201794543 28.84618201794543 28.84618201794543 28.84618201794543 28.84618201794543 28.84618201794543 28.84618201794543 28.84618201794543 28.84618201794543 28.84618201794543 28.84618201794543 28.84618201794543 28.84618201794543 28.84618201794543 28.84618201794543 28.84618201794543 28.84618201794543 28.84618201794543 28.84618201794543 28.84618201794543 28.84618201794543 28.84618201794543 28.84618201794543 28.84618201794543 28.84618201794543 28.84618201794543 28.84618201794543 28.84618201794543 28.84618201794543 28.84618201794543 28.84618201794543 28.84618201794543 28.84618201794543 28.84618201794543 28.84618201794543 28.84618201794543 28.84618201794543 28.84618201794543 28.84618201794543 28.84618201794543 28.84618201794543 28.84618201794543 28.84618201794543 28.84618201794543 28.84618201794543 28.84618201794543 28.84618201794543 28.84618201794543 28.84618201794543 28.84618201794543 28.84618201794543 28.84618201794543 28.84618201794543 28.84618201794543 28.84618201794543 28.84618201794543 28.84618201794543 28.84618201794543 28.84618201794543 28.84618201794543 28.84618201794543 28.84618201794543 28.84618201794543 28.84618201794543 28.84618201794543 28.84618201794543 28.84618201794543 28.84618201794543 28.84618201794543 28.84618201794543 28.84618201794543 28.84618201794543 28.84618201794543 28.84618201794543 28.84618201794543 28.84618201794543 28.84618201794543 28.84618201794543 28.84618201794543 28.84618201794543 28.84618201794543 28.84618201794543 28.84618201794543 28.84618201794543 28.84618201794543 28.84618201794543 28.84618201794543 28.84618201794543 28.84618201794543 28.84618201794543 28.84618201794543 28.84618201794543 28.84618201794543 28.84618201794543 28.84618201794543 28.84618201794543 28.84618201794543 28.84618201794543 28.84618201794543 28.84618201794543 28.84618201794543 28.84618201794543 28.84618201794543 28.84618201794543 28.84618201794543 28.84618201794543 28.84618201794543 28.84618201794543 28.84618201794543 28.84618201794543 28.84618201794543 28.84618201794543 28.84618201794543 28.84618201794543 28.84618201794543 28.84618201794543 28.84618201794543 28.84618201794543 28.84618201794543 28.84618201794543 28.84618201794543 28.84618201794543 28.84618201794543 28.84618201794543 28.84618201794543 28.84618201794543 28.84618201794543 28.84618201794543 28.815418421534517 28.84618201794543 28.815418421534517 28.815418421534517 28.815418421534517 28.84618201794543 28.84618201794543 28.84618201794543 28.815418421534517 28.815418421534517 28.815418421534517 28.815418421534517 28.815418421534517 28.84618201794543 28.84618201794543 28.815418421534517 28.84618201794543 28.815418421534517 28.815418421534517 28.84618201794543 28.815418421534517 28.815418421534517 28.815418421534517 28.84618201794543 28.84618201794543 28.815418421534517 28.815418421534517 28.815418421534517 28.815418421534517 28.815418421534517 28.815418421534517 28.815418421534517 28.815418421534517 28.815418421534517 28.815418421534517 28.815418421534517 28.815418421534517 28.815418421534517 28.815418421534517 28.815418421534517 28.815418421534517 28.815418421534517 28.815418421534517 28.815418421534517 28.815418421534517 28.815418421534517 28.815418421534517 28.815418421534517 28.815418421534517 28.815418421534517 28.815418421534517 28.815418421534517 28.815418421534517 28.815418421534517 28.815418421534517 28.815418421534517 28.815418421534517 28.815418421534517 28.815418421534517 28.815418421534517 28.815418421534517 28.815418421534517 28.815418421534517 28.815418421534517 28.815418421534517 28.815418421534517 28.815418421534517 28.815418421534517 28.815418421534517 28.815418421534517 28.815418421534517 28.815418421534517 28.815418421534517 28.815418421534517 28.815418421534517 28.815418421534517 28.815418421534517 28.815418421534517 28.815418421534517 28.815418421534517 28.815418421534517 28.815418421534517 28.815418421534517 28.815418421534517 28.815418421534517 28.815418421534517 28.815418421534517 28.815418421534517 28.815418421534517 28.815418421534517 28.815418421534517 28.815418421534517 28.815418421534517 28.815418421534517 28.815418421534517 28.815418421534517 28.815418421534517 28.815418421534517 28.815418421534517 28.815418421534517 28.815418421534517 28.815418421534517 28.815418421534517 28.815418421534517 28.815418421534517 28.815418421534517 28.815418421534517 28.815418421534517 28.815418421534517 28.815418421534517 28.815418421534517 28.815418421534517 28.815418421534517 28.815418421534517 28.815418421534517 28.815418421534517 28.815418421534517 28.815418421534517 28.815418421534517 28.815418421534517 28.815418421534517 28.815418421534517 28.815418421534517 28.815418421534517 28.815418421534517 28.815418421534517 28.815418421534517 28.815418421534517 28.815418421534517 28.815418421534517 28.815418421534517 28.815418421534517 28.815418421534517 28.815418421534517 28.815418421534517 28.815418421534517 28.815418421534517 28.815418421534517 28.815418421534517 28.815418421534517 28.815418421534517 28.815418421534517 28.815418421534517 28.815418421534517 28.815418421534517 28.815418421534517 28.815418421534517 28.815418421534517 28.815418421534517 28.815418421534517 28.815418421534517 28.784654825123603 28.815418421534517 28.815418421534517 28.815418421534517 28.815418421534517 28.815418421534517 28.815418421534517 28.815418421534517 28.815418421534517 28.815418421534517 28.815418421534517 28.784654825123603 28.784654825123603 28.815418421534517 28.784654825123603 28.815418421534517 28.815418421534517 28.784654825123603 28.815418421534517 28.815418421534517 28.815418421534517 28.815418421534517 28.815418421534517 28.784654825123603 28.784654825123603 28.784654825123603 28.784654825123603 28.784654825123603 28.815418421534517 28.815418421534517 28.815418421534517 28.784654825123603 28.815418421534517 28.784654825123603 28.815418421534517 28.784654825123603 28.815418421534517 28.784654825123603 28.815418421534517 28.784654825123603 28.784654825123603 28.784654825123603 28.815418421534517 28.815418421534517 28.815418421534517 28.784654825123603 28.784654825123603 28.784654825123603 28.784654825123603 28.784654825123603 28.815418421534517 28.784654825123603 28.784654825123603 28.784654825123603 28.784654825123603 28.815418421534517 28.784654825123603 28.815418421534517 28.784654825123603 28.784654825123603 28.784654825123603 28.815418421534517 28.784654825123603 28.815418421534517 28.784654825123603 28.784654825123603 28.815418421534517 28.784654825123603 28.784654825123603 28.815418421534517 28.815418421534517 28.815418421534517 28.815418421534517 28.784654825123603 28.815418421534517 28.784654825123603 28.784654825123603 28.784654825123603 28.784654825123603 28.784654825123603 28.784654825123603 28.815418421534517 28.815418421534517 28.784654825123603 28.815418421534517 28.784654825123603 28.815418421534517 28.784654825123603 28.784654825123603 28.815418421534517 28.815418421534517 28.784654825123603 28.784654825123603 28.784654825123603 28.784654825123603 28.784654825123603 28.815418421534517 28.784654825123603 28.784654825123603 28.784654825123603 28.784654825123603 28.784654825123603 28.784654825123603 28.784654825123603 28.815418421534517 28.784654825123603 28.784654825123603 28.784654825123603 28.784654825123603 28.784654825123603 28.784654825123603 28.784654825123603 28.784654825123603 28.784654825123603 28.815418421534517 28.784654825123603 28.815418421534517 28.784654825123603 28.784654825123603 28.784654825123603 28.784654825123603 28.784654825123603 28.784654825123603 28.784654825123603 28.784654825123603 28.784654825123603 28.784654825123603 28.784654825123603 28.784654825123603 28.784654825123603 28.784654825123603 28.784654825123603 28.784654825123603 28.784654825123603 28.784654825123603 28.784654825123603 28.815418421534517 28.784654825123603 28.784654825123603 28.784654825123603 28.784654825123603 28.784654825123603 28.784654825123603 28.784654825123603 28.784654825123603 28.784654825123603 28.784654825123603 28.784654825123603 28.784654825123603 28.784654825123603 28.784654825123603 28.784654825123603 28.784654825123603 28.784654825123603 28.784654825123603 28.784654825123603 28.784654825123603 28.784654825123603 28.784654825123603 28.784654825123603 28.784654825123603 28.784654825123603 28.784654825123603 28.784654825123603 28.784654825123603 28.784654825123603 28.784654825123603 28.784654825123603 28.784654825123603 28.784654825123603 28.784654825123603 28.784654825123603 28.784654825123603 28.784654825123603 28.784654825123603 28.784654825123603 28.784654825123603 28.784654825123603 28.784654825123603 28.784654825123603 28.784654825123603 28.784654825123603 28.784654825123603 28.784654825123603 28.784654825123603 28.784654825123603 28.784654825123603 28.784654825123603 28.784654825123603 28.784654825123603 28.784654825123603 28.784654825123603 28.784654825123603 28.784654825123603 28.784654825123603 28.784654825123603 28.784654825123603 28.784654825123603 28.784654825123603 28.784654825123603 28.784654825123603 28.784654825123603 28.784654825123603 28.784654825123603 28.815418421534517 28.815418421534517 