29.0 28.969236403589086 29.0 28.969236403589086 29.0 29.0 28.969236403589086 29.0 29.0 28.969236403589086 28.969236403589086 29.0 29.0 29.0 28.969236403589086 29.0 28.969236403589086 29.0 28.969236403589086 28.969236403589086 28.969236403589086 29.0 28.969236403589086 28.969236403589086 28.969236403589086 29.0 28.969236403589086 28.969236403589086 28.969236403589086 28.969236403589086 29.0 29.0 29.0 29.0 29.0 28.969236403589086 28.969236403589086 28.969236403589086 28.969236403589086 29.0 29.0 29.0 28.969236403589086 29.0 28.969236403589086 29.0 28.969236403589086 28.969236403589086 29.0 29.0 28.969236403589086 29.0 29.0 29.0 29.0 29.0 28.969236403589086 29.0 28.969236403589086 29.0 28.969236403589086 28.969236403589086 29.0 29.0 29.0 28.969236403589086 29.0 28.969236403589086 29.0 29.0 29.0 29.0 29.0 28.969236403589086 29.0 28.969236403589086 29.0 29.0 28.969236403589086 28.969236403589086 28.969236403589086 28.969236403589086 28.969236403589086 29.0 29.0 28.969236403589086 28.969236403589086 28.969236403589086 29.0 29.0 28.969236403589086 28.969236403589086 29.0 29.0 29.0 29.0 28.969236403589086 29.0 29.0 29.0 28.969236403589086 29.0 28.969236403589086 28.969236403589086 29.0 29.0 28.969236403589086 28.969236403589086 28.969236403589086 29.0 29.0 29.0 28.969236403589086 29.0 29.0 29.0 28.969236403589086 28.969236403589086 28.969236403589086 29.0 29.0 29.0 28.969236403589086 29.0 28.969236403589086 29.0 29.0 29.0 28.969236403589086 28.969236403589086 29.0 29.0 29.0 29.0 28.969236403589086 29.0 29.0 28.969236403589086 28.969236403589086 29.0 29.0 28.969236403589086 28.969236403589086 29.0 29.0 29.0 28.969236403589086 29.0 29.0 29.0 28.969236403589086 29.0 28.969236403589086 29.0 28.969236403589086 28.969236403589086 29.0 28.969236403589086 29.0 28.969236403589086 29.0 28.969236403589086 29.0 29.0 29.0 29.0 29.0 29.0 29.0 29.0 29.0 29.0 28.969236403589086 29.0 29.0 29.0 29.0 29.0 29.0 28.969236403589086 29.0 29.0 29.0 28.969236403589086 28.969236403589086 28.969236403589086 28.969236403589086 29.0 29.0 28.969236403589086 28.969236403589086 29.0 28.969236403589086 28.969236403589086 28.969236403589086 28.969236403589086 29.0 29.0 29.0 29.0 28.969236403589086 28.969236403589086 28.969236403589086 29.0 28.969236403589086 29.0 29.0 29.0 28.969236403589086 28.969236403589086 29.0 29.0 29.0 29.0 28.969236403589086 29.0 29.0 29.0 28.969236403589086 29.0 28.969236403589086 28.969236403589086 29.0 29.0 28.969236403589086 29.0 28.969236403589086 29.0 28.969236403589086 28.969236403589086 29.0 29.0 29.0 29.0 29.0 29.0 29.0 29.0 29.0 28.969236403589086 29.0 29.0 28.969236403589086 29.0 29.0 29.0 29.0 29.0 28.969236403589086 29.0 29.0 29.0 29.0 29.0 29.0 29.0 29.0 29.0 29.0 29.0 29.0 29.0 28.969236403589086 29.0 28.969236403589086 28.969236403589086 28.969236403589086 29.0 28.969236403589086 28.969236403589086 28.969236403589086 28.969236403589086 28.969236403589086 28.969236403589086 29.0 29.0 28.969236403589086 29.0 28.969236403589086 28.969236403589086 28.969236403589086 28.969236403589086 29.0 28.969236403589086 28.969236403589086 29.0 28.969236403589086 28.969236403589086 28.969236403589086 29.0 29.0 29.0 28.969236403589086 29.0 28.969236403589086 28.969236403589086 29.0 29.0 29.0 29.0 29.0 29.0 28.969236403589086 29.0 28.969236403589086 29.0 29.0 29.0 28.969236403589086 28.969236403589086 29.0 29.0 28.969236403589086 28.969236403589086 29.0 28.969236403589086 29.0 28.969236403589086 29.0 28.969236403589086 29.0 28.969236403589086 29.0 29.0 29.0 28.969236403589086 28.969236403589086 28.969236403589086 28.969236403589086 29.0 29.0 28.969236403589086 29.0 29.0 28.969236403589086 28.969236403589086 29.0 28.969236403589086 29.0 29.0 28.969236403589086 28.969236403589086 29.0 28.969236403589086 29.0 29.0 29.0 29.0 29.0 28.969236403589086 28.969236403589086 28.969236403589086 29.0 29.0 29.0 28.969236403589086 28.969236403589086 28.969236403589086 28.969236403589086 29.0 29.0 28.969236403589086 29.0 29.0 29.0 29.0 29.0 28.969236403589086 29.0 29.0 29.0 29.0 29.0 28.969236403589086 28.969236403589086 28.969236403589086 29.0 29.0 29.0 29.0 29.0 29.0 29.0 29.0 29.0 29.0 29.0 29.0 29.0 29.0 28.969236403589086 29.0 29.0 29.0 28.969236403589086 28.969236403589086 29.0 28.969236403589086 29.0 29.0 28.969236403589086 28.969236403589086 29.0 29.0 28.969236403589086 29.0 28.969236403589086 28.969236403589086 28.969236403589086 28.969236403589086 28.969236403589086 29.0 28.969236403589086 29.0 28.969236403589086 29.0 29.0 29.0 28.969236403589086 28.969236403589086 29.0 28.969236403589086 28.969236403589086 28.969236403589086 29.0 28.969236403589086 28.969236403589086 29.0 28.969236403589086 28.969236403589086 29.0 29.0 28.969236403589086 29.0 28.969236403589086 29.0 29.0 29.0 29.0 29.0 29.0 28.969236403589086 28.969236403589086 29.0 29.0 29.0 29.0 28.969236403589086 29.0 28.969236403589086 29.0 29.0 29.0 28.969236403589086 28.969236403589086 29.0 29.0 28.969236403589086 28.969236403589086 29.0 29.0 29.0 29.0 29.0 28.969236403589086 29.0 28.969236403589086 29.0 29.0 29.0 29.0 28.969236403589086 28.969236403589086 28.969236403589086 29.0 28.969236403589086 28.969236403589086 28.969236403589086 28.969236403589086 29.0 29.0 29.0 29.0 28.969236403589086 28.969236403589086 28.969236403589086 28.969236403589086 29.0 29.0 29.0 28.969236403589086 28.969236403589086 28.969236403589086 28.969236403589086 29.0 28.969236403589086 28.969236403589086 29.0 29.0 28.969236403589086 28.969236403589086 28.969236403589086 29.0 29.0 29.0 29.0 29.0 28.969236403589086 29.0 29.0 28.969236403589086 28.969236403589086 29.0 29.0 29.0 28.969236403589086 29.0 29.0 28.969236403589086 28.969236403589086 28.969236403589086 29.0 29.0 28.969236403589086 28.969236403589086 29.0 29.0 28.969236403589086 28.969236403589086 29.0 28.969236403589086 28.969236403589086 29.0 29.0 28.969236403589086 28.969236403589086 28.969236403589086 28.969236403589086 28.969236403589086 29.0 29.0 29.0 29.0 29.0 29.0 29.0 28.969236403589086 29.0 29.0 29.0 28.969236403589086 29.0 29.0 29.0 28.969236403589086 29.0 29.0 29.0 29.0 28.969236403589086 29.0 28.969236403589086 28.969236403589086 29.0 29.0 29.0 29.0 28.969236403589086 28.969236403589086 29.0 29.0 29.0 28.969236403589086 28.969236403589086 29.0 29.0 29.0 29.0 29.0 28.969236403589086 29.0 28.969236403589086 29.0 29.0 29.0 29.0 29.0 29.0 28.969236403589086 29.0 28.969236403589086 29.0 28.969236403589086 29.0 28.969236403589086 29.0 29.0 29.0 29.0 28.969236403589086 29.0 29.0 29.0 29.0 29.0 28.969236403589086 29.0 29.0 29.0 28.969236403589086 28.969236403589086 28.969236403589086 29.0 29.0 29.0 28.969236403589086 29.0 28.969236403589086 28.969236403589086 28.969236403589086 29.0 28.969236403589086 29.0 28.969236403589086 29.0 29.0 29.0 29.0 29.0 29.0 29.0 29.0 29.0 29.0 28.969236403589086 29.0 28.969236403589086 29.0 28.969236403589086 29.0 29.0 29.0 28.969236403589086 29.0 29.0 29.030763596410914 29.030763596410914 29.030763596410914 29.030763596410914 29.030763596410914 29.061527192821828 29.061527192821828 29.061527192821828 29.09229078923274 29.09229078923274 29.123054385643655 29.123054385643655 29.123054385643655 29.15381798205457 29.15381798205457 29.15381798205457 29.184581578465483 29.215345174876397 29.24610877128731 29.30763596410914 29.369163156930966 29.39992675334188 29.430690349752794 29.461453946163708 29.553744735396446 29.615271928218274 29.646035524629188 29.769089910272843 29.922907892327412 30.13825306720381 30.29207104925838 30.47665262772386 30.538179820545686 30.630470609778428 30.753524995422083 30.938106573887566 31.030397363120308 31.06116095953122 31.12268815235305 31.184215345174877 31.307269730818533 31.399560520051274 31.584142098516754 31.768723676982237 31.922541659036806 32.1378868339132 32.29170481596777 32.507049990844166 32.69163156930965 32.906976744186046 33.15308551547336 33.42995788317158 33.73759384728072 34.075993407800766 34.56821095037539 34.99890130012818 35.9218091924556 36.444790331441126 37.2754074345358 37.9522065555759 38.44442409815052 39.674967954587075 40.1979490935726 41.12085698590002 42.04376487822743 42.659036806445705 43.5511811023622 44.474088994689616 45.24317890496246 46.0122688152353 46.996703900384546 47.67350302142465 48.59641091375206 49.334737227613985 50.2576451199414 51.27284380150155 52.13422450100714 52.78026002563632 53.67240432155283 54.68760300311298 55.45669291338582 56.10272843801501 57.08716352316425 57.88701702984801 58.47152536165537 59.363669657571876 59.94817798937923 60.80955868888482 61.609412195568574 62.13239333455411 62.870719648416035 63.670573155099795 64.28584508331807 64.93188060794725 65.42409815052187 66.10089727156199 66.74693279619117 67.2699139351767 67.88518586339498 68.53122138802416 68.99267533418788 69.66947445522797 70.13092840139169 71.08459989013001 71.76139901117011 72.22285295733383 72.65354330708661 73.48416041018129 73.91485075993407 74.49935909174144 74.89928584508331 75.51455777330159 76.09906610510895 76.49899285845083 77.02197399743636 77.48342794360008 77.91411829335286 78.31404504669473 78.65244460721479 79.1138985533785 79.54458890313128 80.006042849295 80.40596960263687 80.80589635597875 81.05200512726607 81.29811389855337 81.5749862662516 82.06720380882622 82.40560336934627 82.71323933345542 83.1439296832082 83.54385643655007 83.88225599707013 84.2514191540011 84.52829152169932 84.92821827504119 85.3896722212049 85.66654458890312 86.09723493865592 86.68174327046327 86.9586156381615 87.23548800585974 87.3893059879143 87.69694195202344 88.00457791613258 88.21992309100898 88.61984984435085 88.77366782640541 89.01977659769273 89.17359457974729 89.35817615821279 89.57352133308916 89.81963010437647 89.91192089360922 90.0657388756638 90.15802966489653 90.18879326130745 90.21955685771836 90.25032045412928 90.25032045412928 90.25032045412928 90.28108405054019 90.25032045412928 90.28108405054019 90.25032045412928 90.28108405054019 90.28108405054019 90.3118476469511 90.3118476469511 90.28108405054019 90.28108405054019 90.28108405054019 90.28108405054019 90.28108405054019 90.28108405054019 90.28108405054019 90.28108405054019 90.28108405054019 90.28108405054019 90.28108405054019 90.25032045412928 90.21955685771836 90.21955685771836 90.18879326130745 90.18879326130745 90.15802966489653 90.18879326130745 90.15802966489653 90.15802966489653 90.15802966489653 90.0965024720747 90.00421168284197 89.91192089360922 89.85039370078741 89.81963010437647 89.78886650796557 89.78886650796557 89.78886650796557 89.75810291155466 89.75810291155466 89.72733931514375 89.72733931514375 89.72733931514375 89.72733931514375 89.72733931514375 89.72733931514375 89.72733931514375 89.72733931514375 89.72733931514375 89.75810291155466 89.75810291155466 89.78886650796557 89.78886650796557 89.81963010437647 89.81963010437647 89.81963010437647 89.81963010437647 89.85039370078741 89.85039370078741 89.85039370078741 89.85039370078741 89.88115729719831 89.91192089360922 89.91192089360922 89.94268449002014 89.94268449002014 89.97344808643106 89.97344808643106 89.97344808643106 89.97344808643106 89.97344808643106 89.97344808643106 89.97344808643106 89.97344808643106 89.97344808643106 89.97344808643106 89.97344808643106 89.97344808643106 89.97344808643106 89.97344808643106 89.97344808643106 89.97344808643106 90.00421168284197 90.00421168284197 89.97344808643106 90.00421168284197 90.03497527925288 90.03497527925288 90.03497527925288 90.0657388756638 90.0657388756638 90.0965024720747 90.0657388756638 90.0657388756638 90.0657388756638 90.0657388756638 90.0657388756638 90.0657388756638 90.0657388756638 90.0657388756638 90.03497527925288 90.03497527925288 90.00421168284197 89.97344808643106 89.94268449002014 89.88115729719831 89.85039370078741 89.85039370078741 89.85039370078741 89.85039370078741 89.85039370078741 89.81963010437647 89.81963010437647 89.81963010437647 89.81963010437647 89.81963010437647 89.85039370078741 89.85039370078741 89.85039370078741 89.85039370078741 89.85039370078741 89.85039370078741 89.85039370078741 89.85039370078741 89.75810291155466 89.69657571873282 89.57352133308916 89.54275773667825 89.48123054385643 89.35817615821279 89.26588536898004 89.20435817615821 89.14283098333638 89.11206738692547 89.08130379051455 89.05054019410363 89.08130379051455 89.08130379051455 89.11206738692547 89.11206738692547 89.17359457974729 89.20435817615821 89.26588536898004 89.29664896539094 89.29664896539094 89.32741256180186 89.32741256180186 89.32741256180186 89.29664896539094 89.29664896539094 89.29664896539094 89.26588536898004 89.23512177256913 89.20435817615821 89.20435817615821 89.20435817615821 89.20435817615821 89.20435817615821 89.23512177256913 89.26588536898004 89.26588536898004 89.29664896539094 89.32741256180186 89.29664896539094 89.29664896539094 89.29664896539094 89.29664896539094 89.29664896539094 89.29664896539094 89.26588536898004 89.26588536898004 89.26588536898004 89.26588536898004 89.26588536898004 89.23512177256913 89.26588536898004 89.23512177256913 89.23512177256913 89.26588536898004 89.23512177256913 89.23512177256913 89.23512177256913 89.23512177256913 89.23512177256913 89.23512177256913 89.26588536898004 89.26588536898004 89.32741256180186 89.38893975462369 89.4197033510346 89.48123054385643 89.51199414026735 89.54275773667825 89.54275773667825 89.57352133308916 89.57352133308916 89.60428492950008 89.60428492950008 89.60428492950008 89.60428492950008 89.60428492950008 89.60428492950008 89.60428492950008 89.57352133308916 89.57352133308916 89.54275773667825 89.51199414026735 89.51199414026735 89.51199414026735 89.51199414026735 89.51199414026735 89.51199414026735 89.51199414026735 89.51199414026735 89.51199414026735 89.51199414026735 89.51199414026735 89.51199414026735 89.51199414026735 89.51199414026735 89.51199414026735 89.51199414026735 89.51199414026735 89.51199414026735 89.51199414026735 89.48123054385643 89.48123054385643 89.48123054385643 89.48123054385643 89.48123054385643 89.48123054385643 89.48123054385643 89.48123054385643 89.48123054385643 89.48123054385643 89.48123054385643 89.51199414026735 89.51199414026735 89.48123054385643 89.51199414026735 89.51199414026735 89.51199414026735 89.51199414026735 89.51199414026735 89.51199414026735 89.51199414026735 89.51199414026735 89.51199414026735 89.51199414026735 89.48123054385643 89.48123054385643 89.45046694744552 89.4197033510346 89.38893975462369 89.38893975462369 89.32741256180186 89.32741256180186 89.29664896539094 89.29664896539094 89.26588536898004 89.26588536898004 89.26588536898004 89.23512177256913 89.23512177256913 89.20435817615821 89.14283098333638 89.08130379051455 88.95824940487088 88.80443142281632 88.58908624793993 88.40450466947445 88.21992309100898 87.91228712689983 87.60465116279069 87.3893059879143 87.08167002380517 86.7125068668742 86.46639809558688 86.09723493865592 85.66654458890312 85.23585423915033 84.92821827504119 84.62058231093206 84.09760117194652 83.60538362937191 83.23622047244095 82.52865775498992 82.06720380882622 81.54422266984068 81.02124153085515 80.77513275956784 80.2213880241714 79.63687969236403 79.05237136055666 78.4370994323384 78.0064090825856 77.39113715436733 76.74510162973814 76.31441127998534 75.69913935176706 75.20692180919245 74.6224134773851 74.03790514557772 73.60721479582494 72.74583409631936 72.16132576451199 71.63834462552646 71.20765427577366 70.74620032960996 70.34627357626809 69.73100164804981 69.11572971983153 68.46969419520234 67.88518586339498 67.63907709210767 66.83922358542392 66.43929683208202 65.82402490386376 65.20875297564548 64.77806262589269 64.25508148690716 63.670573155099795 63.055301226881525 62.62461087712873 62.28621131660868 61.79399377403406 61.27101263504852 60.87108588170665 60.3173411463102 59.579014832448266 59.086797289873644 58.68687053653177 58.25618018677898 57.6409082585607 57.056399926753336 56.53341878776781 55.97967405237136 55.36440212415309 54.933711774400294 54.25691265336019 53.826222303607395 53.21095037538912 52.62644204358176 52.19575169382897 51.64200695843252 51.08826222303607 50.688335469694195 50.16535433070866 49.70390038454495 49.27321003479216 48.780992492217536 48.25801135323201 47.7965574070683 47.45815784654825 46.965940303973625 46.56601355063175 46.25837758652261 45.643105658304336 45.12012451931881 44.68943416956601 44.227980223402305 43.828053470060425 43.305072331074896 42.72056399926753 42.32063724592565 41.7668925105292 41.18238417872185 40.81322102179088 40.10565830433986 39.7364951474089 39.367331990477936 38.93664164072514 38.475187694561434 38.04449734480864 37.521516205823104 36.998535066837576 36.53708112067387 36.22944515656473 35.76799121040103 35.429591649880976 35.06042849295001 34.629738143197216 34.229811389855335 33.89141182933528 33.73759384728072 33.58377586522615 33.42995788317158 33.30690349752793 33.214612708295185 33.09155832265153 32.93774034059696 32.814685954953305 32.660867972898735 32.53781358725508 32.29170481596777 32.1378868339132 32.04559604468046 31.95330525544772 31.830250869804065 31.768723676982237 31.64566929133858 31.55337850210584 31.430324116462188 31.338033327229446 31.245742537996705 31.091924555942136 30.999633766709394 30.938106573887566 30.845815784654825 30.753524995422083 30.630470609778428 30.507416224134772 30.415125434902034 30.353598242080206 30.322834645669293 30.29207104925838 30.261307452847465 30.261307452847465 30.199780260025637 30.07672587438198 30.045962277971068 29.953671488738326 29.922907892327412 29.8921442959165 29.83061710309467 29.799853506683757 29.769089910272843 29.73832631386193 29.707562717451015 29.6767991210401 29.6767991210401 29.6767991210401 29.6767991210401 29.6767991210401 29.6767991210401 29.6767991210401 29.646035524629188 29.646035524629188 29.646035524629188 29.615271928218274 29.615271928218274 29.615271928218274 29.615271928218274 29.58450833180736 29.58450833180736 29.58450833180736 29.58450833180736 29.58450833180736 29.58450833180736 29.58450833180736 29.58450833180736 29.58450833180736 29.58450833180736 29.553744735396446 29.58450833180736 29.58450833180736 29.58450833180736 29.58450833180736 29.553744735396446 29.553744735396446 29.58450833180736 29.553744735396446 29.58450833180736 29.553744735396446 29.553744735396446 29.553744735396446 29.553744735396446 29.553744735396446 29.58450833180736 29.553744735396446 29.553744735396446 29.553744735396446 29.553744735396446 29.553744735396446 29.553744735396446 29.553744735396446 29.553744735396446 29.553744735396446 29.553744735396446 29.553744735396446 29.553744735396446 29.553744735396446 29.553744735396446 29.553744735396446 29.553744735396446 29.553744735396446 29.553744735396446 29.553744735396446 29.553744735396446 29.553744735396446 29.553744735396446 29.553744735396446 29.553744735396446 29.553744735396446 29.553744735396446 29.553744735396446 29.553744735396446 29.553744735396446 29.553744735396446 29.553744735396446 29.553744735396446 29.553744735396446 29.553744735396446 29.553744735396446 29.553744735396446 29.553744735396446 29.553744735396446 29.553744735396446 29.553744735396446 29.553744735396446 29.553744735396446 29.553744735396446 29.553744735396446 29.553744735396446 29.553744735396446 29.553744735396446 29.553744735396446 29.553744735396446 29.553744735396446 29.553744735396446 29.553744735396446 29.553744735396446 29.553744735396446 29.553744735396446 29.553744735396446 29.553744735396446 29.553744735396446 29.553744735396446 29.553744735396446 29.553744735396446 29.553744735396446 29.553744735396446 29.553744735396446 29.553744735396446 29.553744735396446 29.553744735396446 29.553744735396446 29.553744735396446 29.553744735396446 29.553744735396446 29.553744735396446 29.553744735396446 29.553744735396446 29.553744735396446 29.553744735396446 29.553744735396446 29.553744735396446 29.553744735396446 29.553744735396446 29.553744735396446 29.553744735396446 29.553744735396446 29.553744735396446 29.553744735396446 29.553744735396446 29.553744735396446 29.553744735396446 29.553744735396446 29.553744735396446 29.553744735396446 29.553744735396446 29.553744735396446 29.553744735396446 29.553744735396446 29.553744735396446 29.553744735396446 29.553744735396446 29.553744735396446 29.553744735396446 29.553744735396446 29.553744735396446 29.553744735396446 29.553744735396446 29.553744735396446 29.553744735396446 29.553744735396446 29.553744735396446 29.553744735396446 29.553744735396446 29.553744735396446 29.553744735396446 29.553744735396446 29.553744735396446 29.553744735396446 29.553744735396446 29.553744735396446 29.553744735396446 29.553744735396446 29.553744735396446 29.553744735396446 29.553744735396446 29.553744735396446 29.553744735396446 29.553744735396446 29.553744735396446 29.553744735396446 29.553744735396446 29.553744735396446 29.553744735396446 29.553744735396446 29.553744735396446 29.553744735396446 29.553744735396446 29.553744735396446 29.553744735396446 29.553744735396446 29.553744735396446 29.553744735396446 29.553744735396446 29.553744735396446 29.553744735396446 29.553744735396446 29.553744735396446 29.553744735396446 29.553744735396446 29.553744735396446 29.553744735396446 29.553744735396446 29.553744735396446 29.553744735396446 29.553744735396446 29.553744735396446 29.553744735396446 29.553744735396446 29.553744735396446 29.553744735396446 29.553744735396446 29.553744735396446 29.553744735396446 29.553744735396446 29.553744735396446 29.553744735396446 29.553744735396446 29.553744735396446 29.553744735396446 29.553744735396446 29.553744735396446 29.553744735396446 29.553744735396446 29.553744735396446 29.553744735396446 29.553744735396446 29.553744735396446 29.553744735396446 29.553744735396446 29.553744735396446 29.553744735396446 29.522981138985532 29.553744735396446 29.553744735396446 29.553744735396446 29.553744735396446 29.553744735396446 29.553744735396446 29.553744735396446 29.553744735396446 29.553744735396446 29.553744735396446 29.553744735396446 29.553744735396446 29.553744735396446 29.553744735396446 29.553744735396446 29.553744735396446 29.553744735396446 29.553744735396446 29.553744735396446 29.553744735396446 29.553744735396446 29.553744735396446 29.553744735396446 29.553744735396446 29.553744735396446 29.553744735396446 29.553744735396446 29.553744735396446 29.553744735396446 29.553744735396446 29.553744735396446 29.553744735396446 29.553744735396446 29.553744735396446 29.553744735396446 29.553744735396446 29.553744735396446 29.553744735396446 29.553744735396446 29.553744735396446 29.553744735396446 29.58450833180736 29.58450833180736 29.58450833180736 29.615271928218274 29.615271928218274 29.646035524629188 29.6767991210401 29.6767991210401 29.6767991210401 29.73832631386193 29.769089910272843 29.799853506683757 29.861380699505585 29.8921442959165 29.953671488738326 30.015198681560154 30.07672587438198 30.23054385643655 30.353598242080206 30.507416224134772 30.630470609778428 30.784288591832997 31.091924555942136 31.307269730818533 31.430324116462188 31.614905694927668 31.891778062625892 32.19941402673503 32.44552279802234 32.99926753341879 33.30690349752793 33.7068302508698 33.95293902215711 34.229811389855335 34.72202893242996 35.12195568577184 35.55264603552463 36.13715436733199 36.66013550631752 37.2754074345358 37.98297015198681 38.475187694561434 39.18275041201245 39.890313129463465 40.413294268449 41.39772935359824 41.85918329976195 42.44369163156931 43.305072331074896 43.85881706647134 44.68943416956601 45.58157846548251 46.442959164988096 46.996703900384546 47.82732100347921 48.53488372093023 49.027101263504846 49.51931880607947 50.41146310199597 50.995971433803334 51.39589818714521 52.011170115363484 52.503387657938106 52.99560520051273 53.580113532320084 53.980040285661964 54.56454861746933 55.149056949276684 55.61051089544039 56.25654642006958 56.87181834828786 57.4255630836843 58.13312580113532 58.62534334370994 59.332906061160955 60.040468778611974 60.74803149606299 61.42483061710309 61.91704815967771 62.53232008789599 63.055301226881525 63.4552279802234 64.40889946896172 65.08569859000184 65.57791613257645 66.22395165720565 66.74693279619117 67.57754989928584 68.03900384544954 68.50045779161326 69.17725691265336 69.63871085881706 70.28474638344625 70.93078190807545 71.63834462552646 72.28438015015564 72.77659769273026 73.17652444607214 73.7610327778795 74.22248672404322 74.8685222486724 75.45303058047976 75.82219373741073 76.37593847280718 76.92968320820361 77.39113715436733 77.7910639077092 78.16022706464017 78.68320820362571 79.14466214978941 79.48306171030947 79.97527925288409 80.55978758469143 80.80589635597875 81.17505951290971 81.45193188060794 81.85185863394983 82.22102179088078 82.52865775498992 82.92858450833181 83.23622047244095 83.45156564731735 83.66691082219373 83.85149240065923 84.06683757553562 84.37447353964475 84.52829152169932 84.68210950375389 84.80516388939753 84.89745467863028 84.98974546786303 85.05127266068484 85.1435634499176 85.20509064273942 85.23585423915033 85.26661783556125 85.26661783556125 85.29738143197216 85.29738143197216 85.29738143197216 85.29738143197216 85.29738143197216 85.29738143197216 85.29738143197216 85.29738143197216 85.29738143197216 85.26661783556125 85.20509064273942 85.08203625709577 84.98974546786303 84.92821827504119 84.86669108221938 84.86669108221938 84.83592748580845 84.86669108221938 84.86669108221938 84.89745467863028 84.86669108221938 84.89745467863028 84.89745467863028 84.92821827504119 84.92821827504119 84.95898187145211 84.95898187145211 84.98974546786303 84.98974546786303 85.02050906427394 85.05127266068484 85.05127266068484 85.05127266068484 85.08203625709577 85.08203625709577 85.08203625709577 85.11279985350667 85.08203625709577 85.11279985350667 85.11279985350667 85.08203625709577 85.11279985350667 85.08203625709577 85.08203625709577 85.08203625709577 85.08203625709577 85.08203625709577 85.08203625709577 85.08203625709577 85.08203625709577 85.08203625709577 85.08203625709577 85.08203625709577 85.08203625709577 85.08203625709577 85.08203625709577 85.08203625709577 85.08203625709577 85.08203625709577 85.08203625709577 85.08203625709577 85.08203625709577 85.08203625709577 85.08203625709577 85.08203625709577 85.08203625709577 85.08203625709577 85.08203625709577 85.08203625709577 85.08203625709577 85.05127266068484 85.05127266068484 85.05127266068484 85.05127266068484 85.05127266068484 85.02050906427394 85.02050906427394 84.98974546786303 84.95898187145211 84.92821827504119 84.92821827504119 84.89745467863028 84.89745467863028 84.86669108221938 84.86669108221938 84.86669108221938 84.86669108221938 84.89745467863028 84.89745467863028 84.89745467863028 84.89745467863028 84.92821827504119 84.92821827504119 84.95898187145211 84.95898187145211 84.95898187145211 84.95898187145211 84.95898187145211 84.95898187145211 84.98974546786303 84.98974546786303 84.98974546786303 84.98974546786303 84.98974546786303 84.98974546786303 84.98974546786303 84.98974546786303 84.98974546786303 84.98974546786303 84.98974546786303 84.98974546786303 84.98974546786303 84.98974546786303 84.98974546786303 84.98974546786303 84.98974546786303 84.98974546786303 84.98974546786303 84.95898187145211 84.95898187145211 84.98974546786303 84.95898187145211 84.95898187145211 84.95898187145211 84.95898187145211 84.98974546786303 84.98974546786303 84.98974546786303 84.98974546786303 84.98974546786303 84.98974546786303 84.98974546786303 85.02050906427394 85.02050906427394 85.02050906427394 85.02050906427394 85.02050906427394 85.02050906427394 85.02050906427394 85.02050906427394 85.02050906427394 85.02050906427394 84.98974546786303 85.02050906427394 84.98974546786303 84.98974546786303 85.02050906427394 85.02050906427394 85.02050906427394 85.02050906427394 85.02050906427394 85.05127266068484 85.05127266068484 85.05127266068484 85.05127266068484 85.05127266068484 85.05127266068484 85.08203625709577 85.05127266068484 85.05127266068484 85.05127266068484 85.05127266068484 85.05127266068484 85.05127266068484 85.05127266068484 85.05127266068484 85.05127266068484 85.05127266068484 85.05127266068484 85.05127266068484 85.05127266068484 85.05127266068484 85.05127266068484 85.05127266068484 85.05127266068484 85.05127266068484 85.05127266068484 85.05127266068484 85.05127266068484 85.05127266068484 85.05127266068484 85.05127266068484 85.05127266068484 85.05127266068484 85.05127266068484 85.05127266068484 85.05127266068484 85.05127266068484 85.05127266068484 85.05127266068484 85.05127266068484 85.05127266068484 85.05127266068484 85.05127266068484 85.05127266068484 85.05127266068484 85.05127266068484 85.05127266068484 85.05127266068484 85.05127266068484 85.05127266068484 85.05127266068484 85.05127266068484 85.05127266068484 85.05127266068484 85.05127266068484 85.05127266068484 85.08203625709577 85.05127266068484 85.05127266068484 85.05127266068484 85.05127266068484 85.05127266068484 85.05127266068484 85.05127266068484 85.05127266068484 85.05127266068484 85.05127266068484 85.05127266068484 85.05127266068484 85.05127266068484 85.05127266068484 85.05127266068484 85.05127266068484 85.02050906427394 85.05127266068484 85.02050906427394 84.98974546786303 84.95898187145211 84.92821827504119 84.92821827504119 84.89745467863028 84.86669108221938 84.83592748580845 84.80516388939753 84.77440029298663 84.77440029298663 84.77440029298663 84.77440029298663 84.77440029298663 84.77440029298663 84.77440029298663 84.77440029298663 84.77440029298663 84.77440029298663 84.77440029298663 84.77440029298663 84.77440029298663 84.77440029298663 84.77440029298663 84.77440029298663 84.77440029298663 84.77440029298663 84.77440029298663 84.77440029298663 84.77440029298663 84.77440029298663 84.77440029298663 84.77440029298663 84.80516388939753 84.80516388939753 84.80516388939753 84.83592748580845 84.83592748580845 84.86669108221938 84.83592748580845 84.83592748580845 84.83592748580845 84.80516388939753 84.7128731001648 84.62058231093206 84.4667643288775 84.282182750412 84.12836476835744 83.91301959348104 83.63614722578282 83.35927485808459 83.1746932796191 83.02087529756454 82.74400292986633 82.40560336934627 82.09796740523714 81.79033144112799 81.54422266984068 81.20582310932063 80.95971433803334 80.71360556674601 80.2213880241714 79.85222486724042 79.5753524995422 79.17542574620032 78.8985533785021 78.49862662516023 78.09869987181834 77.82182750412012 77.39113715436733 76.99121040102546 76.68357443691632 76.25288408716352 75.94524812305438 75.29921259842519 74.96081303790514 74.68394067020691 74.16095953122138 73.66874198864676 73.29957883171579 72.5920161142648 72.19208936092289 71.60758102911555 71.17689067936274 70.80772752243178 69.97711041933712 69.36183849111885 68.96191173777697 68.3466398095587 67.91594945980589 67.2699139351767 66.68540560336935 66.22395165720565 65.57791613257645 65.08569859000184 64.40889946896172 63.76286394433254 63.30140999816883 62.65537447353964 61.82475737044497 61.609412195568574 61.02490386376122 60.655740706830244 59.94817798937923 59.45596044680461 59.086797289873644 58.65610694012086 58.19465299395715 58.010071415491666 57.39479948727339 57.02563633034242 56.656473173411456 56.25654642006958 55.97967405237136 55.51822010620765 55.087529756454856 54.74913019593481 54.31843984618202 54.01080388207288 53.54934993590917 52.96484160410181 52.59567844717085 52.34956967588353 51.98040651895257 51.67277055484343 51.242080205090645 50.903680644570585 50.22688152353049 49.642373191723124 49.119392052737595 48.6887017029848 48.104193371177445 47.85808459989013 47.08899468961728 46.596777147042665 46.0122688152353 45.396996887017025 44.99707013367515 44.19721662699139 43.64347189159494 43.21278154184215 42.84361838491119 42.47445522798022 42.07452847463834 41.61307452847464 41.15162058231093 40.690166636147225 40.22871268998352 39.890313129463465 39.55191356894342 39.18275041201245 38.44442409815052 37.89067936275407 37.459989013001284 36.87548068119392 36.47555392785204 35.86028199963376 35.029664896539096 34.72202893242996 34.26057498626625 33.89141182933528 33.67606665445889 33.39919428676067 33.2453763047061 33.0300311298297 32.93774034059696 32.814685954953305 32.72239516572056 32.568577183665994 32.44552279802234 32.260941219556855 32.1378868339132 31.95330525544772 31.830250869804065 31.70719648416041 31.430324116462188 31.245742537996705 31.12268815235305 30.96887017029848 30.907342977476652 30.87657938106574 30.87657938106574 30.845815784654825 30.81505218824391 30.753524995422083 30.691997802600255 30.5689434169566 30.47665262772386 30.23054385643655 30.199780260025637 30.169016663614723 30.13825306720381 30.107489470792896 30.07672587438198 30.015198681560154 29.98443508514924 29.953671488738326 29.922907892327412 29.922907892327412 29.8921442959165 29.8921442959165 29.861380699505585 29.83061710309467 29.83061710309467 29.83061710309467 29.799853506683757 29.799853506683757 29.799853506683757 29.799853506683757 29.799853506683757 29.769089910272843 29.73832631386193 29.73832631386193 29.6767991210401 29.6767991210401 29.646035524629188 29.646035524629188 29.615271928218274 29.615271928218274 29.615271928218274 29.615271928218274 29.58450833180736 29.58450833180736 29.58450833180736 29.58450833180736 29.58450833180736 29.58450833180736 29.58450833180736 29.553744735396446 29.553744735396446 29.58450833180736 29.553744735396446 29.553744735396446 29.553744735396446 29.553744735396446 29.553744735396446 29.522981138985532 29.522981138985532 29.522981138985532 29.522981138985532 29.522981138985532 29.522981138985532 29.522981138985532 29.49221754257462 29.49221754257462 29.522981138985532 29.49221754257462 29.49221754257462 29.49221754257462 29.49221754257462 29.49221754257462 29.49221754257462 29.49221754257462 29.49221754257462 29.49221754257462 29.49221754257462 29.461453946163708 29.49221754257462 29.461453946163708 29.461453946163708 29.461453946163708 29.430690349752794 29.430690349752794 29.430690349752794 29.430690349752794 29.430690349752794 29.461453946163708 29.430690349752794 29.430690349752794 29.430690349752794 29.430690349752794 29.430690349752794 29.430690349752794 29.430690349752794 29.430690349752794 29.430690349752794 29.430690349752794 29.430690349752794 29.430690349752794 29.430690349752794 29.430690349752794 29.430690349752794 29.430690349752794 29.430690349752794 29.430690349752794 29.430690349752794 29.430690349752794 29.430690349752794 29.430690349752794 29.430690349752794 29.430690349752794 29.430690349752794 29.430690349752794 29.430690349752794 29.430690349752794 29.430690349752794 29.430690349752794 29.39992675334188 29.430690349752794 29.430690349752794 29.430690349752794 29.430690349752794 29.430690349752794 29.39992675334188 29.39992675334188 29.430690349752794 29.430690349752794 29.430690349752794 29.430690349752794 29.39992675334188 29.39992675334188 29.39992675334188 29.39992675334188 29.39992675334188 29.430690349752794 29.430690349752794 29.39992675334188 29.39992675334188 29.39992675334188 29.39992675334188 29.39992675334188 29.39992675334188 29.39992675334188 29.39992675334188 29.39992675334188 29.39992675334188 29.39992675334188 29.39992675334188 29.39992675334188 29.39992675334188 29.39992675334188 29.39992675334188 29.39992675334188 29.39992675334188 29.39992675334188 29.39992675334188 29.39992675334188 29.369163156930966 29.39992675334188 29.39992675334188 29.369163156930966 29.369163156930966 29.39992675334188 29.39992675334188 29.39992675334188 29.369163156930966 29.369163156930966 29.369163156930966 29.369163156930966 29.369163156930966 29.39992675334188 29.39992675334188 29.369163156930966 29.369163156930966 29.369163156930966 29.369163156930966 29.369163156930966 29.369163156930966 29.369163156930966 29.369163156930966 29.369163156930966 29.369163156930966 29.369163156930966 29.369163156930966 29.369163156930966 29.369163156930966 29.369163156930966 29.369163156930966 29.369163156930966 29.369163156930966 29.369163156930966 29.369163156930966 29.369163156930966 29.369163156930966 29.369163156930966 29.369163156930966 29.369163156930966 29.369163156930966 29.369163156930966 29.369163156930966 29.369163156930966 29.39992675334188 29.369163156930966 29.39992675334188 29.39992675334188 29.39992675334188 29.39992675334188 29.39992675334188 29.39992675334188 29.39992675334188 29.39992675334188 29.39992675334188 29.39992675334188 29.39992675334188 29.39992675334188 29.39992675334188 29.430690349752794 29.39992675334188 29.430690349752794 29.430690349752794 29.430690349752794 29.430690349752794 29.430690349752794 29.461453946163708 29.49221754257462 29.49221754257462 29.49221754257462 29.49221754257462 29.522981138985532 29.553744735396446 29.58450833180736 29.58450833180736 29.646035524629188 29.6767991210401 29.73832631386193 29.799853506683757 29.861380699505585 29.98443508514924 30.07672587438198 30.13825306720381 30.199780260025637 30.29207104925838 30.415125434902034 30.445889031312948 30.599707013367514 30.691997802600255 30.845815784654825 31.153451748763963 31.338033327229446 31.430324116462188 31.584142098516754 31.70719648416041 31.922541659036806 32.107123237502286 32.260941219556855 32.44552279802234 32.660867972898735 32.814685954953305 33.15308551547336 33.30690349752793 33.55301226881524 33.76835744369163 33.95293902215711 34.19904779344442 34.475920161142646 34.937374107306354 35.12195568577184 35.39882805347006 35.82951840322285 36.198681560153815 36.598608313495696 37.21388024171397 37.798388573521336 38.19831532686321 38.8443508514924 39.275041201245195 40.01336751510712 40.997802600256364 41.27467496795458 42.04376487822743 42.566746017212964 43.366599523896724 44.19721662699139 44.781724958798755 45.950741622413474 46.750595129097235 47.15052188243911 47.91961179271196 48.50412012451932 49.365500824024906 50.380699505585056 50.903680644570585 51.64200695843252 52.411096868705364 52.78026002563632 53.70316791796374 54.226149056949275 55.026002563633035 55.79509247390588 56.31807361289141 57.056399926753336 57.763962644204355 58.317707379600805 58.99450650064091 59.54825123603735 60.19428676066654 60.96337667093938 61.45559421351401 62.47079289507416 63.17835561252517 63.60904596227797 64.19355429408533 64.71653543307087 65.73173411463102 66.25471525361655 66.96227797106756 67.66984068851858 68.3774034059696 68.74656656290057 69.57718366599524 70.03863761215894 70.80772752243178 71.45376304706097 71.9459805896356 72.65354330708661 73.29957883171579 73.69950558505768 74.37630470609778 74.74546786302875 75.29921259842519 75.7606665445889 76.09906610510895 76.46822926203993 77.05273759384727 77.36037355795642 77.63724592565464 77.91411829335286 78.49862662516023 78.8677897820912 79.29848013184399 79.5753524995422 79.91375206006225 80.31367881340414 80.77513275956784 81.08276872367698 81.51345907342977 81.97491301959349 82.28254898370261 82.74400292986633 83.08240249038637 83.51309284013917 83.97454678630287 84.31294634682291 84.77440029298663 85.23585423915033 85.66654458890312 86.15876213147774 86.43563449917598 86.89708844533968 87.1739608130379 87.48159677714705 88.00457791613258 88.40450466947445 88.68137703717267 89.05054019410363 89.29664896539094 89.78886650796557 90.00421168284197 90.21955685771836 90.5271928218275 90.80406518952573 90.98864676799121 91.26551913568943 91.48086431056583 91.6654458890313 91.75773667826405 91.88079106390771 92.03460904596227 92.18842702801683 92.34224501007142 92.43453579930414 92.49606299212599 92.58835378135873 92.64988097418055 92.68064457059145 92.7729353598242 92.7729353598242 92.80369895623511 92.80369895623511 92.80369895623511 92.80369895623511 92.80369895623511 92.80369895623511 92.80369895623511 92.80369895623511 92.80369895623511 92.80369895623511 92.7729353598242 92.80369895623511 92.7729353598242 92.80369895623511 92.7729353598242 92.7729353598242 92.80369895623511 92.7729353598242 92.7729353598242 92.7729353598242 92.7729353598242 92.80369895623511 92.7729353598242 92.7421717634133 92.71140816700239 92.61911737776964 92.55759018494781 92.5268265885369 92.46529939571508 92.40377220289324 92.37300860648233 92.34224501007142 92.31148141366049 92.12689983519502 92.12689983519502 92.12689983519502 92.12689983519502 92.12689983519502 92.12689983519502 92.15766343160593 92.12689983519502 92.12689983519502 92.12689983519502 92.15766343160593 92.12689983519502 92.12689983519502 92.12689983519502 92.15766343160593 92.12689983519502 92.12689983519502 92.12689983519502 92.12689983519502 92.15766343160593 92.15766343160593 92.12689983519502 92.15766343160593 92.15766343160593 92.15766343160593 92.15766343160593 92.15766343160593 92.15766343160593 92.15766343160593 92.15766343160593 92.12689983519502 92.15766343160593 92.15766343160593 92.12689983519502 92.12689983519502 92.12689983519502 92.12689983519502 92.12689983519502 92.12689983519502 92.12689983519502 92.12689983519502 92.12689983519502 92.12689983519502 92.12689983519502 92.12689983519502 92.12689983519502 92.12689983519502 92.15766343160593 92.15766343160593 92.15766343160593 92.15766343160593 92.12689983519502 92.15766343160593 92.15766343160593 92.12689983519502 92.12689983519502 92.12689983519502 92.12689983519502 92.12689983519502 92.12689983519502 92.12689983519502 92.12689983519502 92.12689983519502 92.12689983519502 92.12689983519502 92.12689983519502 92.12689983519502 92.12689983519502 92.12689983519502 92.12689983519502 92.12689983519502 92.12689983519502 92.12689983519502 92.12689983519502 92.12689983519502 92.12689983519502 92.12689983519502 92.12689983519502 92.09613623878411 92.06537264237318 92.03460904596227 92.00384544955136 92.00384544955136 91.97308185314044 92.00384544955136 91.97308185314044 91.97308185314044 91.97308185314044 91.97308185314044 91.97308185314044 91.91155466031861 91.88079106390771 91.78850027467496 91.72697308185315 91.69620948544222 91.6654458890313 91.6346822926204 91.6346822926204 91.6346822926204 91.60391869620949 91.60391869620949 91.54239150338765 91.54239150338765 91.4501007141549 91.41933711774399 91.38857352133309 91.35780992492217 91.35780992492217 91.35780992492217 91.35780992492217 91.35780992492217 91.35780992492217 91.38857352133309 91.35780992492217 91.38857352133309 91.41933711774399 91.4501007141549 91.4501007141549 91.48086431056583 91.48086431056583 91.51162790697674 91.54239150338765 91.54239150338765 91.54239150338765 91.54239150338765 91.51162790697674 91.51162790697674 91.48086431056583 91.41933711774399 91.38857352133309 91.35780992492217 91.35780992492217 91.29628273210034 91.26551913568943 91.23475553927851 91.23475553927851 91.2039919428676 91.2039919428676 91.2039919428676 91.2039919428676 91.2039919428676 91.2039919428676 91.2039919428676 91.2039919428676 91.2039919428676 91.2039919428676 91.23475553927851 91.2039919428676 91.2039919428676 91.2039919428676 91.23475553927851 91.23475553927851 91.2039919428676 91.2039919428676 91.17322834645668 91.17322834645668 91.17322834645668 91.17322834645668 91.17322834645668 91.17322834645668 91.17322834645668 91.17322834645668 91.17322834645668 91.2039919428676 91.2039919428676 91.2039919428676 91.2039919428676 91.2039919428676 91.2039919428676 91.2039919428676 91.2039919428676 91.2039919428676 91.17322834645668 91.17322834645668 91.11170115363487 91.08093755722395 91.05017396081303 91.01941036440212 91.01941036440212 91.01941036440212 91.01941036440212 90.98864676799121 90.98864676799121 90.98864676799121 90.98864676799121 90.98864676799121 90.98864676799121 90.98864676799121 90.98864676799121 90.98864676799121 91.01941036440212 90.98864676799121 90.98864676799121 90.98864676799121 90.92711957516937 90.89635597875846 90.80406518952573 90.71177440029297 90.58872001464934 90.37337483977294 90.21955685771836 90.00421168284197 89.81963010437647 89.66581212232191 89.48123054385643 89.26588536898004 89.08130379051455 88.80443142281632 88.61984984435085 88.31221388024171 87.91228712689983 87.66617835561252 87.45083318073613 86.9586156381615 86.4971616919978 86.18952572788865 85.88188976377953 85.20509064273942 84.7128731001648 84.34370994323385 83.8207288042483 83.42080205090642 82.86705731550998 82.2517853872917 81.75956784471708 81.1135323200879 80.62131477751328 79.91375206006225 79.23695293902216 78.56015381798206 78.12946346822926 77.48342794360008 77.05273759384727 76.43746566562899 75.94524812305438 75.20692180919245 74.59164988097417 74.1917231276323 73.48416041018129 73.0842336568394 72.68430690349753 72.22285295733383 71.85368980040286 71.2999450650064 70.77696392602087 70.4078007690899 69.9463468229262 69.45412928035158 69.08496612342061 68.50045779161326 68.06976744186046 67.48525911005311 66.65464200695843 66.25471525361655 65.63944332539828 65.0549349935909 64.59348104742722 64.16279069767441 63.70133675151071 62.901483244826956 62.19392052737594 61.701702984801315 60.994140267350296 60.25581395348837 59.67130562168101 59.086797289873644 58.59457974729903 57.8562534334371 57.210217908807905 56.68723676982238 56.13349203442593 55.395165720563995 55.026002563633035 54.68760300311298 54.31843984618202 53.826222303607395 53.33400476103277 52.903314411279986 52.411096868705364 51.949642922541656 51.61124336202161 51.211316608679724 50.87291704815968 50.31917231276323 49.61160959531221 49.21168284197033 48.75022889580663 48.44259293169749 48.011902581944696 47.61197582860282 47.33510346090459 46.965940303973625 46.596777147042665 46.31990477934444 45.98150521882439 45.735396447537084 45.27394250137337 45.05859732649698 44.81248855520967 44.474088994689616 44.04339864493682 43.67423548800586 43.366599523896724 42.905145577733016 42.412928035158394 42.07452847463834 41.73612891411829 41.02856619666728 40.47482146127083 40.07489470792895 39.33656839406702 38.967405237136056 38.629005676616 38.13678813404138 37.798388573521336 37.24464383812489 36.78318989196118 36.444790331441126 35.952572788866505 35.61417322834646 35.183482878593665 34.75279252884087 34.56821095037539 34.29133858267716 33.983702618568024 33.79912104010255 33.55301226881524 33.460721479582496 33.12232191906244 32.93774034059696 32.75315876213148 32.38399560520051 32.04559604468046 31.86101446621498 31.614905694927668 31.461087712873102 31.245742537996705 31.153451748763963 31.12268815235305 31.06116095953122 30.999633766709394 30.907342977476652 30.753524995422083 30.630470609778428 30.47665262772386 30.322834645669293 30.199780260025637 30.07672587438198 30.015198681560154 29.98443508514924 29.953671488738326 29.922907892327412 29.8921442959165 29.83061710309467 29.83061710309467 29.799853506683757 29.799853506683757 29.769089910272843 29.769089910272843 29.73832631386193 29.707562717451015 29.707562717451015 29.6767991210401 29.6767991210401 29.646035524629188 29.646035524629188 29.6767991210401 29.646035524629188 29.646035524629188 29.646035524629188 29.646035524629188 29.646035524629188 29.646035524629188 29.646035524629188 29.646035524629188 29.615271928218274 29.615271928218274 29.615271928218274 29.615271928218274 29.615271928218274 29.615271928218274 29.615271928218274 29.615271928218274 29.615271928218274 29.615271928218274 29.615271928218274 29.615271928218274 29.615271928218274 29.615271928218274 29.615271928218274 29.615271928218274 29.615271928218274 29.615271928218274 29.615271928218274 29.615271928218274 29.615271928218274 29.615271928218274 29.615271928218274 29.615271928218274 29.615271928218274 29.615271928218274 29.615271928218274 29.615271928218274 29.615271928218274 29.615271928218274 29.615271928218274 29.615271928218274 29.615271928218274 29.615271928218274 29.615271928218274 29.615271928218274 29.615271928218274 29.615271928218274 29.615271928218274 29.615271928218274 29.615271928218274 29.615271928218274 29.615271928218274 29.615271928218274 29.615271928218274 29.615271928218274 29.615271928218274 29.615271928218274 29.615271928218274 29.615271928218274 29.615271928218274 29.615271928218274 29.615271928218274 29.615271928218274 29.615271928218274 29.615271928218274 29.615271928218274 29.58450833180736 29.58450833180736 29.58450833180736 29.58450833180736 29.615271928218274 29.58450833180736 29.58450833180736 29.58450833180736 29.58450833180736 29.58450833180736 29.58450833180736 29.58450833180736 29.58450833180736 29.58450833180736 29.58450833180736 29.58450833180736 29.58450833180736 29.58450833180736 29.58450833180736 29.58450833180736 29.58450833180736 29.58450833180736 29.58450833180736 29.58450833180736 29.58450833180736 29.553744735396446 29.58450833180736 29.58450833180736 29.58450833180736 29.553744735396446 29.553744735396446 29.553744735396446 29.553744735396446 29.553744735396446 29.553744735396446 29.553744735396446 29.58450833180736 29.553744735396446 29.553744735396446 29.553744735396446 29.553744735396446 29.553744735396446 29.553744735396446 29.553744735396446 29.553744735396446 29.553744735396446 29.58450833180736 29.553744735396446 29.58450833180736 29.553744735396446 29.553744735396446 29.553744735396446 29.553744735396446 29.553744735396446 29.553744735396446 29.553744735396446 29.553744735396446 29.553744735396446 29.522981138985532 29.553744735396446 29.522981138985532 29.522981138985532 29.522981138985532 29.49221754257462 29.49221754257462 29.49221754257462 29.49221754257462 29.49221754257462 29.49221754257462 29.461453946163708 29.461453946163708 29.49221754257462 29.461453946163708 29.461453946163708 29.461453946163708 29.49221754257462 29.461453946163708 29.461453946163708 29.461453946163708 29.49221754257462 29.461453946163708 29.461453946163708 29.461453946163708 29.461453946163708 29.461453946163708 29.461453946163708 29.461453946163708 29.461453946163708 29.461453946163708 29.461453946163708 29.461453946163708 29.461453946163708 29.49221754257462 29.461453946163708 29.461453946163708 29.461453946163708 29.461453946163708 29.461453946163708 29.461453946163708 29.461453946163708 29.461453946163708 29.461453946163708 29.461453946163708 29.461453946163708 29.461453946163708 29.461453946163708 29.461453946163708 29.461453946163708 29.461453946163708 29.461453946163708 29.461453946163708 29.461453946163708 29.461453946163708 29.461453946163708 29.461453946163708 29.461453946163708 29.461453946163708 29.461453946163708 29.461453946163708 29.461453946163708 29.461453946163708 29.461453946163708 29.461453946163708 29.461453946163708 29.461453946163708 29.461453946163708 29.461453946163708 29.461453946163708 29.461453946163708 29.461453946163708 29.461453946163708 29.461453946163708 29.461453946163708 29.461453946163708 29.461453946163708 29.461453946163708 29.461453946163708 29.461453946163708 29.461453946163708 29.461453946163708 29.461453946163708 29.461453946163708 29.461453946163708 29.461453946163708 29.49221754257462 29.461453946163708 29.461453946163708 29.461453946163708 29.461453946163708 29.461453946163708 29.49221754257462 29.461453946163708 29.461453946163708 29.461453946163708 29.49221754257462 29.461453946163708 29.49221754257462 29.49221754257462 29.49221754257462 29.522981138985532 29.522981138985532 29.522981138985532 29.553744735396446 29.553744735396446 29.58450833180736 29.58450833180736 29.615271928218274 29.646035524629188 29.6767991210401 29.707562717451015 29.769089910272843 29.799853506683757 29.861380699505585 29.98443508514924 30.045962277971068 30.199780260025637 30.29207104925838 30.47665262772386 30.72276139901117 30.999633766709394 31.399560520051274 31.55337850210584 31.676432887749495 31.984068851858634 32.23017762314594 32.507049990844166 32.87621314777513 33.30690349752793 33.64530305804798 34.075993407800766 34.229811389855335 34.5989745467863 35.09119208936092 35.67570042116829 36.3832631386193 36.906244277604834 37.61380699505585 38.321369712506865 38.59824208020509 39.45962277971067 39.95184032228529 40.56711225050357 41.21314777513276 41.64383812488555 42.259110053103825 42.93590917414393 43.39736312030763 44.01263504852591 44.4433253982787 44.99707013367515 45.82768723676982 46.350668375755355 46.904413111151804 47.33510346090459 48.04266617835561 48.50412012451932 48.99633766709394 49.91924555942135 50.62680827687237 51.149789415857896 51.826588536898 52.34956967588353 53.14942318256729 53.85698590001831 54.5030214246475 55.21058414209851 56.01043764878227 56.59494598058963 57.763962644204355 58.37923457242263 59.30214246475004 60.00970518220106 60.71726789965207 61.33253982787035 62.53232008789599 63.27064640175792 64.07049990844168 64.65500824024903 65.45486174693279 66.00860648232924 66.56235121772569 67.66984068851858 68.43893059879143 69.11572971983153 69.66947445522797 70.13092840139169 70.86925471525362 71.5152902398828 72.06903497527925 72.6227797106757 73.26881523530488 73.66874198864676 74.31477751327596 74.89928584508331 75.45303058047976 75.82219373741073 76.25288408716352 76.6528108405054 77.11426478666911 77.39113715436733 77.88335469694195 78.12946346822926 78.4370994323384 78.65244460721479 78.83702618568027 79.26771653543307 79.60611609595313 79.94451565647316 80.25215162058231 80.52902398828053 80.9289507416224 81.32887749496429 81.69804065189524 82.09796740523714 82.52865775498992 82.86705731550998 83.32851126167368 83.66691082219373 84.2514191540011 84.68210950375389 84.92821827504119 85.29738143197216 85.8203625709577 86.3125801135323 86.68174327046327 87.05090642739424 87.3893059879143 87.72770554843434 87.91228712689983 88.21992309100898 88.40450466947445 88.77366782640541 88.92748580845998 89.08130379051455 89.29664896539094 89.48123054385643 89.635048525911 89.81963010437647 89.91192089360922 90.0657388756638 90.21955685771836 90.25032045412928 90.3118476469511 90.37337483977294 90.40413843618384 90.40413843618384 90.40413843618384 90.43490203259475 90.43490203259475 90.43490203259475 90.43490203259475 90.43490203259475 90.43490203259475 90.43490203259475 90.43490203259475 90.43490203259475 90.43490203259475 90.43490203259475 90.43490203259475 90.43490203259475 90.43490203259475 90.43490203259475 90.43490203259475 90.43490203259475 90.43490203259475 90.43490203259475 90.43490203259475 90.46566562900567 90.46566562900567 90.46566562900567 90.49642922541659 90.49642922541659 90.5271928218275 90.5579564182384 90.61948361106025 90.61948361106025 90.68101080388206 90.68101080388206 90.71177440029297 90.7425379967039 90.80406518952573 90.80406518952573 90.83482878593664 90.86559238234756 90.89635597875846 90.92711957516937 90.92711957516937 90.95788317158029 90.98864676799121 90.98864676799121 90.98864676799121 90.98864676799121 90.98864676799121 90.98864676799121 90.98864676799121 90.98864676799121 90.98864676799121 90.98864676799121 90.98864676799121 91.01941036440212 90.98864676799121 90.98864676799121 91.01941036440212 90.98864676799121 90.98864676799121 90.98864676799121 90.98864676799121 90.98864676799121 90.98864676799121 91.01941036440212 91.01941036440212 91.01941036440212 90.98864676799121 90.98864676799121 90.98864676799121 90.98864676799121 90.98864676799121 90.98864676799121 90.98864676799121 90.98864676799121 90.98864676799121 90.98864676799121 90.98864676799121 90.98864676799121 90.98864676799121 90.98864676799121 90.98864676799121 91.01941036440212 90.98864676799121 90.98864676799121 91.01941036440212 90.98864676799121 90.98864676799121 90.98864676799121 90.98864676799121 90.98864676799121 91.01941036440212 90.98864676799121 91.01941036440212 90.98864676799121 90.98864676799121 90.98864676799121 91.01941036440212 90.98864676799121 90.98864676799121 91.01941036440212 91.01941036440212 91.01941036440212 91.01941036440212 91.01941036440212 91.01941036440212 91.01941036440212 91.05017396081303 91.05017396081303 91.05017396081303 91.05017396081303 91.05017396081303 91.05017396081303 91.05017396081303 91.05017396081303 91.05017396081303 91.05017396081303 91.05017396081303 91.05017396081303 91.05017396081303 91.05017396081303 91.05017396081303 91.05017396081303 91.05017396081303 91.05017396081303 91.05017396081303 91.05017396081303 91.01941036440212 91.05017396081303 91.05017396081303 91.05017396081303 91.05017396081303 91.05017396081303 91.05017396081303 91.01941036440212 91.01941036440212 91.01941036440212 91.01941036440212 91.01941036440212 91.01941036440212 91.01941036440212 91.01941036440212 90.98864676799121 90.95788317158029 90.89635597875846 90.86559238234756 90.80406518952573 90.7425379967039 90.71177440029297 90.68101080388206 90.65024720747115 90.58872001464934 90.46566562900567 90.37337483977294 90.28108405054019 90.18879326130745 90.0965024720747 90.00421168284197 89.88115729719831 89.75810291155466 89.69657571873282 89.635048525911 89.57352133308916 89.51199414026735 89.51199414026735 89.48123054385643 89.48123054385643 89.4197033510346 89.38893975462369 89.32741256180186 89.20435817615821 89.08130379051455 88.95824940487088 88.77366782640541 88.61984984435085 88.40450466947445 88.25068668741989 87.91228712689983 87.69694195202344 87.48159677714705 87.2047244094488 86.7125068668742 86.40487090276505 85.97418055301226 85.63578099249222 85.23585423915033 84.92821827504119 84.62058231093206 83.91301959348104 83.39003845449551 82.99011170115364 82.55942135140083 82.19025819446988 81.72880424830618 81.39040468778612 81.02124153085515 80.55978758469143 80.19062442776048 79.85222486724042 79.29848013184399 79.14466214978941 78.71397180003662 78.19099066105107 77.7603003112983 77.36037355795642 76.68357443691632 76.12982970151987 75.82219373741073 75.42226698406884 74.8685222486724 74.40706830250869 74.00714154916682 73.48416041018129 72.96117927119576 72.53048892144295 72.09979857169017 71.7306354147592 71.23841787218458 70.74620032960996 70.34627357626809 69.88481963010437 69.54642006958431 68.99267533418788 68.28511261673685 67.88518586339498 67.39296832082036 66.93151437465664 66.50082402490386 66.00860648232924 65.54715253616553 64.77806262589269 64.16279069767441 63.73210034792162 63.055301226881525 62.37850210584142 61.97857535249954 61.14795824940487 60.655740706830244 59.978941585790146 59.30214246475004 58.84068851858633 58.22541659036806 57.456326680095216 57.210217908807905 56.62570957700055 56.225782823658676 55.61051089544039 54.99523896722212 54.41073063541476 53.88774949642922 53.364768357443694 53.057132393334555 52.62644204358176 52.257278886650795 51.703534151254345 50.96520783739241 50.596044680461446 49.980772752243176 49.30397363120308 48.84251968503936 48.19648416041018 47.73503021424648 47.02746749679545 46.38143197216627 45.91997802600257 45.24317890496246 44.627906976744185 43.981871452114994 43.581944698773114 43.15125434902033 42.28987364951474 41.85918329976195 41.39772935359824 40.38253067203809 39.61344076176525 39.09045962277971 38.567478483794176 37.82915216993224 37.12158945248123 36.598608313495696 35.952572788866505 35.36806445705915 35.06042849295001 34.72202893242996 34.35286577549899 34.075993407800766 33.73759384728072 33.39919428676067 33.15308551547336 32.84544955136422 32.568577183665994 32.23017762314594 31.891778062625892 31.676432887749495 31.461087712873102 31.36879692364036 31.307269730818533 31.307269730818533 31.27650613440762 31.153451748763963 31.06116095953122 30.96887017029848 30.753524995422083 30.599707013367514 30.538179820545686 30.415125434902034 30.322834645669293 30.199780260025637 30.07672587438198 30.015198681560154 29.953671488738326 29.861380699505585 29.83061710309467 29.707562717451015 29.6767991210401 29.6767991210401 29.646035524629188 29.646035524629188 29.615271928218274 29.615271928218274 29.615271928218274 29.615271928218274 29.615271928218274 29.615271928218274 29.615271928218274 29.615271928218274 29.615271928218274 29.615271928218274 29.615271928218274 29.58450833180736 29.58450833180736 29.58450833180736 29.58450833180736 29.58450833180736 29.58450833180736 29.58450833180736 29.58450833180736 29.58450833180736 29.58450833180736 29.58450833180736 29.58450833180736 29.58450833180736 29.58450833180736 29.58450833180736 29.58450833180736 29.58450833180736 29.58450833180736 29.58450833180736 29.58450833180736 29.553744735396446 29.553744735396446 29.58450833180736 29.58450833180736 29.58450833180736 29.58450833180736 29.58450833180736 29.58450833180736 29.58450833180736 29.553744735396446 29.553744735396446 29.553744735396446 29.553744735396446 29.553744735396446 29.553744735396446 29.58450833180736 29.58450833180736 29.58450833180736 29.553744735396446 29.58450833180736 29.58450833180736 29.553744735396446 29.58450833180736 29.58450833180736 29.553744735396446 29.553744735396446 29.553744735396446 29.553744735396446 29.58450833180736 29.553744735396446 29.553744735396446 29.553744735396446 29.553744735396446 29.553744735396446 29.553744735396446 29.58450833180736 29.553744735396446 29.58450833180736 29.553744735396446 29.553744735396446 29.58450833180736 29.553744735396446 29.553744735396446 29.553744735396446 29.553744735396446 29.553744735396446 29.58450833180736 29.553744735396446 29.553744735396446 29.553744735396446 29.553744735396446 29.553744735396446 29.553744735396446 29.553744735396446 29.553744735396446 29.553744735396446 29.553744735396446 29.553744735396446 29.553744735396446 29.553744735396446 29.58450833180736 29.553744735396446 29.553744735396446 29.553744735396446 29.553744735396446 29.553744735396446 29.553744735396446 29.553744735396446 29.553744735396446 29.553744735396446 29.553744735396446 29.553744735396446 29.553744735396446 29.553744735396446 29.553744735396446 29.553744735396446 29.553744735396446 29.553744735396446 29.553744735396446 29.553744735396446 29.553744735396446 29.553744735396446 29.553744735396446 29.553744735396446 29.553744735396446 29.553744735396446 29.553744735396446 29.553744735396446 29.553744735396446 29.553744735396446 29.553744735396446 29.553744735396446 29.553744735396446 29.553744735396446 29.553744735396446 29.553744735396446 29.553744735396446 29.553744735396446 29.553744735396446 29.553744735396446 29.553744735396446 29.553744735396446 29.553744735396446 29.553744735396446 29.553744735396446 29.553744735396446 29.553744735396446 29.553744735396446 29.553744735396446 29.553744735396446 29.553744735396446 29.553744735396446 29.553744735396446 29.553744735396446 29.522981138985532 29.553744735396446 29.553744735396446 29.553744735396446 29.553744735396446 29.553744735396446 29.553744735396446 29.553744735396446 29.553744735396446 29.553744735396446 29.522981138985532 29.522981138985532 29.522981138985532 29.553744735396446 29.553744735396446 29.522981138985532 29.522981138985532 29.553744735396446 29.522981138985532 29.522981138985532 29.553744735396446 29.553744735396446 29.553744735396446 29.553744735396446 29.553744735396446 29.553744735396446 29.522981138985532 29.553744735396446 29.522981138985532 29.522981138985532 29.553744735396446 29.553744735396446 29.553744735396446 29.553744735396446 29.553744735396446 29.522981138985532 29.553744735396446 29.553744735396446 29.522981138985532 29.553744735396446 29.522981138985532 29.522981138985532 29.522981138985532 29.553744735396446 29.522981138985532 29.522981138985532 29.522981138985532 29.522981138985532 29.553744735396446 29.553744735396446 29.522981138985532 29.553744735396446 29.553744735396446 29.522981138985532 29.522981138985532 29.522981138985532 29.553744735396446 29.553744735396446 29.553744735396446 29.553744735396446 29.522981138985532 29.522981138985532 29.522981138985532 29.553744735396446 29.553744735396446 29.553744735396446 29.522981138985532 29.522981138985532 29.553744735396446 29.522981138985532 29.553744735396446 29.522981138985532 29.553744735396446 29.553744735396446 29.553744735396446 29.522981138985532 29.553744735396446 29.522981138985532 29.553744735396446 29.522981138985532 29.553744735396446 29.553744735396446 29.522981138985532 29.553744735396446 29.553744735396446 29.522981138985532 29.553744735396446 29.522981138985532 29.553744735396446 29.522981138985532 29.553744735396446 29.522981138985532 29.522981138985532 29.553744735396446 29.553744735396446 29.522981138985532 29.553744735396446 29.522981138985532 29.522981138985532 29.522981138985532 29.553744735396446 29.553744735396446 29.553744735396446 29.522981138985532 29.553744735396446 29.553744735396446 29.553744735396446 29.553744735396446 29.522981138985532 29.553744735396446 29.553744735396446 29.553744735396446 29.522981138985532 29.553744735396446 29.553744735396446 29.522981138985532 29.522981138985532 29.522981138985532 29.522981138985532 29.553744735396446 29.522981138985532 29.522981138985532 29.553744735396446 29.553744735396446 29.553744735396446 29.553744735396446 29.553744735396446 29.553744735396446 29.553744735396446 29.553744735396446 29.553744735396446 29.553744735396446 29.522981138985532 29.553744735396446 29.553744735396446 29.553744735396446 29.553744735396446 29.522981138985532 29.553744735396446 29.553744735396446 29.553744735396446 29.553744735396446 29.553744735396446 29.553744735396446 29.522981138985532 29.553744735396446 29.553744735396446 29.553744735396446 29.553744735396446 29.553744735396446 29.553744735396446 29.553744735396446 29.553744735396446 29.553744735396446 29.553744735396446 29.553744735396446 29.522981138985532 29.553744735396446 29.553744735396446 29.553744735396446 29.553744735396446 29.553744735396446 29.553744735396446 29.553744735396446 29.553744735396446 29.553744735396446 29.553744735396446 29.553744735396446 29.553744735396446 29.553744735396446 29.553744735396446 29.553744735396446 29.553744735396446 29.553744735396446 29.553744735396446 29.553744735396446 29.58450833180736 29.58450833180736 29.58450833180736 29.58450833180736 29.615271928218274 29.615271928218274 29.646035524629188 29.646035524629188 29.6767991210401 29.6767991210401 29.707562717451015 29.73832631386193 29.769089910272843 29.799853506683757 29.8921442959165 29.98443508514924 30.199780260025637 30.353598242080206 30.507416224134772 30.5689434169566 30.72276139901117 30.907342977476652 31.153451748763963 31.461087712873102 31.64566929133858 31.830250869804065 32.107123237502286 32.3532320087896 32.59934078007691 33.060794726240616 33.42995788317158 33.67606665445889 34.01446621497894 34.229811389855335 34.629738143197216 35.06042849295001 35.39882805347006 35.9218091924556 36.47555392785204 36.87548068119392 37.33693462735763 37.67533418787768 38.29060611609595 38.629005676616 38.90587804431423 39.45962277971067 40.290239882805345 40.72093023255814 41.5207837392419 42.04376487822743 42.78209119208936 43.366599523896724 43.92034425929317 44.781724958798755 45.48928767624977 45.98150521882439 46.62754074345358 47.08899468961728 47.73503021424648 48.411829335286576 48.873283281450284 49.51931880607947 50.22688152353049 50.74986266251602 51.33437099432338 51.826588536898 52.56491485075993 53.518586339498256 53.79545870719648 54.59531221388024 55.179820545687605 56.28731001648049 57.14869071598608 57.73319904779344 58.59457974729903 59.39443325398278 60.00970518220106 60.87108588170665 61.51712140633583 62.37850210584142 63.30140999816883 63.916681926387106 64.77806262589269 65.60867972898737 66.19318806079472 66.99304156747849 67.54678630287492 68.31587621314777 69.33107489470792 69.85405603369347 70.56161875114448 71.02307269730818 71.5152902398828 72.13056216810108 72.83812488555209 73.45339681377037 74.06866874198865 74.53012268815235 75.20692180919245 75.85295733382165 76.2221204907526 77.02197399743636 77.5449551364219 78.19099066105107 78.8677897820912 79.3292437282549 80.15986083134956 80.74436916315693 80.99047793444424 81.48269547701886 81.8210950375389 82.2517853872917 82.77476652627723 83.02087529756454 83.39003845449551 83.78996520783738 84.06683757553562 84.31294634682291 84.58981871452116 85.1743270463285 85.60501739608131 85.88188976377953 86.3125801135323 86.77403405969602 87.05090642739424 87.48159677714705 87.75846914484526 88.15839589818714 88.55832265152901 88.77366782640541 89.08130379051455 89.4197033510346 89.81963010437647 90.0657388756638 90.34261124336201 90.7425379967039 91.14246475004578 91.57315509979856 91.94231825672954 92.18842702801683 92.5268265885369 92.71140816700239 92.95751693828969 93.14209851675518 93.29591649880975 93.38820728804248 93.51126167368614 93.57278886650798 93.63431605932979 93.63431605932979 93.63431605932979 93.63431605932979 93.60355246291888 93.60355246291888 93.60355246291888 93.60355246291888 93.51126167368614 93.48049807727523 93.44973448086432 93.41897088445339 93.32668009522065 93.26515290239884 93.203625709577 93.14209851675518 93.04980772752243 92.95751693828969 92.86522614905695 92.80369895623511 92.7421717634133 92.71140816700239 92.64988097418055 92.61911737776964 92.58835378135873 92.58835378135873 92.58835378135873 92.58835378135873 92.58835378135873 92.58835378135873 92.61911737776964 92.58835378135873 92.58835378135873 92.61911737776964 92.61911737776964 92.58835378135873 92.58835378135873 92.58835378135873 92.58835378135873 92.58835378135873 92.58835378135873 92.58835378135873 92.58835378135873 92.58835378135873 92.58835378135873 92.58835378135873 92.58835378135873 92.58835378135873 92.58835378135873 92.58835378135873 92.58835378135873 92.58835378135873 92.55759018494781 92.5268265885369 92.49606299212599 92.46529939571508 92.40377220289324 92.40377220289324 92.37300860648233 92.34224501007142 92.34224501007142 92.34224501007142 92.34224501007142 92.34224501007142 92.34224501007142 92.34224501007142 92.31148141366049 92.28071781724958 92.24995422083867 92.21919062442777 92.18842702801683 92.15766343160593 92.12689983519502 92.06537264237318 92.03460904596227 92.03460904596227 92.03460904596227 92.03460904596227 92.00384544955136 92.03460904596227 92.00384544955136 92.00384544955136 92.00384544955136 92.03460904596227 92.03460904596227 92.03460904596227 92.03460904596227 92.03460904596227 92.03460904596227 92.03460904596227 92.03460904596227 92.03460904596227 92.00384544955136 92.00384544955136 92.00384544955136 92.00384544955136 92.03460904596227 92.00384544955136 92.00384544955136 92.00384544955136 92.03460904596227 92.00384544955136 92.00384544955136 92.00384544955136 91.97308185314044 91.94231825672954 91.91155466031861 91.88079106390771 91.85002746749679 91.78850027467496 91.75773667826405 91.72697308185315 91.72697308185315 91.72697308185315 91.72697308185315 91.72697308185315 91.72697308185315 91.75773667826405 91.75773667826405 91.75773667826405 91.75773667826405 91.75773667826405 91.78850027467496 91.78850027467496 91.81926387108588 91.81926387108588 91.81926387108588 91.81926387108588 91.81926387108588 91.81926387108588 91.81926387108588 91.81926387108588 91.81926387108588 91.81926387108588 91.81926387108588 91.81926387108588 91.81926387108588 91.81926387108588 91.81926387108588 91.81926387108588 91.81926387108588 91.81926387108588 91.81926387108588 91.81926387108588 91.81926387108588 91.78850027467496 91.81926387108588 91.81926387108588 91.81926387108588 91.81926387108588 91.81926387108588 91.81926387108588 91.81926387108588 91.81926387108588 91.78850027467496 91.78850027467496 91.78850027467496 91.75773667826405 91.75773667826405 91.75773667826405 91.75773667826405 91.75773667826405 91.78850027467496 91.75773667826405 91.78850027467496 91.75773667826405 91.75773667826405 91.78850027467496 91.75773667826405 91.75773667826405 91.75773667826405 91.72697308185315 91.72697308185315 91.72697308185315 91.72697308185315 91.69620948544222 91.69620948544222 91.69620948544222 91.6654458890313 91.69620948544222 91.6654458890313 91.6654458890313 91.6346822926204 91.6346822926204 91.60391869620949 91.60391869620949 91.57315509979856 91.57315509979856 91.57315509979856 91.57315509979856 91.57315509979856 91.57315509979856 91.57315509979856 91.57315509979856 91.57315509979856 91.57315509979856 91.57315509979856 91.57315509979856 91.54239150338765 91.51162790697674 91.48086431056583 91.48086431056583 91.4501007141549 91.4501007141549 91.4501007141549 91.38857352133309 91.38857352133309 91.38857352133309 91.35780992492217 91.38857352133309 91.35780992492217 91.38857352133309 91.35780992492217 91.35780992492217 91.38857352133309 91.35780992492217 91.29628273210034 91.23475553927851 91.11170115363487 91.01941036440212 90.95788317158029 90.92711957516937 90.89635597875846 90.80406518952573 90.77330159311481 90.7425379967039 90.71177440029297 90.71177440029297 90.71177440029297 90.71177440029297 90.68101080388206 90.68101080388206 90.68101080388206 90.68101080388206 90.68101080388206 90.68101080388206 90.68101080388206 90.68101080388206 90.68101080388206 90.68101080388206 90.71177440029297 90.71177440029297 90.68101080388206 90.71177440029297 90.71177440029297 90.71177440029297 90.71177440029297 90.71177440029297 90.71177440029297 90.71177440029297 90.71177440029297 90.71177440029297 90.71177440029297 90.71177440029297 90.71177440029297 90.71177440029297 90.71177440029297 90.71177440029297 90.7425379967039 90.7425379967039 90.7425379967039 90.7425379967039 90.7425379967039 90.77330159311481 90.77330159311481 90.7425379967039 90.77330159311481 90.77330159311481 90.77330159311481 90.77330159311481 90.77330159311481 90.77330159311481 90.77330159311481 90.77330159311481 90.77330159311481 90.77330159311481 90.77330159311481 90.77330159311481 90.77330159311481 90.77330159311481 90.77330159311481 90.77330159311481 90.77330159311481 90.77330159311481 90.77330159311481 90.77330159311481 90.77330159311481 90.77330159311481 90.77330159311481 90.80406518952573 90.80406518952573 90.77330159311481 90.77330159311481 90.80406518952573 90.77330159311481 90.77330159311481 90.77330159311481 90.77330159311481 90.80406518952573 90.77330159311481 90.77330159311481 90.77330159311481 90.77330159311481 90.77330159311481 90.7425379967039 90.68101080388206 90.58872001464934 90.49642922541659 90.3118476469511 90.18879326130745 90.0965024720747 90.00421168284197 89.81963010437647 89.66581212232191 89.54275773667825 89.38893975462369 89.20435817615821 88.98901300128182 88.89672221204907 88.65061344076176 88.46603186229628 88.21992309100898 87.97381431972167 87.75846914484526 87.4200695843252 87.11243362021608 86.83556125251785 86.4971616919978 86.25105292071049 85.8203625709577 85.23585423915033 84.92821827504119 84.62058231093206 84.00531038271379 83.66691082219373 83.39003845449551 82.92858450833181 82.49789415857902 82.06720380882622 81.79033144112799 81.29811389855337 80.80589635597875 80.4674967954587 79.97527925288409 79.60611609595313 79.1138985533785 78.59091741439296 78.25251785387292 77.57571873283281 77.17579197949092 76.83739241897088 76.16059329793077 75.9760117194653 75.39150338765793 74.68394067020691 74.31477751327596 73.79179637429041 73.39186962094854 72.83812488555209 72.46896172862114 71.91521699322467 71.33070866141732 70.77696392602087 70.4078007690899 69.88481963010437 69.4848928767625 68.8080937557224 68.56198498443507 68.13129463468229 67.63907709210767 67.11609595312214 66.74693279619117 66.22395165720565 65.67020692180918 65.08569859000184 64.65500824024903 64.22431789049625 63.54751876945614 62.901483244826956 62.16315693096502 61.45559421351401 60.901849478117555 60.34810474272111 59.85588720014648 59.425196850393704 58.47152536165537 57.79472624061527 57.302508698040654 56.59494598058963 56.10272843801501 55.48745650979674 54.872184581578466 54.5030214246475 53.980040285661964 53.45705914667643 53.08789598974546 52.56491485075993 52.22651529023988 51.61124336202161 51.27284380150155 51.02673503021424 50.56528108405054 50.134590734297745 49.79619117377769 49.27321003479216 48.93481047427211 48.62717451016297 48.25801135323201 47.98113898553378 47.64273942501373 47.39663065372642 47.1197582860282 46.84288591832997 46.62754074345358 46.31990477934444 46.0122688152353 45.76616004394799 45.427760483427946 45.21241530855154 44.84325215162058 44.474088994689616 44.227980223402305 43.85881706647134 43.366599523896724 43.24354513825307 42.905145577733016 42.59750961362388 42.28987364951474 42.013001281816514 41.73612891411829 41.459256546420065 41.12085698590002 40.843984618201794 40.444057864859914 40.136421900750776 39.76725874381981 39.33656839406702 39.028932429957884 38.567478483794176 38.167551730452296 37.859915766343164 37.42922541659037 37.060062259659404 36.41402673503021 36.07562717451016 35.82951840322285 35.491118842702804 35.30653726423732 35.06042849295001 34.75279252884087 34.475920161142646 34.229811389855335 34.01446621497894 33.829884636513455 33.67606665445889 33.49148507599341 33.368430690349754 33.18384911188427 32.99926753341879 32.814685954953305 32.63010437648782 32.47628639443325 32.19941402673503 31.984068851858634 31.922541659036806 31.830250869804065 31.70719648416041 31.614905694927668 31.461087712873102 31.399560520051274 31.338033327229446 31.307269730818533 31.307269730818533 31.245742537996705 31.245742537996705 31.153451748763963 31.12268815235305 31.06116095953122 30.999633766709394 30.938106573887566 30.845815784654825 30.81505218824391 30.72276139901117 30.66123420618934 30.5689434169566 30.538179820545686 30.507416224134772 30.445889031312948 30.353598242080206 30.29207104925838 30.23054385643655 30.13825306720381 30.07672587438198 30.015198681560154 29.953671488738326 29.8921442959165 29.83061710309467 29.799853506683757 29.73832631386193 29.6767991210401 29.6767991210401 29.646035524629188 29.646035524629188 29.646035524629188 29.646035524629188 29.646035524629188 29.646035524629188 29.646035524629188 29.615271928218274 29.615271928218274 29.615271928218274 29.615271928218274 29.615271928218274 29.615271928218274 29.615271928218274 29.615271928218274 29.615271928218274 29.58450833180736 29.58450833180736 29.615271928218274 29.58450833180736 29.58450833180736 29.58450833180736 29.58450833180736 29.58450833180736 29.58450833180736 29.58450833180736 29.58450833180736 29.58450833180736 29.58450833180736 29.58450833180736 29.58450833180736 29.553744735396446 29.58450833180736 29.58450833180736 29.553744735396446 29.58450833180736 29.553744735396446 29.553744735396446 29.553744735396446 29.553744735396446 29.553744735396446 29.553744735396446 29.553744735396446 29.553744735396446 29.553744735396446 29.58450833180736 29.58450833180736 29.553744735396446 29.553744735396446 29.553744735396446 29.58450833180736 29.553744735396446 29.553744735396446 29.553744735396446 29.553744735396446 29.553744735396446 29.553744735396446 29.553744735396446 29.553744735396446 29.553744735396446 29.553744735396446 29.553744735396446 29.553744735396446 29.553744735396446 29.553744735396446 29.522981138985532 29.553744735396446 29.553744735396446 29.553744735396446 29.553744735396446 29.553744735396446 29.553744735396446 29.553744735396446 29.553744735396446 29.553744735396446 29.553744735396446 29.553744735396446 29.553744735396446 29.553744735396446 29.553744735396446 29.553744735396446 29.553744735396446 29.553744735396446 29.553744735396446 29.553744735396446 29.553744735396446 29.553744735396446 29.553744735396446 29.553744735396446 29.553744735396446 29.553744735396446 29.553744735396446 29.553744735396446 29.553744735396446 29.553744735396446 29.553744735396446 29.522981138985532 29.553744735396446 29.553744735396446 29.553744735396446 29.553744735396446 29.553744735396446 29.553744735396446 29.553744735396446 29.522981138985532 29.553744735396446 29.522981138985532 29.522981138985532 29.522981138985532 29.553744735396446 29.553744735396446 29.522981138985532 29.553744735396446 29.522981138985532 29.522981138985532 29.522981138985532 29.553744735396446 29.553744735396446 29.553744735396446 29.522981138985532 29.553744735396446 29.522981138985532 29.522981138985532 29.553744735396446 29.553744735396446 29.522981138985532 29.522981138985532 29.522981138985532 29.553744735396446 29.522981138985532 29.553744735396446 29.522981138985532 29.522981138985532 29.522981138985532 29.522981138985532 29.522981138985532 29.553744735396446 29.553744735396446 29.553744735396446 29.522981138985532 29.522981138985532 29.522981138985532 29.522981138985532 29.522981138985532 29.522981138985532 29.522981138985532 29.553744735396446 29.522981138985532 29.522981138985532 29.553744735396446 29.522981138985532 29.522981138985532 29.522981138985532 29.522981138985532 29.553744735396446 29.522981138985532 29.522981138985532 29.522981138985532 29.522981138985532 29.522981138985532 29.522981138985532 29.522981138985532 29.522981138985532 29.522981138985532 29.522981138985532 29.522981138985532 29.522981138985532 29.553744735396446 29.522981138985532 29.522981138985532 29.522981138985532 29.522981138985532 29.522981138985532 29.522981138985532 29.522981138985532 29.522981138985532 29.522981138985532 29.522981138985532 29.522981138985532 29.553744735396446 29.553744735396446 29.522981138985532 29.522981138985532 29.553744735396446 29.553744735396446 29.553744735396446 29.553744735396446 29.553744735396446 29.553744735396446 29.553744735396446 29.553744735396446 29.553744735396446 29.58450833180736 29.553744735396446 29.58450833180736 29.58450833180736 29.58450833180736 29.615271928218274 29.615271928218274 29.615271928218274 29.646035524629188 29.646035524629188 29.646035524629188 29.6767991210401 29.6767991210401 29.707562717451015 29.707562717451015 29.73832631386193 29.799853506683757 29.83061710309467 29.8921442959165 30.015198681560154 30.107489470792896 30.199780260025637 30.322834645669293 30.415125434902034 30.445889031312948 30.47665262772386 30.507416224134772 30.599707013367514 30.66123420618934 30.81505218824391 30.907342977476652 31.06116095953122 31.27650613440762 31.36879692364036 31.522614905694926 31.676432887749495 31.830250869804065 32.04559604468046 32.260941219556855 32.568577183665994 32.906976744186046 33.214612708295185 33.522248672404324 33.860648232924376 34.137520600622594 34.41439296832082 34.5989745467863 34.937374107306354 35.337300860648234 35.76799121040103 36.22944515656473 36.906244277604834 37.306171030946714 37.89067936275407 38.475187694561434 38.93664164072514 39.367331990477936 39.85954953305256 40.6286394433254 41.3054385643655 41.82841970335103 42.53598242080205 43.028199963376665 43.73576268082768 44.32027101263505 44.72019776597693 45.30470609778429 45.85845083318073 46.28914118293353 46.84288591832997 47.18128547885003 47.70426661783556 48.104193371177445 48.59641091375206 48.93481047427211 49.673136788134045 50.07306354147592 50.62680827687237 50.995971433803334 51.61124336202161 52.44186046511628 52.56491485075993 53.33400476103277 53.79545870719648 54.379967039003844 55.026002563633035 55.48745650979674 56.195019227247755 57.14869071598608 57.4255630836843 58.163889397546235 58.71763413294268 59.45596044680461 60.1019959714338 60.87108588170665 61.48635780992492 62.16315693096502 62.50155649148507 63.055301226881525 63.516755173045226 64.37813587255081 64.99340780076909 65.48562534334371 66.1316608679729 66.77769639260208 67.2391503387658 67.91594945980589 68.40816700238051 69.11572971983153 69.82329243728255 70.34627357626809 71.08459989013001 72.06903497527925 72.65354330708661 72.99194286760667 73.45339681377037 74.06866874198865 74.653177073796 75.11463101995972 76.03753891228712 76.71433803332724 76.92968320820361 77.48342794360008 78.06793627540742 78.59091741439296 79.0831349569676 79.39077092107672 79.88298846365134 80.37520600622597 80.8981871452115 81.26735030214246 81.63651345907343 82.19025819446988 82.71323933345542 83.05163889397545 83.48232924372826 83.97454678630287 84.282182750412 84.77440029298663 85.08203625709577 85.60501739608131 86.2818165171214 86.65097967405237 86.9586156381615 87.45083318073613 87.94305072331073 88.31221388024171 88.80443142281632 89.29664896539094 89.85039370078741 90.25032045412928 90.71177440029297 91.11170115363487 91.51162790697674 91.97308185314044 92.31148141366049 92.71140816700239 93.08057132393334 93.35744369163156 93.78813404138435 94.06500640908259 94.28035158395897 94.61875114447903 94.80333272294452 95.08020509064274 95.38784105475187 95.48013184398462 95.60318622962828 95.63394982603918 95.69547701886101 95.69547701886101 95.69547701886101 95.69547701886101 95.69547701886101 95.69547701886101 95.6647134224501 95.6647134224501 95.63394982603918 95.57242263321736 95.54165903680645 95.48013184398462 95.4186046511628 95.35707745834097 95.26478666910822 95.23402307269731 95.20325947628639 95.17249587987548 95.17249587987548 95.14173228346456 95.14173228346456 95.14173228346456 95.14173228346456 95.14173228346456 95.14173228346456 95.14173228346456 95.14173228346456 95.14173228346456 95.14173228346456 95.14173228346456 95.14173228346456 95.14173228346456 95.14173228346456 95.14173228346456 95.14173228346456 95.14173228346456 95.14173228346456 95.14173228346456 95.14173228346456 95.14173228346456 95.11096868705366 95.08020509064274 95.08020509064274 95.08020509064274 95.08020509064274 95.08020509064274 95.08020509064274 95.08020509064274 95.04944149423183 95.08020509064274 95.08020509064274 95.08020509064274 95.04944149423183 95.08020509064274 95.04944149423183 95.08020509064274 95.04944149423183 95.04944149423183 95.04944149423183 95.04944149423183 95.04944149423183 95.04944149423183 95.01867789782091 94.98791430141 94.92638710858817 94.86485991576635 94.83409631935542 94.80333272294452 94.7725691265336 94.74180553012269 94.71104193371177 94.71104193371177 94.68027833730086 94.64951474088994 94.64951474088994 94.58798754806811 94.61875114447903 94.61875114447903 94.58798754806811 94.58798754806811 94.58798754806811 94.58798754806811 94.58798754806811 94.58798754806811 94.58798754806811 94.58798754806811 94.58798754806811 94.58798754806811 94.58798754806811 94.58798754806811 94.5572239516572 94.5572239516572 94.5572239516572 94.52646035524629 94.52646035524629 94.52646035524629 94.52646035524629 94.46493316242446 94.46493316242446 94.43416956601355 94.43416956601355 94.43416956601355 94.43416956601355 94.43416956601355 94.43416956601355 94.43416956601355 94.43416956601355 94.43416956601355 94.43416956601355 94.43416956601355 94.43416956601355 94.43416956601355 94.43416956601355 94.43416956601355 94.43416956601355 94.46493316242446 94.43416956601355 94.43416956601355 94.43416956601355 94.43416956601355 94.43416956601355 94.43416956601355 94.43416956601355 94.43416956601355 94.46493316242446 94.43416956601355 94.43416956601355 94.43416956601355 94.43416956601355 94.43416956601355 94.43416956601355 94.46493316242446 94.46493316242446 94.43416956601355 94.43416956601355 94.43416956601355 94.46493316242446 94.46493316242446 94.43416956601355 94.43416956601355 94.43416956601355 94.43416956601355 94.46493316242446 94.46493316242446 94.43416956601355 94.43416956601355 94.46493316242446 94.43416956601355 94.43416956601355 94.43416956601355 94.43416956601355 94.43416956601355 94.40340596960263 94.37264237319172 94.37264237319172 94.37264237319172 94.37264237319172 94.37264237319172 94.37264237319172 94.37264237319172 94.3418787767808 94.3418787767808 94.3418787767808 94.3418787767808 94.3418787767808 94.3418787767808 94.3418787767808 94.3418787767808 94.3418787767808 94.3418787767808 94.3418787767808 94.3418787767808 94.3111151803699 94.28035158395897 94.28035158395897 94.24958798754807 94.18806079472624 94.15729719831532 94.15729719831532 94.09577000549349 94.09577000549349 94.06500640908259 94.06500640908259 94.03424281267166 94.00347921626076 93.97271561984984 93.94195202343893 93.91118842702802 93.84966123420618 93.81889763779527 93.75737044497345 93.72660684856253 93.6650796557407 93.63431605932979 93.57278886650798 93.57278886650798 93.54202527009704 93.54202527009704 93.51126167368614 93.51126167368614 93.48049807727523 93.48049807727523 93.44973448086432 93.41897088445339 93.38820728804248 93.38820728804248 93.38820728804248 93.38820728804248 93.38820728804248 93.38820728804248 93.38820728804248 93.38820728804248 93.41897088445339 93.41897088445339 93.41897088445339 93.41897088445339 93.41897088445339 93.41897088445339 93.44973448086432 93.44973448086432 93.44973448086432 93.44973448086432 93.44973448086432 93.44973448086432 93.44973448086432 93.44973448086432 93.44973448086432 93.44973448086432 93.48049807727523 93.44973448086432 93.44973448086432 93.48049807727523 93.48049807727523 93.48049807727523 93.51126167368614 93.51126167368614 93.51126167368614 93.51126167368614 93.51126167368614 93.51126167368614 93.51126167368614 93.51126167368614 93.51126167368614 93.51126167368614 93.51126167368614 93.48049807727523 93.48049807727523 93.48049807727523 93.44973448086432 93.41897088445339 93.29591649880975 93.2343893059879 93.14209851675518 93.08057132393334 93.04980772752243 92.92675334187877 92.86522614905695 92.80369895623511 92.68064457059145 92.61911737776964 92.46529939571508 92.31148141366049 92.18842702801683 92.00384544955136 91.75773667826405 91.57315509979856 91.29628273210034 90.98864676799121 90.5579564182384 90.3118476469511 90.03497527925288 89.60428492950008 88.98901300128182 88.58908624793993 88.25068668741989 87.88152353048892 87.35854239150339 86.80479765610693 86.3125801135323 85.8203625709577 85.42043581761581 84.86669108221938 84.282182750412 83.85149240065923 83.32851126167368 82.74400292986633 82.34407617652444 81.79033144112799 81.1442959164988 80.77513275956784 79.97527925288409 79.5753524995422 79.17542574620032 78.40633583592748 78.0064090825856 77.60648232924373 77.08350119025819 76.56052005127265 76.06830250869804 75.729902948178 75.29921259842519 74.8685222486724 74.49935909174144 73.94561435634498 73.7610327778795 73.23805163889398 72.71507049990844 72.31514374656656 71.69987181834829 71.23841787218458 70.96154550448635 70.50009155832265 70.13092840139169 69.57718366599524 68.8080937557224 68.43893059879143 67.88518586339498 67.33144112799853 66.90075077824574 66.40853323567111 65.76249771104193 65.0549349935909 64.43966306537264 63.94744552279802 63.20911920893609 62.47079289507416 61.609412195568574 61.14795824940487 60.62497711041934 59.886650796557404 59.117560886284565 58.59457974729903 57.917780626258924 56.964109137520595 56.41036440212415 55.91814685954953 55.425929316974916 54.65683940670207 53.980040285661964 53.24171397180004 52.59567844717085 52.16498809741805 51.51895257278886 51.11902581944699 50.56528108405054 49.91924555942135 49.365500824024906 48.93481047427211 48.28877494964292 47.85808459989013 47.27357626808276 46.68906793627541 46.31990477934444 45.735396447537084 45.21241530855154 44.81248855520967 44.35103460904596 43.981871452114994 43.33583592748581 42.99743636696576 42.62827321003479 42.197582860282 41.67460172129647 41.36696575718733 40.72093023255814 40.38253067203809 39.890313129463465 39.5211499725325 38.99816883354697 38.321369712506865 37.98297015198681 37.58304339864493 36.87548068119392 36.506317524262954 36.13715436733199 35.64493682475737 35.429591649880976 35.15271928218275 34.87584691448453 34.5989745467863 33.983702618568024 33.7068302508698 33.42995788317158 33.09155832265153 32.87621314777513 32.44552279802234 32.04559604468046 31.891778062625892 31.737960080571323 31.70719648416041 31.676432887749495 31.676432887749495 31.584142098516754 31.430324116462188 31.307269730818533 31.27650613440762 31.184215345174877 31.12268815235305 31.030397363120308 30.938106573887566 30.87657938106574 30.753524995422083 30.72276139901117 30.599707013367514 30.445889031312948 30.353598242080206 30.261307452847465 30.23054385643655 30.199780260025637 30.13825306720381 30.107489470792896 30.045962277971068 30.015198681560154 30.015198681560154 29.98443508514924 29.953671488738326 29.922907892327412 29.861380699505585 29.799853506683757 29.73832631386193 29.707562717451015 29.6767991210401 29.6767991210401 29.6767991210401 29.6767991210401 29.6767991210401 29.6767991210401 29.6767991210401 29.6767991210401 29.6767991210401 29.6767991210401 29.6767991210401 29.6767991210401 29.6767991210401 29.646035524629188 29.646035524629188 29.646035524629188 29.646035524629188 29.646035524629188 29.646035524629188 29.646035524629188 29.646035524629188 29.646035524629188 29.646035524629188 29.646035524629188 29.646035524629188 29.646035524629188 29.646035524629188 29.646035524629188 29.646035524629188 29.646035524629188 29.646035524629188 29.646035524629188 29.646035524629188 29.646035524629188 29.615271928218274 29.646035524629188 29.646035524629188 29.615271928218274 29.615271928218274 29.615271928218274 29.615271928218274 29.615271928218274 29.615271928218274 29.615271928218274 29.615271928218274 29.615271928218274 29.615271928218274 29.615271928218274 29.615271928218274 29.615271928218274 29.615271928218274 29.615271928218274 29.615271928218274 29.615271928218274 29.615271928218274 29.615271928218274 29.615271928218274 29.615271928218274 29.615271928218274 29.615271928218274 29.615271928218274 29.58450833180736 29.58450833180736 29.615271928218274 29.615271928218274 29.615271928218274 29.58450833180736 29.58450833180736 29.615271928218274 29.615271928218274 29.58450833180736 29.615271928218274 29.58450833180736 29.58450833180736 29.58450833180736 29.58450833180736 29.58450833180736 29.615271928218274 29.615271928218274 29.58450833180736 29.58450833180736 29.58450833180736 29.58450833180736 29.615271928218274 29.58450833180736 29.615271928218274 29.58450833180736 29.615271928218274 29.58450833180736 29.58450833180736 29.58450833180736 29.58450833180736 29.58450833180736 29.58450833180736 29.58450833180736 29.615271928218274 29.58450833180736 29.58450833180736 29.615271928218274 29.615271928218274 29.615271928218274 29.615271928218274 29.58450833180736 29.615271928218274 29.58450833180736 29.58450833180736 29.58450833180736 29.615271928218274 29.58450833180736 29.58450833180736 29.615271928218274 29.58450833180736 29.615271928218274 29.58450833180736 29.58450833180736 29.58450833180736 29.58450833180736 29.58450833180736 29.58450833180736 29.58450833180736 29.58450833180736 29.58450833180736 29.58450833180736 29.58450833180736 29.58450833180736 29.58450833180736 29.58450833180736 29.58450833180736 29.58450833180736 29.58450833180736 29.58450833180736 29.58450833180736 29.58450833180736 29.58450833180736 29.58450833180736 29.58450833180736 29.58450833180736 29.58450833180736 29.58450833180736 29.58450833180736 29.58450833180736 29.58450833180736 29.553744735396446 29.58450833180736 29.58450833180736 29.553744735396446 29.58450833180736 29.58450833180736 29.58450833180736 29.58450833180736 29.58450833180736 29.553744735396446 29.58450833180736 29.58450833180736 29.58450833180736 29.58450833180736 29.58450833180736 29.58450833180736 29.58450833180736 29.58450833180736 29.58450833180736 29.58450833180736 29.58450833180736 29.58450833180736 29.58450833180736 29.58450833180736 29.58450833180736 29.553744735396446 29.553744735396446 29.553744735396446 29.553744735396446 29.553744735396446 29.553744735396446 29.553744735396446 29.553744735396446 29.553744735396446 29.553744735396446 29.553744735396446 29.553744735396446 29.553744735396446 29.553744735396446 29.553744735396446 29.553744735396446 29.553744735396446 29.553744735396446 29.553744735396446 29.553744735396446 29.553744735396446 29.553744735396446 29.553744735396446 29.553744735396446 29.553744735396446 29.553744735396446 29.553744735396446 29.553744735396446 29.553744735396446 29.553744735396446 29.553744735396446 29.553744735396446 29.553744735396446 29.553744735396446 29.553744735396446 29.553744735396446 29.553744735396446 29.553744735396446 29.553744735396446 29.553744735396446 29.553744735396446 29.553744735396446 29.553744735396446 29.553744735396446 29.553744735396446 29.553744735396446 29.553744735396446 29.553744735396446 29.553744735396446 29.553744735396446 29.553744735396446 29.553744735396446 29.553744735396446 29.553744735396446 29.553744735396446 29.553744735396446 29.553744735396446 29.58450833180736 29.58450833180736 29.58450833180736 29.58450833180736 29.58450833180736 29.615271928218274 29.615271928218274 29.615271928218274 29.646035524629188 29.646035524629188 29.6767991210401 29.6767991210401 29.707562717451015 29.73832631386193 29.799853506683757 29.799853506683757 29.83061710309467 29.922907892327412 29.953671488738326 30.107489470792896 30.199780260025637 30.322834645669293 30.47665262772386 30.599707013367514 30.691997802600255 30.784288591832997 30.907342977476652 31.153451748763963 31.27650613440762 31.522614905694926 31.70719648416041 31.79948727339315 31.984068851858634 32.107123237502286 32.29170481596777 32.47628639443325 32.59934078007691 32.906976744186046 33.12232191906244 33.214612708295185 33.42995788317158 33.64530305804798 33.95293902215711 34.10675700421168 34.26057498626625 34.475920161142646 34.72202893242996 34.96813770371727 35.36806445705915 35.67570042116829 36.198681560153815 36.752426295550265 37.12158945248123 37.767624977110415 38.35213330891778 38.81358725508149 39.49038637612159 39.95184032228529 40.690166636147225 41.67460172129647 42.197582860282 42.99743636696576 43.33583592748581 44.35103460904596 44.90477934444241 45.76616004394799 46.62754074345358 47.48892144295917 48.13495696758835 48.9040468778612 49.48855520966856 50.288408716352315 51.05749862662516 51.54971616919978 52.22651529023988 52.87255081486907 53.24171397180004 54.0415674784838 54.44149423182567 55.026002563633035 55.48745650979674 55.91814685954953 56.47189159494598 57.36403589086248 57.82548983702618 58.47152536165537 58.90221571140816 59.54825123603735 59.94817798937923 60.378868339132026 61.240249038637614 61.947811756088626 62.44002929866325 63.024537630470604 63.48599157663431 64.31660867972897 64.65500824024903 65.02417139718 65.63944332539828 66.28547885002746 66.71616919978025 67.33144112799853 67.97747665262773 68.56198498443507 69.02343893059879 69.45412928035158 69.97711041933712 70.56161875114448 71.17689067936274 71.76139901117011 72.16132576451199 72.74583409631936 73.17652444607214 73.69950558505768 74.25325032045413 74.80699505585056 75.26844900201428 75.7606665445889 76.16059329793077 76.71433803332724 77.42190075077824 77.66800952206555 78.09869987181834 78.4370994323384 78.92931697491301 79.36000732466582 79.66764328877494 80.25215162058231 80.65207837392418 80.8981871452115 81.20582310932063 81.6057498626625 82.0056766160044 82.40560336934627 82.71323933345542 83.08240249038637 83.48232924372826 83.75920161142648 84.12836476835744 84.37447353964475 84.74363669657572 85.05127266068484 85.23585423915033 85.51272660684856 85.75883537813587 85.94341695660134 86.12799853506684 86.2818165171214 86.46639809558688 86.74327046328511 86.86632484892877 86.98937923457241 87.23548800585974 87.32777879509247 87.48159677714705 87.66617835561252 87.78923274125617 87.91228712689983 88.00457791613258 88.09686870536532 88.18915949459806 88.2814502838308 88.34297747665262 88.37374107306354 88.40450466947445 88.43526826588536 88.43526826588536 88.43526826588536 88.43526826588536 88.43526826588536 88.43526826588536 88.46603186229628 88.46603186229628 88.43526826588536 88.46603186229628 88.46603186229628 88.46603186229628 88.46603186229628 88.46603186229628 88.46603186229628 88.46603186229628 88.43526826588536 88.43526826588536 88.43526826588536 88.43526826588536 88.40450466947445 88.40450466947445 88.40450466947445 88.34297747665262 88.31221388024171 88.2814502838308 88.25068668741989 88.25068668741989 88.25068668741989 88.21992309100898 88.21992309100898 88.21992309100898 88.25068668741989 88.25068668741989 88.25068668741989 88.25068668741989 88.25068668741989 88.25068668741989 88.25068668741989 88.25068668741989 88.25068668741989 88.25068668741989 88.25068668741989 88.25068668741989 88.25068668741989 88.25068668741989 88.25068668741989 88.25068668741989 88.25068668741989 88.25068668741989 88.25068668741989 88.25068668741989 88.25068668741989 88.25068668741989 88.25068668741989 88.25068668741989 88.25068668741989 88.25068668741989 88.25068668741989 88.25068668741989 88.25068668741989 88.25068668741989 88.25068668741989 88.25068668741989 88.25068668741989 88.25068668741989 88.25068668741989 88.25068668741989 88.25068668741989 88.25068668741989 88.25068668741989 88.2814502838308 88.2814502838308 88.2814502838308 88.2814502838308 88.2814502838308 88.2814502838308 88.2814502838308 88.25068668741989 88.25068668741989 88.2814502838308 88.25068668741989 88.25068668741989 88.25068668741989 88.25068668741989 88.25068668741989 88.25068668741989 88.25068668741989 88.25068668741989 88.25068668741989 88.2814502838308 88.25068668741989 88.25068668741989 88.25068668741989 88.2814502838308 88.25068668741989 88.2814502838308 88.25068668741989 88.25068668741989 88.2814502838308 88.2814502838308 88.2814502838308 88.2814502838308 88.2814502838308 88.2814502838308 88.25068668741989 88.2814502838308 88.2814502838308 88.2814502838308 88.25068668741989 88.2814502838308 88.25068668741989 88.2814502838308 88.2814502838308 88.2814502838308 88.2814502838308 88.25068668741989 88.2814502838308 88.25068668741989 88.2814502838308 88.25068668741989 88.2814502838308 88.2814502838308 88.25068668741989 88.2814502838308 88.25068668741989 88.2814502838308 88.2814502838308 88.2814502838308 88.25068668741989 88.2814502838308 88.25068668741989 88.2814502838308 88.25068668741989 88.2814502838308 88.2814502838308 88.2814502838308 88.2814502838308 88.2814502838308 88.2814502838308 88.2814502838308 88.2814502838308 88.25068668741989 88.2814502838308 88.2814502838308 88.2814502838308 88.2814502838308 88.2814502838308 88.2814502838308 88.25068668741989 88.2814502838308 88.2814502838308 88.2814502838308 88.2814502838308 88.2814502838308 88.2814502838308 88.2814502838308 88.2814502838308 88.2814502838308 88.2814502838308 88.25068668741989 88.2814502838308 88.2814502838308 88.25068668741989 88.25068668741989 88.25068668741989 88.2814502838308 88.25068668741989 88.2814502838308 88.25068668741989 88.25068668741989 88.2814502838308 88.2814502838308 88.2814502838308 88.25068668741989 88.25068668741989 88.25068668741989 88.25068668741989 88.25068668741989 88.25068668741989 88.25068668741989 88.25068668741989 88.21992309100898 88.21992309100898 88.18915949459806 88.15839589818714 88.15839589818714 88.15839589818714 88.12763230177623 88.15839589818714 88.12763230177623 88.12763230177623 88.12763230177623 88.12763230177623 88.09686870536532 88.12763230177623 88.12763230177623 88.12763230177623 88.12763230177623 88.12763230177623 88.12763230177623 88.12763230177623 88.12763230177623 88.12763230177623 88.12763230177623 88.12763230177623 88.12763230177623 88.03534151254348 88.00457791613258 87.88152353048892 87.78923274125617 87.69694195202344 87.57388756637978 87.51236037355795 87.45083318073613 87.3893059879143 87.35854239150339 87.32777879509247 87.29701519868155 87.26625160227064 87.26625160227064 87.26625160227064 87.26625160227064 87.29701519868155 87.29701519868155 87.29701519868155 87.32777879509247 87.32777879509247 87.32777879509247 87.35854239150339 87.35854239150339 87.35854239150339 87.35854239150339 87.3893059879143 87.35854239150339 87.3893059879143 87.3893059879143 87.3893059879143 87.3893059879143 87.3893059879143 87.4200695843252 87.4200695843252 87.4200695843252 87.45083318073613 87.45083318073613 87.45083318073613 87.45083318073613 87.45083318073613 87.45083318073613 87.48159677714705 87.48159677714705 87.51236037355795 87.51236037355795 87.51236037355795 87.51236037355795 87.51236037355795 87.51236037355795 87.51236037355795 87.51236037355795 87.51236037355795 87.51236037355795 87.51236037355795 87.51236037355795 87.51236037355795 87.54312396996886 87.51236037355795 87.51236037355795 87.51236037355795 87.54312396996886 87.51236037355795 87.51236037355795 87.51236037355795 87.51236037355795 87.51236037355795 87.51236037355795 87.51236037355795 87.51236037355795 87.51236037355795 87.51236037355795 87.51236037355795 87.51236037355795 87.48159677714705 87.4200695843252 87.1739608130379 86.9586156381615 86.77403405969602 86.58945248123054 86.22028932429959 85.88188976377953 85.66654458890312 85.23585423915033 84.89745467863028 84.49752792528841 84.2514191540011 83.88225599707013 83.60538362937191 83.32851126167368 82.95934810474272 82.71323933345542 82.37483977293536 82.06720380882622 81.85185863394983 81.42116828419702 81.23658670573155 81.02124153085515 80.65207837392418 80.37520600622597 79.94451565647316 79.36000732466582 79.02160776414576 78.56015381798206 78.19099066105107 77.72953671488739 77.36037355795642 76.8681560153818 76.34517487639626 75.88372093023256 75.5453213697125 75.05310382713789 74.653177073796 74.09943233839957 73.7610327778795 73.45339681377037 72.99194286760667 72.65354330708661 72.16132576451199 71.45376304706097 71.02307269730818 70.4078007690899 69.82329243728255 69.39260208752975 68.93114814136604 68.3466398095587 67.7006042849295 67.14685954953305 66.71616919978025 66.1316608679729 65.51638893975462 64.83958981871451 64.40889946896172 63.916681926387106 63.17835561252517 62.31697491301959 61.547885002746746 60.686504303241165 59.425196850393704 58.779161325764505 58.1023622047244 57.456326680095216 56.62570957700055 55.76432887749496 54.933711774400294 54.16462186412745 53.3955319538546 52.718732832814496 52.16498809741805 51.488188976377955 50.74986266251602 50.07306354147592 49.580845998901296 48.9040468778612 48.28877494964292 47.85808459989013 47.24281267167186 46.81212232191906 46.2276139901117 45.70463285112616 45.24317890496246 44.75096136238784 44.19721662699139 43.581944698773114 43.18201794543124 42.812854788500275 42.22834645669291 41.490020142830986 40.87474821461271 40.136421900750776 39.49038637612159 38.99816883354697 38.38289690532869 37.9522065555759 37.36769822376854 36.81395348837209 36.29097234938656 35.79875480681194 35.46035524629189 35.12195568577184 34.90661051089544 34.75279252884087 34.50668375755356 34.35286577549899 34.229811389855335 34.075993407800766 33.95293902215711 33.7068302508698 33.58377586522615 33.42995788317158 33.214612708295185 32.906976744186046 32.69163156930965 32.38399560520051 32.19941402673503 31.95330525544772 31.79948727339315 31.64566929133858 31.491851309284012 31.36879692364036 31.307269730818533 31.245742537996705 31.184215345174877 31.091924555942136 30.999633766709394 30.938106573887566 30.784288591832997 30.630470609778428 30.507416224134772 30.353598242080206 30.29207104925838 30.169016663614723 30.13825306720381 30.07672587438198 29.98443508514924 29.922907892327412 29.8921442959165 29.83061710309467 29.769089910272843 29.6767991210401 29.646035524629188 29.615271928218274 29.58450833180736 29.553744735396446 29.522981138985532 29.522981138985532 29.522981138985532 29.522981138985532 29.522981138985532 29.49221754257462 29.49221754257462 29.49221754257462 29.49221754257462 29.461453946163708 29.430690349752794 29.430690349752794 29.430690349752794 29.430690349752794 29.430690349752794 29.430690349752794 29.430690349752794 29.430690349752794 29.430690349752794 29.430690349752794 29.430690349752794 29.430690349752794 29.430690349752794 29.430690349752794 29.39992675334188 29.39992675334188 29.39992675334188 29.430690349752794 29.39992675334188 29.39992675334188 29.430690349752794 29.39992675334188 29.39992675334188 29.39992675334188 29.39992675334188 29.39992675334188 29.369163156930966 29.39992675334188 29.369163156930966 29.39992675334188 29.369163156930966 29.369163156930966 29.39992675334188 29.369163156930966 29.369163156930966 29.369163156930966 29.369163156930966 29.369163156930966 29.369163156930966 29.369163156930966 29.369163156930966 29.369163156930966 29.369163156930966 29.369163156930966 29.369163156930966 29.369163156930966 29.369163156930966 29.369163156930966 29.369163156930966 29.369163156930966 29.369163156930966 29.369163156930966 29.369163156930966 29.369163156930966 29.369163156930966 29.369163156930966 29.369163156930966 29.369163156930966 29.369163156930966 29.369163156930966 29.369163156930966 29.369163156930966 29.369163156930966 29.369163156930966 29.369163156930966 29.369163156930966 29.369163156930966 29.369163156930966 29.369163156930966 29.369163156930966 29.369163156930966 29.369163156930966 29.369163156930966 29.369163156930966 29.369163156930966 29.369163156930966 29.369163156930966 29.369163156930966 29.369163156930966 29.369163156930966 29.369163156930966 29.369163156930966 29.369163156930966 29.369163156930966 29.369163156930966 29.369163156930966 29.369163156930966 29.369163156930966 29.369163156930966 29.369163156930966 29.369163156930966 29.369163156930966 29.369163156930966 29.369163156930966 29.369163156930966 29.369163156930966 29.369163156930966 29.369163156930966 29.369163156930966 29.369163156930966 29.369163156930966 29.369163156930966 29.369163156930966 29.369163156930966 29.369163156930966 29.369163156930966 29.369163156930966 29.369163156930966 29.369163156930966 29.369163156930966 29.369163156930966 29.369163156930966 29.369163156930966 29.369163156930966 29.369163156930966 29.369163156930966 29.369163156930966 29.369163156930966 29.369163156930966 29.369163156930966 29.369163156930966 29.369163156930966 29.369163156930966 29.369163156930966 29.369163156930966 29.369163156930966 29.369163156930966 29.369163156930966 29.369163156930966 29.369163156930966 29.369163156930966 29.369163156930966 29.369163156930966 29.369163156930966 29.369163156930966 29.369163156930966 29.369163156930966 29.369163156930966 29.369163156930966 29.369163156930966 29.369163156930966 29.369163156930966 29.369163156930966 29.369163156930966 29.369163156930966 29.369163156930966 29.369163156930966 29.369163156930966 29.369163156930966 29.369163156930966 29.369163156930966 29.369163156930966 29.369163156930966 29.369163156930966 29.369163156930966 29.369163156930966 29.369163156930966 29.369163156930966 29.369163156930966 29.369163156930966 29.369163156930966 29.369163156930966 29.369163156930966 29.369163156930966 29.369163156930966 29.369163156930966 29.369163156930966 29.369163156930966 29.369163156930966 29.369163156930966 29.369163156930966 29.369163156930966 29.369163156930966 29.369163156930966 29.369163156930966 29.369163156930966 29.369163156930966 29.39992675334188 29.39992675334188 29.39992675334188 29.39992675334188 29.39992675334188 29.39992675334188 29.430690349752794 29.430690349752794 29.430690349752794 29.461453946163708 29.461453946163708 29.461453946163708 29.49221754257462 29.49221754257462 29.49221754257462 29.49221754257462 29.522981138985532 29.522981138985532 29.553744735396446 29.58450833180736 29.58450833180736 29.615271928218274 29.615271928218274 29.646035524629188 29.646035524629188 29.6767991210401 29.707562717451015 29.769089910272843 29.799853506683757 29.83061710309467 29.861380699505585 29.8921442959165 29.953671488738326 30.015198681560154 30.13825306720381 30.261307452847465 30.507416224134772 30.630470609778428 30.72276139901117 30.87657938106574 31.12268815235305 31.338033327229446 31.55337850210584 31.676432887749495 31.79948727339315 31.984068851858634 32.07635964109137 32.29170481596777 32.507049990844166 32.72239516572056 32.99926753341879 33.214612708295185 33.829884636513455 33.95293902215711 34.16828419703351 34.69126533601904 35.36806445705915 35.79875480681194 36.198681560153815 36.62937190990661 37.09082585607032 37.552279802234025 38.13678813404138 38.721296465848745 39.30580479765611 39.76725874381981 40.413294268449 40.90551181102362 41.64383812488555 42.62827321003479 42.905145577733016 43.70499908441677 44.227980223402305 44.935542940853324 45.76616004394799 46.196850393700785 47.08899468961728 47.73503021424648 47.98113898553378 48.59641091375206 49.21168284197033 49.82695477018861 50.442226698406884 50.903680644570585 51.58047976561069 52.22651529023988 52.718732832814496 53.3955319538546 53.918513092840136 54.59531221388024 55.30287493133125 55.88738326313862 56.81029115546603 57.61014466214979 58.22541659036806 59.17908807910639 59.82512360373558 60.778795092473906 62.009338948910454 62.77842885918329 63.578282365867054 64.43966306537264 64.80882622230361 65.60867972898737 66.43929683208202 67.2391503387658 68.03900384544954 68.56198498443507 69.33107489470792 70.377037172679 70.86925471525362 71.45376304706097 72.03827137886833 72.6227797106757 73.57645119941402 74.06866874198865 74.653177073796 75.26844900201428 75.69913935176706 76.31441127998534 76.71433803332724 77.11426478666911 77.91411829335286 78.4370994323384 78.8985533785021 79.48306171030947 79.88298846365134 80.2213880241714 80.80589635597875 81.29811389855337 81.8210950375389 82.19025819446988 82.62094854422267 82.92858450833181 83.48232924372826 83.88225599707013 84.18989196117926 84.58981871452116 85.05127266068484 85.3896722212049 85.8203625709577 86.22028932429959 86.62021607764146 86.83556125251785 87.11243362021608 87.45083318073613 87.850759934078 88.21992309100898 88.55832265152901 88.80443142281632 89.17359457974729 89.38893975462369 89.72733931514375 90.03497527925288 90.43490203259475 90.71177440029297 91.01941036440212 91.17322834645668 91.4501007141549 91.69620948544222 91.91155466031861 92.06537264237318 92.24995422083867 92.37300860648233 92.55759018494781 92.7421717634133 92.98828053470059 93.17286211316609 93.32668009522065 93.48049807727523 93.72660684856253 93.84966123420618 94.06500640908259 94.15729719831532 94.28035158395897 94.3418787767808 94.3418787767808 94.37264237319172 94.37264237319172 94.37264237319172 94.40340596960263 94.37264237319172 94.37264237319172 94.37264237319172 94.40340596960263 94.37264237319172 94.40340596960263 94.40340596960263 94.40340596960263 94.40340596960263 94.40340596960263 94.40340596960263 94.40340596960263 94.40340596960263 94.40340596960263 94.40340596960263 94.40340596960263 94.40340596960263 94.40340596960263 94.40340596960263 94.37264237319172 94.37264237319172 94.3418787767808 94.3111151803699 94.24958798754807 94.15729719831532 94.00347921626076 93.97271561984984 93.88042483061712 93.81889763779527 93.78813404138435 93.78813404138435 93.78813404138435 93.75737044497345 93.75737044497345 93.75737044497345 93.75737044497345 93.75737044497345 93.75737044497345 93.75737044497345 93.75737044497345 93.75737044497345 93.78813404138435 93.75737044497345 93.75737044497345 93.75737044497345 93.75737044497345 93.78813404138435 93.75737044497345 93.75737044497345 93.75737044497345 93.75737044497345 93.75737044497345 93.75737044497345 93.75737044497345 93.75737044497345 93.75737044497345 93.75737044497345 93.78813404138435 93.75737044497345 93.75737044497345 93.75737044497345 93.75737044497345 93.72660684856253 93.69584325215162 93.69584325215162 93.6650796557407 93.6650796557407 93.6650796557407 93.6650796557407 93.6650796557407 93.6650796557407 93.6650796557407 93.6650796557407 93.6650796557407 93.6650796557407 93.6650796557407 93.60355246291888 93.48049807727523 93.38820728804248 93.29591649880975 93.17286211316609 93.08057132393334 92.98828053470059 92.92675334187877 92.89598974546786 92.86522614905695 92.83446255264604 92.83446255264604 92.83446255264604 92.83446255264604 92.83446255264604 92.83446255264604 92.83446255264604 92.83446255264604 92.83446255264604 92.83446255264604 92.83446255264604 92.83446255264604 92.83446255264604 92.83446255264604 92.83446255264604 92.83446255264604 92.83446255264604 92.83446255264604 92.83446255264604 92.83446255264604 92.83446255264604 92.83446255264604 92.80369895623511 92.7729353598242 92.68064457059145 92.61911737776964 92.55759018494781 92.5268265885369 92.46529939571508 92.37300860648233 92.28071781724958 92.24995422083867 92.18842702801683 92.18842702801683 92.15766343160593 92.12689983519502 92.12689983519502 92.12689983519502 92.09613623878411 92.09613623878411 92.12689983519502 92.12689983519502 92.12689983519502 92.12689983519502 92.12689983519502 92.12689983519502 92.12689983519502 92.12689983519502 92.06537264237318 92.03460904596227 91.97308185314044 91.88079106390771 91.78850027467496 91.51162790697674 91.29628273210034 91.14246475004578 90.98864676799121 90.86559238234756 90.68101080388206 90.34261124336201 90.12726606848562 89.88115729719831 89.69657571873282 89.60428492950008 89.35817615821279 89.17359457974729 88.7429042299945 88.43526826588536 88.15839589818714 87.88152353048892 87.54312396996886 87.29701519868155 86.86632484892877 86.74327046328511 86.43563449917598 86.12799853506684 85.94341695660134 85.66654458890312 85.29738143197216 85.08203625709577 84.92821827504119 84.74363669657572 84.58981871452116 84.40523713605566 84.282182750412 84.12836476835744 84.00531038271379 83.94378318989196 83.8207288042483 83.75920161142648 83.66691082219373 83.60538362937191 83.54385643655007 83.51309284013917 83.51309284013917 83.48232924372826 83.48232924372826 83.45156564731735 83.45156564731735 83.48232924372826 83.48232924372826 83.51309284013917 83.54385643655007 83.54385643655007 83.57462003296098 83.57462003296098 83.60538362937191 83.60538362937191 83.60538362937191 83.60538362937191 83.57462003296098 83.45156564731735 83.32851126167368 83.11316608679729 82.86705731550998 82.55942135140083 82.28254898370261 81.97491301959349 81.69804065189524 81.32887749496429 80.86742354880059 80.4674967954587 80.06757004211681 79.5753524995422 79.23695293902216 78.52939022157113 78.31404504669473 77.7910639077092 77.29884636513458 76.8989196117927 76.1913568943417 75.66837575535615 75.26844900201428 74.74546786302875 74.31477751327596 73.7302691814686 73.29957883171579 72.53048892144295 71.85368980040286 71.08459989013001 70.50009155832265 69.82329243728255 69.2695477018861 68.43893059879143 67.76213147775132 67.14685954953305 66.50082402490386 65.82402490386376 65.33180736128914 64.40889946896172 63.916681926387106 63.27064640175792 62.716901666361466 62.13239333455411 61.51712140633583 60.34810474272111 59.70206921809192 58.779161325764505 58.13312580113532 57.33327229445156 56.53341878776781 56.01043764878227 55.30287493133125 54.56454861746933 54.01080388207288 53.580113532320084 53.18018677897821 52.44186046511628 51.826588536898 51.58047976561069 50.934444240981506 50.442226698406884 49.76542757736678 49.05786485991577 48.35030214246475 47.67350302142465 46.93517670756272 46.504486357809924 45.70463285112616 45.48928767624977 44.56637978392236 43.88958066288225 43.39736312030763 42.72056399926753 42.105292071049256 41.67460172129647 41.05932979307819 40.597875846914484 39.982603918696206 39.428859183299764 39.028932429957884 38.44442409815052 37.64457059146676 37.36769822376854 36.752426295550265 36.26020875297564 35.36806445705915 34.99890130012818 34.537447353964474 34.16828419703351 33.860648232924376 33.7068302508698 33.522248672404324 33.30690349752793 33.09155832265153 32.814685954953305 32.63010437648782 32.38399560520051 32.1378868339132 31.95330525544772 31.737960080571323 31.614905694927668 31.491851309284012 31.338033327229446 31.27650613440762 31.184215345174877 31.12268815235305 31.030397363120308 30.999633766709394 30.938106573887566 30.845815784654825 30.784288591832997 30.753524995422083 30.691997802600255 30.599707013367514 30.538179820545686 30.445889031312948 30.38436183849112 30.261307452847465 30.169016663614723 30.13825306720381 30.07672587438198 30.015198681560154 29.953671488738326 29.922907892327412 29.861380699505585 29.83061710309467 29.799853506683757 29.769089910272843 29.769089910272843 29.769089910272843 29.73832631386193 29.73832631386193 29.73832631386193 29.73832631386193 29.707562717451015 29.73832631386193 29.707562717451015 29.707562717451015 29.707562717451015 29.707562717451015 29.6767991210401 29.6767991210401 29.646035524629188 29.646035524629188 29.646035524629188 29.646035524629188 29.646035524629188 29.646035524629188 29.646035524629188 29.646035524629188 29.646035524629188 29.646035524629188 29.646035524629188 29.646035524629188 29.646035524629188 29.646035524629188 29.615271928218274 29.615271928218274 29.615271928218274 29.615271928218274 29.615271928218274 29.615271928218274 29.615271928218274 29.615271928218274 29.58450833180736 29.58450833180736 29.58450833180736 29.58450833180736 29.58450833180736 29.615271928218274 29.58450833180736 29.58450833180736 29.58450833180736 29.58450833180736 29.58450833180736 29.58450833180736 29.58450833180736 29.58450833180736 29.58450833180736 29.58450833180736 29.58450833180736 29.58450833180736 29.58450833180736 29.58450833180736 29.58450833180736 29.58450833180736 29.58450833180736 29.58450833180736 29.58450833180736 29.58450833180736 29.58450833180736 29.58450833180736 29.58450833180736 29.58450833180736 29.58450833180736 29.58450833180736 29.58450833180736 29.58450833180736 29.58450833180736 29.58450833180736 