25.0 25.0 25.0 25.0 25.0 25.0 25.0 25.0 25.0 25.0 25.0 25.0 25.0 25.0 25.0 25.0 25.0 25.0 25.0 25.0 25.0 25.0 25.0 25.0 25.0 25.0 25.0 25.0 25.0 25.0 25.0 25.0 25.0 25.0 25.0 25.0 25.0 25.0 25.0 25.0 25.0 25.0 25.0 25.0 25.0 25.0 25.0 25.0 25.0 25.0 25.0 25.0 25.0 25.0 25.0 25.0 25.0 25.0 25.0 25.0 25.021973997436366 25.021973997436366 25.0 25.021973997436366 25.0 25.0 25.0 25.0 25.0 25.0 25.0 25.0 25.021973997436366 25.021973997436366 25.0 25.0 25.021973997436366 25.0 25.0 25.0 25.0 25.0 25.0 25.0 25.0 25.0 25.0 25.0 25.0 25.0 25.021973997436366 25.021973997436366 25.0 25.0 25.021973997436366 25.021973997436366 25.0 25.0 25.021973997436366 25.021973997436366 25.0 25.0 25.0 25.0 25.0 25.0 25.0 25.0 25.021973997436366 25.0 25.0 25.0 25.021973997436366 25.0 25.021973997436366 25.0 25.0 25.0 25.0 25.0 25.0 25.0 25.0 25.0 25.021973997436366 25.0 25.021973997436366 25.0 25.0 25.0 25.021973997436366 25.0 25.021973997436366 25.0 25.021973997436366 25.021973997436366 25.021973997436366 25.021973997436366 25.0 25.021973997436366 25.0 25.021973997436366 25.0 25.021973997436366 25.021973997436366 25.021973997436366 25.0 25.0 25.0 25.0 25.021973997436366 25.0 25.0 25.021973997436366 25.021973997436366 25.0 25.021973997436366 25.0 25.021973997436366 25.021973997436366 25.0 25.0 25.0 25.021973997436366 25.021973997436366 25.0 25.021973997436366 25.021973997436366 25.0 25.0 25.0 25.0 25.0 25.0 25.0 25.0 25.0 25.0 25.0 25.0 25.0 25.0 25.0 25.0 25.0 25.0 25.0 25.0 25.0 25.0 25.0 25.0 25.0 25.0 25.0 25.0 25.0 25.0 25.0 25.0 25.0 25.0 25.0 25.0 25.0 25.0 25.0 25.021973997436366 25.0 25.0 25.0 25.0 25.0 25.0 25.0 25.0 25.0 25.0 25.021973997436366 25.0 25.0 25.0 25.0 25.0 25.0 25.0 25.0 25.0 25.0 25.0 25.0 25.0 25.0 25.0 25.021973997436366 25.0 25.0 25.0 25.0 25.0 25.0 25.0 25.0 25.0 25.0 25.0 25.0 25.021973997436366 25.0 25.0 25.0 25.021973997436366 25.0 25.021973997436366 25.021973997436366 25.0 25.021973997436366 25.0 25.0 25.0 25.0 25.021973997436366 25.021973997436366 25.0 25.0 25.0 25.0 25.0 25.0 25.0 25.021973997436366 25.0 25.021973997436366 25.021973997436366 25.0 25.021973997436366 25.0 25.021973997436366 25.021973997436366 25.0 25.021973997436366 25.021973997436366 25.0 25.021973997436366 25.021973997436366 25.021973997436366 25.0 25.0 25.0 25.021973997436366 25.0 25.021973997436366 25.021973997436366 25.021973997436366 25.021973997436366 25.0 25.021973997436366 25.0 25.021973997436366 25.021973997436366 25.021973997436366 25.021973997436366 25.0 25.0 25.021973997436366 25.021973997436366 25.021973997436366 25.021973997436366 25.021973997436366 25.021973997436366 25.021973997436366 25.021973997436366 25.021973997436366 25.0 25.021973997436366 25.021973997436366 25.021973997436366 25.0 25.021973997436366 25.021973997436366 25.021973997436366 25.021973997436366 25.021973997436366 25.021973997436366 25.021973997436366 25.021973997436366 25.021973997436366 25.021973997436366 25.021973997436366 25.021973997436366 25.021973997436366 25.021973997436366 25.021973997436366 25.021973997436366 25.0 25.0 25.0 25.021973997436366 25.021973997436366 25.021973997436366 25.021973997436366 25.0 25.0 25.0 25.0 25.0 25.0 25.021973997436366 25.0 25.021973997436366 25.0 25.0 25.0 25.021973997436366 25.0 25.0 25.0 25.0 25.0 25.0 25.0 25.0 25.0 25.0 25.0 25.0 25.0 25.0 25.0 25.0 25.0 25.0 25.0 25.0 25.0 25.0 25.0 25.0 25.0 25.0 25.0 25.0 25.0 25.0 25.0 25.0 25.021973997436366 25.021973997436366 25.0 25.0 25.0 25.021973997436366 25.0 25.0 25.0 25.0 25.0 25.0 25.021973997436366 25.0 25.0 25.0 25.0 25.021973997436366 25.021973997436366 25.021973997436366 25.021973997436366 25.0 25.021973997436366 25.0 25.0 25.021973997436366 25.021973997436366 25.0 25.0 25.0 25.021973997436366 25.0 25.0 25.021973997436366 25.0 25.021973997436366 25.021973997436366 25.0 25.021973997436366 25.0 25.021973997436366 25.0 25.0 25.021973997436366 25.021973997436366 25.021973997436366 25.0 25.021973997436366 25.021973997436366 25.021973997436366 25.021973997436366 25.021973997436366 25.021973997436366 25.021973997436366 25.021973997436366 25.021973997436366 25.021973997436366 25.021973997436366 25.021973997436366 25.021973997436366 25.021973997436366 25.0 25.0 25.021973997436366 25.0 25.021973997436366 25.021973997436366 25.0 25.021973997436366 25.021973997436366 25.021973997436366 25.021973997436366 25.021973997436366 25.0 25.021973997436366 25.021973997436366 25.021973997436366 25.021973997436366 25.021973997436366 25.021973997436366 25.021973997436366 25.021973997436366 25.0 25.021973997436366 25.021973997436366 25.021973997436366 25.0 25.0 25.021973997436366 25.021973997436366 25.021973997436366 25.021973997436366 25.0 25.0 25.021973997436366 25.021973997436366 25.021973997436366 25.021973997436366 25.0 25.021973997436366 25.021973997436366 25.021973997436366 25.021973997436366 25.0 25.0 25.0 25.021973997436366 25.0 25.021973997436366 25.021973997436366 25.0 25.021973997436366 25.021973997436366 25.021973997436366 25.021973997436366 25.021973997436366 25.0 25.021973997436366 25.0 25.021973997436366 25.021973997436366 25.021973997436366 25.021973997436366 25.0 25.021973997436366 25.021973997436366 25.021973997436366 25.021973997436366 25.021973997436366 25.021973997436366 25.021973997436366 25.0 25.0 25.021973997436366 25.021973997436366 25.021973997436366 25.021973997436366 25.021973997436366 25.021973997436366 25.021973997436366 25.0 25.021973997436366 25.021973997436366 25.021973997436366 25.021973997436366 25.0 25.021973997436366 25.021973997436366 25.021973997436366 25.021973997436366 25.021973997436366 25.021973997436366 25.021973997436366 25.021973997436366 25.021973997436366 25.021973997436366 25.0 25.021973997436366 25.021973997436366 25.021973997436366 25.021973997436366 25.021973997436366 25.0 25.021973997436366 25.021973997436366 25.021973997436366 25.021973997436366 25.0 25.021973997436366 25.021973997436366 25.0 25.021973997436366 25.021973997436366 25.021973997436366 25.021973997436366 25.021973997436366 25.021973997436366 25.0 25.0 25.0 25.021973997436366 25.021973997436366 25.021973997436366 25.021973997436366 25.021973997436366 25.021973997436366 25.0 25.021973997436366 25.021973997436366 25.0 25.021973997436366 25.021973997436366 25.021973997436366 25.021973997436366 25.021973997436366 25.021973997436366 25.021973997436366 25.021973997436366 25.021973997436366 25.021973997436366 25.021973997436366 25.021973997436366 25.0 25.021973997436366 25.021973997436366 25.021973997436366 25.021973997436366 25.021973997436366 25.021973997436366 25.021973997436366 25.0 25.021973997436366 25.021973997436366 25.0 25.0 25.021973997436366 25.0 25.0 25.0 25.0 25.021973997436366 25.0 25.021973997436366 25.0 25.0 25.0 25.0 25.021973997436366 25.0 25.0 25.021973997436366 25.0 25.0 25.0 25.021973997436366 25.021973997436366 25.0 25.0 25.021973997436366 25.0 25.021973997436366 25.0 25.0 25.0 25.0 25.0 25.0 25.0 25.0 25.0 25.0 25.0 25.0 25.0 25.0 25.0 25.0 25.0 25.0 25.0 25.0 25.0 25.0 25.0 25.0 25.0 25.0 25.0 25.021973997436366 25.043947994872735 25.0659219923091 25.08789598974547 25.109869987181835 25.1318439846182 25.175791979490935 25.241713971800035 25.329609961545504 25.395531953854604 25.50540194103644 25.593297930781908 25.72514191540011 25.878959897454678 26.01080388207288 26.186595861563816 26.38436183849112 26.626075810291155 26.845815784654825 27.065555759018494 27.373191723127633 27.834645669291337 28.34004761032778 28.84544955136422 29.41677348470976 29.900201428309835 30.471525361655374 31.020875297564547 31.65812122321919 32.27339315143747 32.97656106940121 33.67972898736495 34.42684490020143 35.17396081303791 35.921076725874386 36.712140633583594 37.52517853872917 38.42611243362022 39.32704632851126 40.096136238784105 40.97509613623878 41.9639260208753 42.864859915766345 43.787767808093754 44.7546236952939 45.74345357993042 46.73228346456693 47.87493133125801 48.88573521333089 50.379967039003844 51.76432887749496 52.70921076725874 54.00567661600439 55.25819446987731 56.554660318622965 57.76323017762314 58.26863211865959 59.41127998535067 61.10327778795092 61.9822376854056 63.300677531587624 64.61911737776964 65.717817249588 66.81651712140633 68.22285295733383 69.40944881889763 71.01355063175242 72.09027650613442 73.40871635231643 75.01281816517121 76.00164804980773 77.18824391137156 78.0891778062626 79.31972166269914 80.50631752426295 81.31935542940855 82.79161325764511 83.16517121406336 84.17597509613624 85.31862296282733 86.02179088079106 86.81285478850029 87.71378868339133 88.96630653726424 89.53763047060978 90.17487639626442 91.1197582860282 92.10858817066472 92.76780809375572 93.60281999633767 94.50375389122871 95.11902581944699 96.01995971433803 96.67917963742904 97.82182750412012 98.32722944515658 98.832631386193 99.51382530672038 100.15107123237502 100.59055118110236 101.38161508881157 101.79912104010255 102.30452298113899 102.74400292986633 103.00769089910273 103.24940487090277 103.53506683757553 103.60098882988464 103.66691082219374 103.64493682475738 103.66691082219374 103.60098882988464 103.46914484526644 103.3592748580846 103.18348287859367 103.07361289141183 102.85387291704816 102.67808093755723 102.37044497344809 101.88701702984801 101.44753708112067 101.09595312213881 100.7663431605933 100.45870719648416 99.79948727339315 99.46987731184765 98.98644936824758 98.52499542208386 98.173411463102 97.8438015015565 97.22852957333822 96.5693096502472 95.88811572971983 95.40468778611975 94.59164988097419 93.9104559604468 93.3171580296649 92.35030214246476 91.53726423731918 90.4605383629372 89.42776048342795 88.74656656290057 87.77971067570043 86.7908807910639 85.88994689617286 85.25270097051822 84.68137703717268 83.8683391320271 82.98937923457243 82.39608130379051 81.0117194652994 79.75920161142648 79.07800769089911 78.37483977293536 77.71561984984436 76.92455594213514 75.957700054935 75.25453213697125 74.33162424464385 73.32082036257097 72.68357443691632 71.78264054202528 71.0355246291888 70.00274674967955 68.92602087529757 68.17890496246109 67.10217908807911 66.15729719831532 65.10254532136972 63.915949459805894 63.01501556491485 62.15802966489654 60.86156381615089 60.46603186229628 59.82878593664164 58.53232008789599 57.80717817249588 56.752426295550265 55.82951840322285 54.99450650064091 53.961728621131655 53.258560703167916 52.291704815967776 51.30287493133126 50.643655008240245 49.742721113349205 49.14942318256729 48.33638527742171 47.58926936458524 47.061893426112434 46.02911554660319 45.26002563633034 44.99633766709394 44.073429774766524 43.61197582860282 43.106573887566384 42.13971800036623 41.63431605932979 40.88720014649331 40.403772202893244 39.744552279802235 39.04138436183849 38.42611243362022 37.81084050540194 37.1076725874382 36.624244643838125 35.94305072331075 35.41567478483794 34.7784288591833 33.92144295916499 33.591832997619484 33.086431056583045 32.53708112067387 32.20747115912837 31.57022523347372 31.28456326680095 30.757187328328143 30.537447353964474 30.29573338216444 30.032045412928035 29.658487456509796 29.284929500091557 28.91137154367332 28.64768357443692 28.296099615455045 27.922541659036806 27.636879692364037 27.307269730818533 26.95568577183666 26.73594579747299 26.538179820545686 26.472257828236586 26.406335835927486 26.340413843618386 26.340413843618386 26.318439846182017 26.318439846182017 26.318439846182017 26.318439846182017 26.318439846182017 26.29646584874565 26.274491851309286 26.274491851309286 26.252517853872916 26.252517853872916 26.252517853872916 26.252517853872916 26.23054385643655 26.252517853872916 26.23054385643655 26.23054385643655 26.23054385643655 26.208569859000182 26.186595861563816 26.186595861563816 26.186595861563816 26.164621864127447 26.14264786669108 26.14264786669108 26.120673869254716 26.120673869254716 26.098699871818347 26.098699871818347 26.098699871818347 26.098699871818347 26.07672587438198 26.07672587438198 26.07672587438198 26.07672587438198 26.07672587438198 26.07672587438198 26.07672587438198 26.07672587438198 26.07672587438198 26.07672587438198 26.07672587438198 26.07672587438198 26.07672587438198 26.07672587438198 26.07672587438198 26.07672587438198 26.07672587438198 26.07672587438198 26.07672587438198 26.07672587438198 26.07672587438198 26.098699871818347 26.07672587438198 26.07672587438198 26.07672587438198 26.07672587438198 26.07672587438198 26.07672587438198 26.07672587438198 26.054751876945616 26.054751876945616 26.054751876945616 26.054751876945616 26.032777879509247 26.032777879509247 26.01080388207288 26.01080388207288 25.988829884636512 25.988829884636512 25.966855887200147 25.966855887200147 25.944881889763778 25.944881889763778 25.944881889763778 25.944881889763778 25.944881889763778 25.922907892327412 25.922907892327412 25.922907892327412 25.922907892327412 25.922907892327412 25.922907892327412 25.900933894891047 25.922907892327412 25.900933894891047 25.900933894891047 25.900933894891047 25.900933894891047 25.900933894891047 25.900933894891047 25.900933894891047 25.878959897454678 25.878959897454678 25.878959897454678 25.878959897454678 25.878959897454678 25.878959897454678 25.878959897454678 25.878959897454678 25.878959897454678 25.878959897454678 25.878959897454678 25.878959897454678 25.878959897454678 25.878959897454678 25.878959897454678 25.878959897454678 25.878959897454678 25.878959897454678 25.878959897454678 25.878959897454678 25.856985900018312 25.856985900018312 25.856985900018312 25.878959897454678 25.856985900018312 25.878959897454678 25.856985900018312 25.856985900018312 25.856985900018312 25.856985900018312 25.856985900018312 25.856985900018312 25.856985900018312 25.856985900018312 25.856985900018312 25.856985900018312 25.856985900018312 25.856985900018312 25.856985900018312 25.856985900018312 25.856985900018312 25.856985900018312 25.856985900018312 25.856985900018312 25.856985900018312 25.856985900018312 25.856985900018312 25.856985900018312 25.856985900018312 25.856985900018312 25.856985900018312 25.856985900018312 25.856985900018312 25.856985900018312 25.856985900018312 25.856985900018312 25.856985900018312 25.856985900018312 25.856985900018312 25.856985900018312 25.856985900018312 25.856985900018312 25.856985900018312 25.856985900018312 25.856985900018312 25.856985900018312 25.856985900018312 25.856985900018312 25.835011902581943 25.835011902581943 25.856985900018312 25.835011902581943 25.856985900018312 25.835011902581943 25.856985900018312 25.835011902581943 25.835011902581943 25.835011902581943 25.856985900018312 25.835011902581943 25.835011902581943 25.835011902581943 25.835011902581943 25.835011902581943 25.835011902581943 25.835011902581943 25.835011902581943 25.835011902581943 25.835011902581943 25.835011902581943 25.835011902581943 25.835011902581943 25.835011902581943 25.835011902581943 25.835011902581943 25.813037905145578 25.813037905145578 25.813037905145578 25.813037905145578 25.813037905145578 25.813037905145578 25.813037905145578 25.813037905145578 25.813037905145578 25.813037905145578 25.791063907709212 25.791063907709212 25.813037905145578 25.791063907709212 25.791063907709212 25.791063907709212 25.791063907709212 25.791063907709212 25.791063907709212 25.769089910272843 25.769089910272843 25.769089910272843 25.747115912836477 25.747115912836477 25.72514191540011 25.72514191540011 25.72514191540011 25.703167917963743 25.703167917963743 25.703167917963743 25.703167917963743 25.681193920527377 25.681193920527377 25.703167917963743 25.703167917963743 25.703167917963743 25.703167917963743 25.681193920527377 25.681193920527377 25.681193920527377 25.681193920527377 25.703167917963743 25.703167917963743 25.703167917963743 25.703167917963743 25.681193920527377 25.703167917963743 25.681193920527377 25.703167917963743 25.703167917963743 25.703167917963743 25.703167917963743 25.703167917963743 25.703167917963743 25.703167917963743 25.72514191540011 25.747115912836477 25.769089910272843 25.835011902581943 25.900933894891047 25.966855887200147 26.07672587438198 26.186595861563816 26.406335835927486 26.67002380516389 26.867789782091194 27.241347738509432 27.592931697491302 27.944515656473172 28.603735579564184 28.999267533418788 29.61453946163706 30.29573338216444 30.823109320637247 31.28456326680095 32.33931514374657 32.91063907709211 34.075260941219554 34.60263687969236 35.23988280534701 35.986998718183486 36.558322651529025 37.393334554110965 37.98663248489288 38.84361838491119 39.678630287493135 40.27192821827504 41.12891411829335 42.27156198498443 42.62314594396631 43.414209851675515 44.007507782457424 44.84251968503937 45.96319355429409 46.51254349020326 47.391503387657934 48.22651529023988 48.81981322102179 49.479033144112805 50.35799304156748 51.25892693645852 52.2038088262223 52.81908075444058 53.720014649331624 54.68687053653177 55.67570042116829 56.64255630836843 57.30177623145944 58.33455411096869 58.9937740340597 59.69694195202344 60.729719831532684 62.09210767258744 62.81724958798755 63.784105475187694 64.5751693828969 65.27833730086064 66.22321919062443 67.21204907526095 68.22285295733383 69.18970884453397 69.84892876762498 70.79381065738875 71.40908258560702 72.26606848562534 73.07910639077092 73.6284563266801 74.55136421900751 75.47427211133493 76.0895440395532 77.18824391137156 77.67167185497162 78.2210217908808 78.99011170115364 79.60538362937191 80.44039553195387 81.49514740889947 81.97857535249955 82.68174327046329 83.14319721662699 83.58267716535434 84.41768906793627 84.68137703717268 85.78007690899102 85.9998168833547 86.70298480131844 87.34023072697309 87.58194469877311 88.21919062442777 88.70261856802784 89.01025453213697 89.42776048342795 89.73539644753708 90.08698040651895 90.4605383629372 90.70225233473722 91.07581029115548 91.42739425013734 91.69108221937374 92.17451016297382 92.37227613990112 92.70188610144663 93.27321003479217 93.58084599890131 93.88848196301043 94.19611792711957 94.54770188610145 94.92125984251969 95.16297381431973 95.49258377586523 95.82219373741073 95.93206372459257 96.06390770921077 96.19575169382897 96.21772569126534 96.2396996887017 96.21772569126534 96.06390770921077 95.9100897271562 95.69034975279253 95.29481779893793 94.74546786302875 94.41585790148325 93.80058597326497 93.49295000915583 93.0534700604285 92.723860098883 92.28438015015564 91.95477018861015 91.27357626808276 90.90001831166454 90.10895440395532 89.88921442959166 89.38381248855521 88.90038454495513 88.41695660135505 88.08734663980957 87.51602270646401 87.12049075260941 86.59311481413661 86.15363486540927 85.36257095770006 84.70335103460906 84.2638710858817 83.802417139718 83.40688518586339 82.74766526277239 82.06647134224502 81.47317341146311 80.83592748580847 80.26460355246292 79.86907159860831 79.45156564731734 79.07800769089911 78.37483977293536 77.82548983702618 77.45193188060796 76.90258194469877 76.3532320087896 75.91375206006227 75.38637612158945 74.99084416773485 74.39754623695293 73.7603003112983 73.27687236769822 72.63962644204358 71.73869254715254 71.2992125984252 70.61801867789782 70.33235671122506 69.5632668009522 68.77220289324299 67.98113898553379 67.19007507782457 66.53085515473356 66.04742721113348 65.36623329060612 65.1684673136788 64.3114814136605 63.630287493133125 63.146859549533055 62.24592565464201 61.76249771104193 61.25709577000549 60.597875846914484 60.114447903314414 59.433253982787036 58.81798205456876 58.37850210584142 57.69730818531404 57.060062259659404 56.378868339132026 55.69767441860465 55.43398644936825 54.77476652627723 53.895806628822555 53.434352682658854 52.775132759567846 52.09393883904047 51.63248489287676 50.92931697491302 50.643655008240245 49.742721113349205 48.97363120307636 48.44625526460355 47.74308734663981 47.259659403039734 46.51254349020326 45.76542757736678 45.23805163889398 44.53488372093023 43.87566379783922 43.45815784654825 42.733015931148145 42.293535982420806 41.94195202343893 41.39260208752975 41.06299212598425 40.77733015931148 40.184032228529574 39.920344259293174 39.5687603003113 39.21717634132943 38.97546236952939 38.64585240798389 38.42611243362022 38.09650247207471 37.7668925105292 37.54715253616554 37.21754257462003 36.975828602819995 36.51437465665629 36.22871268998352 36.03094671305622 35.63541475920161 35.28383080021974 35.0421168284197 34.55868888481963 34.29500091558323 33.943416956601354 33.61380699505585 33.372093023255815 33.152353048892145 32.69089910272844 32.4491851309284 32.0536531770738 31.81193920527376 31.43838124885552 31.108771287310017 30.757187328328143 30.51547335652811 30.22981138985534 29.944149423182566 29.76835744369163 29.592565464200696 29.372825489837027 29.109137520600623 28.97729353598242 28.867423548800588 28.735579564182384 28.62570957700055 28.449917597509614 28.230177623145945 28.010437648782275 27.81267167185497 27.68082768723677 27.505035707745833 27.241347738509432 26.999633766709394 26.757919794909355 26.60410181285479 26.406335835927486 26.29646584874565 26.274491851309286 26.29646584874565 26.318439846182017 26.38436183849112 26.406335835927486 26.42830983336385 26.45028383080022 26.45028383080022 26.406335835927486 26.38436183849112 26.340413843618386 26.29646584874565 26.23054385643655 26.208569859000182 26.208569859000182 26.186595861563816 26.186595861563816 26.164621864127447 26.14264786669108 26.120673869254716 26.07672587438198 26.032777879509247 25.988829884636512 25.944881889763778 25.922907892327412 25.900933894891047 25.878959897454678 25.856985900018312 25.835011902581943 25.835011902581943 25.813037905145578 25.791063907709212 25.769089910272843 25.747115912836477 25.747115912836477 25.703167917963743 25.681193920527377 25.681193920527377 25.681193920527377 25.681193920527377 25.681193920527377 25.65921992309101 25.681193920527377 25.681193920527377 25.681193920527377 25.681193920527377 25.681193920527377 25.681193920527377 25.681193920527377 25.681193920527377 25.681193920527377 25.681193920527377 25.681193920527377 25.681193920527377 25.681193920527377 25.681193920527377 25.681193920527377 25.681193920527377 25.681193920527377 25.681193920527377 25.681193920527377 25.681193920527377 25.681193920527377 25.681193920527377 25.681193920527377 25.681193920527377 25.681193920527377 25.681193920527377 25.681193920527377 25.681193920527377 25.681193920527377 25.681193920527377 25.681193920527377 25.681193920527377 25.703167917963743 25.681193920527377 25.681193920527377 25.681193920527377 25.681193920527377 25.681193920527377 25.681193920527377 25.681193920527377 25.681193920527377 25.703167917963743 25.681193920527377 25.681193920527377 25.681193920527377 25.681193920527377 25.681193920527377 25.681193920527377 25.681193920527377 25.681193920527377 25.703167917963743 25.681193920527377 25.681193920527377 25.681193920527377 25.681193920527377 25.681193920527377 25.681193920527377 25.681193920527377 25.681193920527377 25.681193920527377 25.681193920527377 25.681193920527377 25.681193920527377 25.681193920527377 25.681193920527377 25.681193920527377 25.681193920527377 25.65921992309101 25.681193920527377 25.681193920527377 25.681193920527377 25.681193920527377 25.681193920527377 25.681193920527377 25.65921992309101 25.65921992309101 25.681193920527377 25.65921992309101 25.65921992309101 25.681193920527377 25.65921992309101 25.65921992309101 25.65921992309101 25.65921992309101 25.65921992309101 25.65921992309101 25.65921992309101 25.65921992309101 25.65921992309101 25.65921992309101 25.65921992309101 25.65921992309101 25.65921992309101 25.65921992309101 25.65921992309101 25.65921992309101 25.65921992309101 25.65921992309101 25.65921992309101 25.65921992309101 25.65921992309101 25.65921992309101 25.65921992309101 25.65921992309101 25.65921992309101 25.65921992309101 25.65921992309101 25.65921992309101 25.65921992309101 25.65921992309101 25.65921992309101 25.65921992309101 25.65921992309101 25.65921992309101 25.637245925654643 25.65921992309101 25.65921992309101 25.65921992309101 25.65921992309101 25.65921992309101 25.65921992309101 25.65921992309101 25.65921992309101 25.65921992309101 25.65921992309101 25.65921992309101 25.65921992309101 25.65921992309101 25.65921992309101 25.65921992309101 25.65921992309101 25.65921992309101 25.65921992309101 25.65921992309101 25.65921992309101 25.637245925654643 25.65921992309101 25.65921992309101 25.65921992309101 25.65921992309101 25.65921992309101 25.65921992309101 25.65921992309101 25.65921992309101 25.65921992309101 25.65921992309101 25.65921992309101 25.65921992309101 25.65921992309101 25.65921992309101 25.65921992309101 25.65921992309101 25.65921992309101 25.65921992309101 25.65921992309101 25.65921992309101 25.65921992309101 25.65921992309101 25.65921992309101 25.681193920527377 25.65921992309101 25.681193920527377 25.681193920527377 25.681193920527377 25.681193920527377 25.681193920527377 25.681193920527377 25.681193920527377 25.681193920527377 25.681193920527377 25.681193920527377 25.703167917963743 25.703167917963743 25.681193920527377 25.681193920527377 25.681193920527377 25.681193920527377 25.703167917963743 25.703167917963743 25.703167917963743 25.681193920527377 25.703167917963743 25.703167917963743 25.703167917963743 25.703167917963743 25.703167917963743 25.703167917963743 25.72514191540011 25.791063907709212 25.813037905145578 25.856985900018312 25.900933894891047 25.966855887200147 26.054751876945616 26.252517853872916 26.42830983336385 26.648049807727524 26.999633766709394 27.548983702618568 27.90056766160044 28.208203625709576 28.84544955136422 29.219007507782457 29.63651345907343 30.405603369346274 30.823109320637247 31.482329243728255 31.921809192455594 32.53708112067387 33.438015015564915 33.74565097967405 34.38289690532869 35.10803882072881 35.54751876945615 36.20673869254715 36.690166636147225 37.54715253616554 38.20637245925654 38.55795641823842 39.06335835927486 39.524812305438566 40.140084233656836 40.99707013367515 41.43655008240249 42.05182201062077 42.64511994140267 43.08459989013001 43.721845815784654 44.139351767075624 44.73264969785754 45.36989562351218 45.83134956967588 46.534517487639626 47.325581395348834 48.11664530305805 48.95165720563999 49.2153451748764 50.094305072331075 50.95129097234938 51.6105108954404 52.797106757004215 53.720014649331624 54.37923457242263 55.32411646218641 55.74162241347739 56.686504303241165 58.07086614173228 58.75206006225966 59.806811939205275 60.795641823841784 61.49880974180553 62.53158762131478 62.905145577733016 64.1796374290423 65.1684673136788 65.80571323933346 66.75059512909723 67.38784105475187 68.33272294451567 69.5632668009522 69.93682475737045 70.72788866507966 71.60684856253434 72.20014649331624 73.1010803882073 73.7603003112983 75.03479216260759 75.89177806262589 76.46310199597144 77.0124519318806 78.06720380882624 78.4187877678081 79.49551364219008 80.04486357809925 80.85790148324483 81.93462735762681 82.50595129097235 82.96740523713606 83.56070316791798 84.0001831166453 84.59348104742722 85.01098699871818 85.56033693462736 86.08771287310017 86.59311481413661 86.9227247756821 87.34023072697309 87.60391869620949 88.08734663980957 88.21919062442777 88.592748580846 89.22999450650065 89.47170847830067 89.75737044497345 90.15290239882806 90.43856436550082 90.8560703167918 91.14173228346456 91.5812122321919 91.95477018861015 92.30635414759202 92.5260941219557 92.7897820911921 92.9216260758103 93.0534700604285 93.07544405786486 93.09741805530123 93.09741805530123 93.09741805530123 92.94360007324666 92.70188610144663 92.5260941219557 92.04266617835562 91.73503021424648 91.2516022706464 90.7242263321736 90.39461637062809 90.06500640908259 89.75737044497345 89.12012451931881 88.61472257828237 88.32906061160959 87.88958066288225 87.20838674235489 86.81285478850029 86.3953488372093 85.97784288591834 85.45046694744553 84.83519501922726 84.3957150704999 83.53872917048159 82.9454312396997 82.52792528840871 82.13239333455411 81.73686138069951 81.16553744735396 80.37447353964475 79.93499359091741 79.38564365500824 78.77037172678996 78.37483977293536 77.80351583958982 77.40798388573522 76.85863394982604 76.24336202160777 75.8258560703168 75.18861014466215 74.50741622413477 73.93609229078925 73.01318439846182 72.70554843435269 72.04632851126168 71.34316059329794 70.88170664713422 70.04669474455227 68.8381248855521 68.11298297015199 67.34389305987915 66.92638710858817 66.2451931880608 65.52005127266068 64.75096136238784 63.89397546236953 63.01501556491485 62.487639626442046 61.6526277238601 61.10327778795092 60.246291887932614 59.34535799304157 58.73008606482329 57.85112616736861 56.906244277604834 56.247024354513826 54.99450650064091 54.62094854422267 53.74198864676799 52.863028749313315 52.24775682109504 51.34682292620399 50.75352499542208 49.654825123603736 48.86376121589453 48.46822926203992 47.85295733382164 46.86412744918513 46.380699505585056 45.61160959531222 45.06225965940304 44.24922175425746 43.370261856802784 42.798937923457245 41.91997802600257 40.99707013367515 40.403772202893244 39.26112433620216 38.99743636696576 38.16242446438381 37.393334554110965 36.865958615638164 36.20673869254715 35.61344076176525 35.26185680278337 34.6465848745651 34.38289690532869 34.141182933528654 33.723676982237684 33.54788500274675 33.39406702069218 33.086431056583045 32.95458707196484 32.712873100164806 32.55905511811024 32.33931514374657 32.07562717451016 31.78996520783739 31.614173228346456 31.30653726423732 31.08679728987365 30.823109320637247 30.625343343709943 30.22981138985534 30.032045412928035 29.834279436000735 29.526643471891596 29.240981505218826 29.043215528291523 28.669657571873284 28.49386559238235 28.230177623145945 27.988463651345906 27.81267167185497 27.658853689800402 27.373191723127633 27.241347738509432 27.04358176158213 26.933711774400294 26.73594579747299 26.560153817982055 26.45028383080022 26.406335835927486 26.36238784105475 26.36238784105475 26.36238784105475 26.38436183849112 26.38436183849112 26.38436183849112 26.36238784105475 26.36238784105475 26.340413843618386 26.318439846182017 26.318439846182017 26.318439846182017 26.318439846182017 26.29646584874565 26.29646584874565 26.29646584874565 26.29646584874565 26.274491851309286 26.29646584874565 26.274491851309286 26.274491851309286 26.274491851309286 26.274491851309286 26.274491851309286 26.252517853872916 26.252517853872916 26.252517853872916 26.252517853872916 26.252517853872916 26.252517853872916 26.23054385643655 26.23054385643655 26.23054385643655 26.23054385643655 26.23054385643655 26.208569859000182 26.208569859000182 26.186595861563816 26.186595861563816 26.164621864127447 26.164621864127447 26.164621864127447 26.164621864127447 26.164621864127447 26.14264786669108 26.14264786669108 26.120673869254716 26.120673869254716 26.120673869254716 26.098699871818347 26.098699871818347 26.098699871818347 26.07672587438198 26.054751876945616 26.032777879509247 26.032777879509247 26.032777879509247 26.032777879509247 26.01080388207288 25.988829884636512 25.966855887200147 25.966855887200147 25.944881889763778 25.922907892327412 25.922907892327412 25.922907892327412 25.878959897454678 25.878959897454678 25.878959897454678 25.878959897454678 25.856985900018312 25.856985900018312 25.856985900018312 25.856985900018312 25.835011902581943 25.835011902581943 25.835011902581943 25.835011902581943 25.835011902581943 25.835011902581943 25.835011902581943 25.835011902581943 25.835011902581943 25.835011902581943 25.835011902581943 25.835011902581943 25.835011902581943 25.835011902581943 25.835011902581943 25.835011902581943 25.835011902581943 25.835011902581943 25.835011902581943 25.835011902581943 25.835011902581943 25.835011902581943 25.835011902581943 25.835011902581943 25.813037905145578 25.835011902581943 25.835011902581943 25.813037905145578 25.835011902581943 25.813037905145578 25.835011902581943 25.813037905145578 25.813037905145578 25.813037905145578 25.813037905145578 25.813037905145578 25.813037905145578 25.813037905145578 25.813037905145578 25.813037905145578 25.791063907709212 25.813037905145578 25.813037905145578 25.813037905145578 25.813037905145578 25.813037905145578 25.813037905145578 25.813037905145578 25.813037905145578 25.813037905145578 25.813037905145578 25.813037905145578 25.813037905145578 25.813037905145578 25.813037905145578 25.813037905145578 25.813037905145578 25.813037905145578 25.813037905145578 25.813037905145578 25.813037905145578 25.813037905145578 25.813037905145578 25.813037905145578 25.813037905145578 25.813037905145578 25.813037905145578 25.813037905145578 25.813037905145578 25.813037905145578 25.813037905145578 25.813037905145578 25.813037905145578 25.813037905145578 25.813037905145578 25.813037905145578 25.813037905145578 25.813037905145578 25.813037905145578 25.813037905145578 25.813037905145578 25.813037905145578 25.813037905145578 25.813037905145578 25.813037905145578 25.813037905145578 25.813037905145578 25.813037905145578 25.813037905145578 25.813037905145578 25.813037905145578 25.813037905145578 25.813037905145578 25.813037905145578 25.813037905145578 25.813037905145578 25.813037905145578 25.791063907709212 25.813037905145578 25.791063907709212 25.791063907709212 25.791063907709212 25.791063907709212 25.791063907709212 25.791063907709212 25.791063907709212 25.769089910272843 25.769089910272843 25.769089910272843 25.769089910272843 25.769089910272843 25.769089910272843 25.747115912836477 25.747115912836477 25.769089910272843 25.747115912836477 25.747115912836477 25.747115912836477 25.747115912836477 25.747115912836477 25.747115912836477 25.747115912836477 25.747115912836477 25.747115912836477 25.72514191540011 25.72514191540011 25.72514191540011 25.72514191540011 25.72514191540011 25.72514191540011 25.72514191540011 25.72514191540011 25.72514191540011 25.72514191540011 25.72514191540011 25.72514191540011 25.72514191540011 25.72514191540011 25.72514191540011 25.703167917963743 25.703167917963743 25.703167917963743 25.72514191540011 25.703167917963743 25.703167917963743 25.72514191540011 25.72514191540011 25.703167917963743 25.703167917963743 25.703167917963743 25.72514191540011 25.703167917963743 25.703167917963743 25.72514191540011 25.703167917963743 25.72514191540011 25.72514191540011 25.72514191540011 25.72514191540011 25.72514191540011 25.72514191540011 25.72514191540011 25.72514191540011 25.747115912836477 25.72514191540011 25.72514191540011 25.747115912836477 25.747115912836477 25.747115912836477 25.747115912836477 25.769089910272843 25.769089910272843 25.769089910272843 25.791063907709212 25.813037905145578 25.856985900018312 25.922907892327412 25.966855887200147 26.032777879509247 26.098699871818347 26.252517853872916 26.406335835927486 26.67002380516389 26.97765976927303 27.329243728254898 27.592931697491302 27.834645669291337 28.49386559238235 28.823475553927853 29.175059512909723 29.526643471891596 30.119941402673504 30.493499359091743 31.08679728987365 31.702069218091925 32.1195751693829 32.800769089910276 33.262223036073976 34.009338948910454 34.75645486174693 35.28383080021974 36.052920710492586 36.602270646401756 37.45925654642007 38.20637245925654 38.73374839772936 39.678630287493135 40.35982420802051 40.601538179820544 41.48049807727523 41.85405603369347 42.33748397729354 43.194469877311846 43.85368980040286 44.2931697491302 44.97436366965757 45.47976561069402 46.22688152353049 46.79820545687603 47.58926936458524 48.46822926203992 49.105475187694566 50.028383080021975 50.99523896722212 51.96209485442226 52.68723676982238 53.346456692913385 54.203442592931694 55.14832448269547 55.80754440578649 57.038088262223035 57.65336019044131 58.55429408533236 59.4552279802234 60.04852591100531 60.77366782640542 61.9822376854056 62.707379600805716 63.608313495696756 64.2455594213514 65.19044131111518 66.15729719831532 66.81651712140633 67.76139901117011 68.68430690349753 69.27760483427943 70.15656473173412 70.72788866507966 71.60684856253434 72.61765244460722 73.16700238051638 73.71635231642557 74.63926020875297 75.21058414209853 75.97967405237137 76.70481596777148 77.40798388573522 78.13312580113532 78.63852774217176 79.16590368064458 80.11078557040835 80.68210950375389 81.40725141915401 81.93462735762681 82.63779527559055 83.31898919611793 83.802417139718 84.57150704999086 85.18677897820913 85.71415491668193 86.46127082951841 86.96667277055485 87.66984068851858 88.57077458340964 89.0542025270097 89.71342245010072 90.17487639626442 90.65830433986449 91.36147225782824 91.75700421168284 92.48214612708296 92.96557407068303 93.2512360373558 93.5149240065922 93.93242995788317 94.10822193737411 94.30598791430141 94.41585790148325 94.52572788866507 94.54770188610145 94.54770188610145 94.56967588353781 94.56967588353781 94.48177989379235 94.32796191173779 94.17414392968321 93.9104559604468 93.53689800402857 93.2512360373558 92.54806811939206 92.3942501373375 91.75700421168284 90.96594030397362 90.5923823475554 90.08698040651895 89.51565647317341 89.14209851675518 88.76854056033693 88.26313861930049 87.66984068851858 86.96667277055485 86.57114081670024 85.88994689617286 85.23072697308186 84.76927302691814 84.15400109869987 83.802417139718 83.27504120124519 82.8135872550815 82.52792528840871 81.95660135506317 81.51712140633583 81.18751144479035 80.96777147042667 80.52829152169933 80.26460355246292 79.75920161142648 79.47353964475371 79.09998168833548 78.70444973448086 78.39681377037172 77.9573338216444 77.75956784471708 77.10034792162608 76.5509979857169 76.15546603186229 75.54019410364401 74.99084416773485 74.50741622413477 74.0239882805347 73.58450833180737 73.25489837026186 72.8373924189709 72.57370444973449 72.0243545138253 71.6288225599707 71.32118659586156 70.85973264969786 70.68394067020692 70.20051272660686 69.65116279069767 69.01391686504303 68.28877494964291 67.71745101629739 66.81651712140633 66.09137520600623 65.65189525727888 65.25636330342428 64.59714338033328 63.87200146493316 63.410547518769455 62.971067570042116 62.487639626442046 61.8503937007874 61.45486174693279 61.05932979307819 60.33418787767808 60.136421900750776 59.56509796740524 59.14759201611427 58.24665812122322 57.54349020325947 57.060062259659404 56.598608313495696 55.63175242629555 55.12635048525911 54.42318256729537 53.93975462369529 53.324482695477016 52.68723676982238 52.2697308185314 51.4786669108222 51.083134956967584 50.665629005676614 50.050357077458344 49.63285112616737 48.88573521333089 48.51217725691265 47.98480131843985 47.56729536714887 47.083867423548796 46.71030946713056 46.00714154916682 45.65555759018495 45.12818165171214 44.5568577183666 44.16132576451199 43.787767808093754 43.194469877311846 42.82091192089361 42.31550997985717 41.94195202343893 41.48049807727523 40.99707013367515 40.535616187511444 40.249954220838674 39.8324482695477 39.5687603003113 39.173228346456696 38.90954037722029 38.40413843618385 38.16242446438381 37.92071049258378 37.54715253616554 37.261490569492764 36.865958615638164 36.338582677165356 36.03094671305622 35.54751876945615 35.08606482329244 34.69053286943783 34.33894891045596 33.92144295916499 33.438015015564915 32.97656106940121 32.646951107855706 32.16352316425563 31.702069218091925 31.196667277055482 30.86705731550998 30.493499359091743 30.010071415491666 29.460721479582496 29.087163523164257 28.31807361289141 27.74674967954587 27.351217725691264 26.80186778978209 26.626075810291155 26.472257828236586 26.252517853872916 26.164621864127447 26.032777879509247 26.01080388207288 25.988829884636512 25.988829884636512 25.966855887200147 25.922907892327412 25.856985900018312 25.813037905145578 25.769089910272843 25.747115912836477 25.72514191540011 25.703167917963743 25.703167917963743 25.681193920527377 25.65921992309101 25.65921992309101 25.65921992309101 25.637245925654643 25.637245925654643 25.637245925654643 25.637245925654643 25.637245925654643 25.615271928218274 25.615271928218274 25.593297930781908 25.593297930781908 25.571323933345543 25.571323933345543 25.571323933345543 25.549349935909174 25.549349935909174 25.549349935909174 25.549349935909174 25.549349935909174 25.527375938472808 25.527375938472808 25.527375938472808 25.527375938472808 25.527375938472808 25.527375938472808 25.527375938472808 25.527375938472808 25.50540194103644 25.527375938472808 25.50540194103644 25.50540194103644 25.50540194103644 25.50540194103644 25.50540194103644 25.50540194103644 25.50540194103644 25.50540194103644 25.50540194103644 25.50540194103644 25.50540194103644 25.50540194103644 25.50540194103644 25.50540194103644 25.50540194103644 25.50540194103644 25.50540194103644 25.50540194103644 25.50540194103644 25.50540194103644 25.50540194103644 25.50540194103644 25.50540194103644 25.50540194103644 25.50540194103644 25.50540194103644 25.50540194103644 25.527375938472808 25.50540194103644 25.50540194103644 25.527375938472808 25.527375938472808 25.527375938472808 25.527375938472808 25.527375938472808 25.50540194103644 25.527375938472808 25.527375938472808 25.527375938472808 25.527375938472808 25.527375938472808 25.527375938472808 25.527375938472808 25.50540194103644 25.50540194103644 25.50540194103644 25.50540194103644 25.50540194103644 25.50540194103644 25.50540194103644 25.527375938472808 25.527375938472808 25.527375938472808 25.50540194103644 25.50540194103644 25.50540194103644 25.50540194103644 25.50540194103644 25.50540194103644 25.50540194103644 25.50540194103644 25.50540194103644 25.50540194103644 25.50540194103644 25.50540194103644 25.50540194103644 25.50540194103644 25.50540194103644 25.50540194103644 25.483427943600073 25.483427943600073 25.483427943600073 25.50540194103644 25.483427943600073 25.483427943600073 25.50540194103644 25.483427943600073 25.483427943600073 25.483427943600073 25.483427943600073 25.483427943600073 25.483427943600073 25.483427943600073 25.483427943600073 25.483427943600073 25.483427943600073 25.483427943600073 25.483427943600073 25.461453946163708 25.483427943600073 25.483427943600073 25.483427943600073 25.483427943600073 25.483427943600073 25.483427943600073 25.483427943600073 25.483427943600073 25.483427943600073 25.483427943600073 25.483427943600073 25.483427943600073 25.483427943600073 25.483427943600073 25.483427943600073 25.483427943600073 25.483427943600073 25.483427943600073 25.483427943600073 25.483427943600073 25.483427943600073 25.461453946163708 25.483427943600073 25.483427943600073 25.461453946163708 25.461453946163708 25.483427943600073 25.461453946163708 25.461453946163708 25.461453946163708 25.461453946163708 25.461453946163708 25.461453946163708 25.461453946163708 25.461453946163708 25.461453946163708 25.461453946163708 25.461453946163708 25.483427943600073 25.483427943600073 25.483427943600073 25.483427943600073 25.483427943600073 25.483427943600073 25.483427943600073 25.483427943600073 25.483427943600073 25.483427943600073 25.483427943600073 25.483427943600073 25.483427943600073 25.483427943600073 25.483427943600073 25.483427943600073 25.483427943600073 25.483427943600073 25.483427943600073 25.483427943600073 25.483427943600073 25.483427943600073 25.483427943600073 25.483427943600073 25.483427943600073 25.483427943600073 25.483427943600073 25.483427943600073 25.483427943600073 25.483427943600073 25.483427943600073 25.483427943600073 25.483427943600073 25.50540194103644 25.483427943600073 25.50540194103644 25.483427943600073 25.50540194103644 25.50540194103644 25.50540194103644 25.483427943600073 25.50540194103644 25.50540194103644 25.50540194103644 25.50540194103644 25.50540194103644 25.50540194103644 25.50540194103644 25.50540194103644 25.50540194103644 25.50540194103644 25.50540194103644 25.50540194103644 25.50540194103644 25.527375938472808 25.527375938472808 25.527375938472808 25.527375938472808 25.549349935909174 25.571323933345543 25.593297930781908 25.637245925654643 25.769089910272843 25.878959897454678 26.032777879509247 26.208569859000182 26.42830983336385 26.691997802600255 27.351217725691264 27.548983702618568 28.12030763596411 28.71360556674602 29.219007507782457 29.746383446255265 30.603369346273574 31.130745284746382 31.81193920527376 32.0536531770738 32.800769089910276 33.789598974546784 34.80040285661967 35.13001281816517 36.03094671305622 36.294634682292624 37.28346456692913 37.72294451565647 38.27229445156565 38.97546236952939 39.458890313129466 40.249954220838674 40.99707013367515 41.54642006958433 42.35945797472991 42.97472990294818 43.87566379783922 45.17212964658488 45.83134956967588 46.908075444057864 47.65519135689434 48.42428126716719 49.76469511078557 50.204175059512906 51.149056949276684 52.40157480314961 53.01684673136788 53.895806628822555 54.4671305621681 55.28016846731368 56.07123237502289 56.598608313495696 57.389672221204904 58.13678813404138 58.73008606482329 59.47720197765977 60.026551913568944 61.12525178538729 61.96026368796924 62.61948361106025 63.23475553927852 64.00384544955136 64.59714338033328 65.78373924189708 66.377037172679 67.27797106757004 68.20087895989745 68.8381248855521 69.45339681377037 70.72788866507966 71.34316059329794 72.1561984984435 72.79344442409815 73.73832631386193 74.77110419337117 75.6940120856986 76.24336202160777 76.96850393700788 77.49587987548068 78.2869437831899 78.79234572422632 79.58340963193555 80.66013550631753 81.49514740889947 81.82475737044497 82.48397729353599 82.96740523713606 83.69254715253618 84.46163706280902 85.16480498077274 85.91192089360922 86.3953488372093 86.90075077824574 87.64786669108221 88.24116462186413 88.87841054751877 89.40578648599158 89.95513642190075 90.5923823475554 91.07581029115548 91.73503021424648 92.35030214246476 92.7897820911921 93.40505401941037 93.7786119758286 94.32796191173779 94.85533785021059 95.38271378868339 95.73429774766527 96.1078557040835 96.437465665629 96.83299761948362 97.00878959897454 97.27247756821096 97.36037355795642 97.38234755539278 97.38234755539278 97.38234755539278 97.29445156564732 97.09668558872002 96.85497161691998 96.67917963742904 96.26167368613807 95.95403772202894 95.5145577733016 95.20692180919247 94.72349386559239 94.24006592199231 93.93242995788317 93.47097601171946 92.9875480681194 92.5260941219557 91.95477018861015 91.7130562168101 91.1856802783373 90.4605383629372 90.10895440395532 89.60355246291888 89.14209851675518 88.81248855520967 88.35103460904597 88.10932063724593 87.51602270646401 86.98864676799121 86.54916681926387 85.88994689617286 84.96703900384546 84.5275590551181 84.04413111151804 83.58267716535434 82.92345724226331 82.28621131660869 81.62699139351767 81.03369346273576 80.44039553195387 79.78117560886285 79.31972166269914 79.09998168833548 78.52865775498992 77.78154184215344 77.42995788317158 76.90258194469877 76.3532320087896 75.93572605749863 75.45229811389855 75.07874015748033 74.50741622413477 73.7603003112983 73.4966123420619 72.94726240615272 72.57370444973449 71.7606665445889 71.12342061893426 70.8377586522615 70.11261673686138 69.25563083684307 68.64035890862479 67.43178904962461 66.86046511627907 66.22321919062443 65.27833730086064 64.66306537264236 64.02581944698773 62.68540560336935 61.9163156930965 60.94945980589635 60.224317890496245 58.83995605200513 58.20271012635048 57.54349020325947 56.598608313495696 55.69767441860465 55.03845449551364 54.24739058780443 53.720014649331624 53.060794726240616 52.2038088262223 51.69840688518586 51.19300494414942 50.75352499542208 50.336019044131106 49.808643105658305 49.237319172312766 48.68796923640359 48.09467130562168 47.69913935176707 47.30360739791247 46.424647500457795 46.00714154916682 45.34792162607581 44.86449368247574 44.18329976194836 43.502105841420985 43.040651895257284 42.35945797472991 41.67826405420253 41.19483611060245 40.447720197765975 40.074162241347736 39.39296832082036 38.75572239516572 38.11847646951108 37.72294451565647 37.129646584874564 36.668192638710856 36.03094671305622 35.81120673869255 35.15198681560154 34.62461087712873 34.27302691814686 33.74565097967405 33.569859000183115 32.932613074528476 32.4491851309284 31.96575718732833 31.59219923091009 31.108771287310017 30.757187328328143 30.22981138985534 29.9221754257462 29.438747482146127 28.955319538546053 28.62570957700055 27.922541659036806 27.592931697491302 27.241347738509432 26.67002380516389 26.45028383080022 26.23054385643655 26.120673869254716 26.054751876945616 25.988829884636512 25.944881889763778 25.922907892327412 25.900933894891047 25.856985900018312 25.813037905145578 25.769089910272843 25.747115912836477 25.703167917963743 25.681193920527377 25.65921992309101 25.65921992309101 25.637245925654643 25.637245925654643 25.615271928218274 25.615271928218274 25.615271928218274 25.615271928218274 25.615271928218274 25.615271928218274 25.615271928218274 25.593297930781908 25.593297930781908 25.571323933345543 25.571323933345543 25.549349935909174 25.549349935909174 25.527375938472808 25.527375938472808 25.50540194103644 25.50540194103644 25.50540194103644 25.483427943600073 25.483427943600073 25.483427943600073 25.461453946163708 25.461453946163708 25.461453946163708 25.43947994872734 25.43947994872734 25.43947994872734 25.43947994872734 25.417505951290973 25.417505951290973 25.417505951290973 25.417505951290973 25.417505951290973 25.417505951290973 25.417505951290973 25.417505951290973 25.417505951290973 25.417505951290973 25.417505951290973 25.417505951290973 25.417505951290973 25.417505951290973 25.417505951290973 25.417505951290973 25.417505951290973 25.417505951290973 25.417505951290973 25.417505951290973 25.417505951290973 25.417505951290973 25.395531953854604 25.395531953854604 25.395531953854604 25.395531953854604 25.395531953854604 25.395531953854604 25.395531953854604 25.395531953854604 25.395531953854604 25.395531953854604 25.395531953854604 25.395531953854604 25.395531953854604 25.395531953854604 25.395531953854604 25.395531953854604 25.395531953854604 25.395531953854604 25.395531953854604 25.395531953854604 25.395531953854604 25.395531953854604 25.395531953854604 25.395531953854604 25.395531953854604 25.395531953854604 25.37355795641824 25.395531953854604 25.395531953854604 25.395531953854604 25.395531953854604 25.395531953854604 25.37355795641824 25.37355795641824 25.395531953854604 25.395531953854604 25.395531953854604 25.395531953854604 25.37355795641824 25.395531953854604 25.395531953854604 25.395531953854604 25.395531953854604 25.37355795641824 25.395531953854604 25.395531953854604 25.37355795641824 25.37355795641824 25.37355795641824 25.37355795641824 25.37355795641824 25.37355795641824 25.37355795641824 25.37355795641824 25.37355795641824 25.37355795641824 25.37355795641824 25.37355795641824 25.37355795641824 25.37355795641824 25.35158395898187 25.37355795641824 25.37355795641824 25.35158395898187 25.37355795641824 25.35158395898187 25.35158395898187 25.35158395898187 25.37355795641824 25.35158395898187 25.35158395898187 25.35158395898187 25.35158395898187 25.35158395898187 25.35158395898187 25.37355795641824 25.35158395898187 25.35158395898187 25.35158395898187 25.35158395898187 25.35158395898187 25.35158395898187 25.35158395898187 25.35158395898187 25.35158395898187 25.35158395898187 25.35158395898187 25.35158395898187 25.35158395898187 25.329609961545504 25.329609961545504 25.329609961545504 25.30763596410914 25.329609961545504 25.329609961545504 25.329609961545504 25.30763596410914 25.30763596410914 25.30763596410914 25.30763596410914 25.30763596410914 25.30763596410914 25.30763596410914 25.30763596410914 25.28566196667277 25.30763596410914 25.28566196667277 25.28566196667277 25.28566196667277 25.28566196667277 25.28566196667277 25.28566196667277 25.28566196667277 25.28566196667277 25.28566196667277 25.28566196667277 25.28566196667277 25.28566196667277 25.28566196667277 25.28566196667277 25.263687969236404 25.28566196667277 25.28566196667277 25.28566196667277 25.28566196667277 25.28566196667277 25.28566196667277 25.28566196667277 25.28566196667277 25.28566196667277 25.28566196667277 25.28566196667277 25.263687969236404 25.263687969236404 25.263687969236404 25.263687969236404 25.263687969236404 25.263687969236404 25.28566196667277 25.263687969236404 25.263687969236404 25.263687969236404 25.263687969236404 25.263687969236404 25.263687969236404 25.28566196667277 25.263687969236404 25.263687969236404 25.28566196667277 25.263687969236404 25.263687969236404 25.263687969236404 25.263687969236404 25.263687969236404 25.263687969236404 25.263687969236404 25.263687969236404 25.263687969236404 25.263687969236404 25.263687969236404 25.263687969236404 25.263687969236404 25.28566196667277 25.263687969236404 25.28566196667277 25.28566196667277 25.28566196667277 25.263687969236404 25.28566196667277 25.28566196667277 25.28566196667277 25.28566196667277 25.263687969236404 25.28566196667277 25.263687969236404 25.263687969236404 25.28566196667277 25.263687969236404 25.28566196667277 25.28566196667277 25.28566196667277 25.28566196667277 25.28566196667277 25.28566196667277 25.28566196667277 25.28566196667277 25.28566196667277 25.30763596410914 25.30763596410914 25.329609961545504 25.35158395898187 25.35158395898187 25.37355795641824 25.395531953854604 25.43947994872734 25.461453946163708 25.527375938472808 25.593297930781908 25.65921992309101 25.813037905145578 25.878959897454678 26.054751876945616 26.274491851309286 26.494231825672955 26.88976377952756 27.395165720564 27.90056766160044 28.47189159494598 28.735579564182384 29.306903497527927 30.097967405237135 30.537447353964474 31.21864127449185 31.87786119758286 32.36128914118294 32.998535066837576 33.48196301043765 34.09723493865592 34.73448086431057 35.21790880791064 35.81120673869255 36.22871268998352 36.843984618201794 37.48123054385644 37.98663248489288 38.49203442592932 39.12928035158396 39.5687603003113 40.469694195202344 40.953122138802414 41.70023805163889 42.51327595678447 43.106573887566384 43.699871818348285 44.99633766709394 45.69950558505768 46.754257462003295 47.47939937740341 48.62204724409449 49.720747115912836 50.577733015931145 51.63248489287676 52.66526277238601 53.500274674967955 54.37923457242263 55.06042849295001 56.422816334004764 57.016114264786665 57.67533418787768 58.62021607764146 59.587071964841606 60.246291887932614 61.5207837392419 62.18000366233291 63.124885552096686 64.06976744186046 64.72898736495148 65.34425929316976 66.61875114447903 67.29994506500641 68.22285295733383 68.86009888298847 69.84892876762498 70.66196667277055 71.56290056766161 72.13422450100714 72.94726240615272 73.4966123420619 74.24372825489837 74.85900018311665 75.93572605749863 76.6828419703351 77.18824391137156 77.67167185497162 78.44076176524446 78.96813770371728 80.06683757553562 80.83592748580847 81.36330342428127 82.11041933711775 82.54989928584509 83.0772752243179 83.7364951474089 84.48361106024538 85.23072697308186 85.75810291155466 86.50521882439114 87.25233473722761 87.77971067570043 88.4609045962278 88.87841054751877 89.53763047060978 90.24079838857352 90.7242263321736 91.42739425013734 92.35030214246476 92.81175608862846 93.27321003479217 93.66874198864677 94.28401391686505 94.87731184764695 95.86614173228347 96.1078557040835 96.61325764511994 96.98681560153818 97.47024354513825 97.79985350668376 98.21735945797472 98.6348654092657 98.832631386193 99.14026735030214 99.42592931697492 99.49185130928402 99.62369529390222 99.68961728621132 99.71159128364768 99.73356528108405 99.73356528108405 99.71159128364768 99.60172129646585 99.42592931697492 99.20618934261125 98.9644753708112 98.74473539644754 98.3052554477202 98.06354147592016 97.66800952206556 97.20655557590185 96.87694561435634 96.39351767075628 96.06390770921077 95.58047976561069 95.09705182201061 94.76744186046513 94.28401391686505 93.6467679912104 93.47097601171946 92.94360007324666 92.57004211682842 91.77897820911922 91.36147225782824 90.96594030397362 90.19685039370079 89.80131843984618 89.38381248855521 88.61472257828237 88.19721662699139 87.77971067570043 87.16443874748215 86.57114081670024 85.9338948910456 85.49441494231826 84.79124702435452 84.17597509613624 83.75846914484526 83.14319721662699 82.57187328328145 82.15436733199049 81.51712140633583 80.9457974729903 80.04486357809925 79.29774766526278 78.6824757370445 78.2210217908808 77.51785387291704 77.03442592931697 76.04559604468047 75.51822010620765 74.35359824208021 73.7603003112983 73.16700238051638 72.57370444973449 71.54092657022522 70.94762863944334 70.04669474455227 69.32155282915217 67.19007507782457 66.4429591649881 65.78373924189708 65.19044131111518 64.66306537264236 64.13568943416956 63.542391503387655 63.058963559787585 62.35579564182384 61.41091375206006 60.97143380333272 60.575901849478115 60.158395898187145 59.82878593664164 59.27943600073247 58.64219007507782 57.98297015198681 57.323750228895804 56.884270280168465 56.400842336568395 55.52188243911371 55.03845449551364 54.37923457242263 53.895806628822555 53.170664713422454 52.53341878776781 52.09393883904047 51.39077092107672 50.90734297747665 50.35799304156748 49.676799121040105 49.2153451748764 48.62204724409449 47.83098333638527 47.43545138253067 46.973997436366965 46.622413477385095 46.00714154916682 45.0842336568394 44.73264969785754 43.831715802966485 43.040651895257284 42.53524995422084 41.9639260208753 41.23878410547519 40.42574620032961 39.7006042849295 39.173228346456696 38.42611243362022 37.74491851309284 37.261490569492764 36.668192638710856 36.250686687419886 35.63541475920161 34.9761948361106 34.55868888481963 33.767624977110415 33.39406702069218 32.998535066837576 32.27339315143747 31.89983519501923 31.52627723860099 30.757187328328143 30.36165537447354 29.746383446255265 29.262955502655192 28.71360556674602 28.12030763596411 27.74674967954587 27.04358176158213 26.691997802600255 26.36238784105475 26.164621864127447 26.01080388207288 25.922907892327412 25.791063907709212 25.769089910272843 25.747115912836477 25.703167917963743 25.65921992309101 25.571323933345543 25.50540194103644 25.483427943600073 25.461453946163708 25.43947994872734 25.417505951290973 25.395531953854604 25.395531953854604 25.35158395898187 25.329609961545504 25.329609961545504 25.329609961545504 25.30763596410914 25.329609961545504 25.30763596410914 25.30763596410914 25.30763596410914 25.30763596410914 25.30763596410914 25.30763596410914 25.28566196667277 25.30763596410914 25.30763596410914 25.28566196667277 25.28566196667277 25.30763596410914 25.30763596410914 25.30763596410914 25.28566196667277 25.28566196667277 25.28566196667277 25.28566196667277 25.28566196667277 25.30763596410914 25.28566196667277 25.28566196667277 25.28566196667277 25.28566196667277 25.28566196667277 25.263687969236404 25.263687969236404 25.263687969236404 25.263687969236404 25.263687969236404 25.263687969236404 25.263687969236404 25.263687969236404 25.263687969236404 25.263687969236404 25.263687969236404 25.263687969236404 25.263687969236404 25.263687969236404 25.263687969236404 25.263687969236404 25.263687969236404 25.263687969236404 25.263687969236404 25.263687969236404 25.263687969236404 25.241713971800035 25.263687969236404 25.263687969236404 25.263687969236404 25.241713971800035 25.263687969236404 25.263687969236404 25.263687969236404 25.263687969236404 25.263687969236404 25.263687969236404 25.263687969236404 25.263687969236404 25.263687969236404 25.263687969236404 25.263687969236404 25.263687969236404 25.263687969236404 25.263687969236404 25.241713971800035 25.263687969236404 25.241713971800035 25.263687969236404 25.263687969236404 25.263687969236404 25.263687969236404 25.263687969236404 25.241713971800035 25.241713971800035 25.241713971800035 25.241713971800035 25.263687969236404 25.241713971800035 25.263687969236404 25.263687969236404 25.241713971800035 25.241713971800035 25.241713971800035 25.241713971800035 25.241713971800035 25.241713971800035 25.241713971800035 25.241713971800035 25.241713971800035 25.241713971800035 25.241713971800035 25.241713971800035 25.241713971800035 25.241713971800035 25.241713971800035 25.241713971800035 25.241713971800035 25.241713971800035 25.241713971800035 25.241713971800035 25.21973997436367 25.21973997436367 25.21973997436367 25.21973997436367 25.21973997436367 25.241713971800035 25.21973997436367 25.241713971800035 25.21973997436367 25.21973997436367 25.197765976927304 25.21973997436367 25.21973997436367 25.197765976927304 25.197765976927304 25.21973997436367 25.21973997436367 25.197765976927304 25.21973997436367 25.21973997436367 25.21973997436367 25.21973997436367 25.21973997436367 25.21973997436367 25.21973997436367 25.21973997436367 25.21973997436367 25.21973997436367 25.21973997436367 25.21973997436367 25.197765976927304 25.21973997436367 25.197765976927304 25.197765976927304 25.21973997436367 25.21973997436367 25.21973997436367 25.21973997436367 25.21973997436367 25.21973997436367 25.21973997436367 25.21973997436367 25.21973997436367 25.21973997436367 25.21973997436367 25.21973997436367 25.21973997436367 25.21973997436367 25.21973997436367 25.21973997436367 25.21973997436367 25.21973997436367 25.21973997436367 25.21973997436367 25.21973997436367 25.21973997436367 25.21973997436367 25.21973997436367 25.21973997436367 25.197765976927304 25.21973997436367 25.21973997436367 25.21973997436367 25.21973997436367 25.21973997436367 25.21973997436367 25.21973997436367 25.21973997436367 25.21973997436367 25.21973997436367 25.21973997436367 25.21973997436367 25.21973997436367 25.21973997436367 25.197765976927304 25.197765976927304 25.21973997436367 25.21973997436367 25.21973997436367 25.197765976927304 25.197765976927304 25.197765976927304 25.21973997436367 25.21973997436367 25.21973997436367 25.21973997436367 25.21973997436367 25.21973997436367 25.21973997436367 25.21973997436367 25.21973997436367 25.197765976927304 25.21973997436367 25.197765976927304 25.197765976927304 25.21973997436367 25.21973997436367 25.21973997436367 25.197765976927304 25.21973997436367 25.21973997436367 25.197765976927304 25.21973997436367 25.197765976927304 25.197765976927304 25.197765976927304 25.21973997436367 25.21973997436367 25.21973997436367 25.21973997436367 25.21973997436367 25.21973997436367 25.21973997436367 25.21973997436367 25.21973997436367 25.21973997436367 25.21973997436367 25.241713971800035 25.241713971800035 25.241713971800035 25.241713971800035 25.241713971800035 25.241713971800035 25.241713971800035 25.263687969236404 25.263687969236404 25.28566196667277 25.28566196667277 25.30763596410914 25.329609961545504 25.37355795641824 25.417505951290973 25.50540194103644 25.549349935909174 25.615271928218274 25.835011902581943 25.900933894891047 26.01080388207288 26.164621864127447 26.406335835927486 26.867789782091194 27.10950375389123 27.417139718000367 28.05438564365501 28.449917597509614 29.087163523164257 29.526643471891596 30.185863394982604 30.86705731550998 31.35048525911005 32.07562717451016 32.800769089910276 33.32814502838308 34.09723493865592 34.62461087712873 35.39370078740157 36.22871268998352 37.041750595129095 37.635048525911 38.40413843618385 38.97546236952939 40.008240249038636 40.469694195202344 41.30470609778429 42.0957700054935 42.64511994140267 43.194469877311846 44.16132576451199 44.6887017029848 45.43581761582128 45.985167551730456 46.79820545687603 47.47939937740341 48.02874931331258 48.81981322102179 49.588903131294636 50.138253067203806 50.92931697491302 51.56656290056766 52.48947079289508 53.03882072880425 53.566196667277055 54.37923457242263 55.21424647500458 55.76359641091375 56.906244277604834 57.52151620582311 58.33455411096869 59.21351400842337 59.872733931514375 60.53195385460538 61.74052371360557 62.39974363669658 63.366599523896724 64.04779344442409 65.10254532136972 66.46493316242447 67.19007507782457 67.84929500091559 68.55246291887933 69.5632668009522 70.88170664713422 71.34316059329794 72.44186046511629 73.34279436000733 74.0239882805347 74.77110419337117 75.6940120856986 76.28731001648049 77.276139901117 77.78154184215344 78.52865775498992 79.25379967039004 79.73722761399011 80.37447353964475 80.83592748580847 81.49514740889947 82.15436733199049 82.44002929866325 82.98937923457243 83.53872917048159 84.1320271012635 84.74729902948178 85.09888298846366 85.78007690899102 86.21955685771837 86.70298480131844 87.31825672953671 88.15326863211865 88.592748580846 89.25196850393701 89.44973448086431 90.17487639626442 90.87804431422816 91.66910822193738 92.37227613990112 93.09741805530123 93.58084599890131 94.21809192455594 94.63559787584691 95.31679179637429 95.9760117194653 96.67917963742904 97.09668558872002 97.73393151437466 98.15143746566564 98.89855337850211 99.0963193554294 99.53579930415674 99.93133125801135 100.19501922724776 100.48068119392053 100.78831715802967 100.8981871452115 100.98608313495697 101.00805713239333 101.0300311298297 101.0300311298297 101.00805713239333 100.87621314777513 100.78831715802967 100.67844717084783 100.5026551913569 100.3048892144296 100.06317524262955 99.77751327595679 99.57974729902948 99.25013733748398 99.03039736312031 98.72276139901118 98.28328145028384 98.01959348104744 97.53616553744736 97.0307635964109 96.65720563999268 95.9100897271562 95.5145577733016 95.18494781175609 94.54770188610145 94.19611792711957 93.84453396813771 93.07544405786486 92.46017212964658 92.04266617835562 91.60318622962828 90.9219923091009 90.24079838857352 89.82329243728255 89.27394250137338 88.74656656290057 88.37300860648233 87.75773667826405 87.29628273210035 86.43929683208204 85.78007690899102 85.538362937191 84.85716901666362 84.17597509613624 83.75846914484526 83.03332722944516 82.46200329609962 81.80278337300861 81.1435634499176 80.68210950375389 80.22065555759019 79.25379967039004 78.79234572422632 78.0891778062626 77.58377586522616 76.83665995238968 76.06757004211683 75.16663614722579 74.50741622413477 73.71635231642557 73.07910639077092 71.87053653177074 71.21131660867974 70.35433070866142 69.54129280351583 68.90404687786119 67.82732100347921 67.58560703167919 66.75059512909723 65.9815052188244 65.41018128547884 64.75096136238784 64.02581944698773 63.564365500824024 63.058963559787585 62.35579564182384 61.60867972898736 60.88353781358725 60.378135872550814 59.69694195202344 59.01574803149606 58.26863211865959 57.54349020325947 57.235854239150335 56.64255630836843 55.917414392968325 55.43398644936825 54.73081853140451 53.785936641640724 53.302508698040654 52.59934078007691 52.2038088262223 51.6764328877495 50.73155099798572 50.138253067203806 49.479033144112805 48.75389122871269 48.29243728254899 47.65519135689434 47.193737410730634 46.556491485075995 45.94121955685772 45.54568760300312 44.97436366965757 44.46896172862113 44.09540377220289 43.590001831166454 43.216443874748215 42.71104193371177 42.07379600805713 41.74418604651163 41.37062809009339 40.90917414392968 40.447720197765975 39.986266251602274 39.722578282365866 39.34902032594763 38.71177440029299 38.36019044131112 37.94268449002014 37.48123054385644 37.1735945797473 36.73411463101996 36.426478666910825 36.00897271561985 35.61344076176525 35.19593481047427 34.93224684123787 34.66855887200147 34.29500091558323 33.96539095403772 33.657754989928584 33.350119025819446 33.020509064273945 32.75682109503754 32.29536714887384 32.07562717451016 31.636147225782825 31.46035524629189 31.262589269364586 31.08679728987365 30.713239333455412 30.471525361655374 30.251785387291704 30.054019410364404 29.76835744369163 29.460721479582496 29.262955502655192 28.933345541109688 28.603735579564184 28.38399560520051 28.010437648782275 27.790697674418606 27.373191723127633 27.087529756454863 26.88976377952756 26.713971800036624 26.45028383080022 26.29646584874565 26.208569859000182 26.186595861563816 26.186595861563816 26.164621864127447 26.164621864127447 26.164621864127447 26.14264786669108 26.098699871818347 26.054751876945616 26.032777879509247 25.988829884636512 25.944881889763778 25.922907892327412 25.878959897454678 25.835011902581943 25.835011902581943 25.791063907709212 25.769089910272843 25.72514191540011 25.681193920527377 25.681193920527377 25.637245925654643 25.615271928218274 25.615271928218274 25.593297930781908 25.593297930781908 25.571323933345543 25.571323933345543 25.571323933345543 25.549349935909174 25.549349935909174 25.527375938472808 25.527375938472808 25.527375938472808 25.527375938472808 25.50540194103644 25.50540194103644 25.50540194103644 25.483427943600073 25.483427943600073 25.483427943600073 25.483427943600073 25.461453946163708 25.461453946163708 25.43947994872734 25.43947994872734 25.43947994872734 25.417505951290973 25.417505951290973 25.417505951290973 25.417505951290973 25.417505951290973 25.417505951290973 25.395531953854604 25.395531953854604 25.395531953854604 25.395531953854604 25.395531953854604 25.395531953854604 25.395531953854604 25.395531953854604 25.37355795641824 25.395531953854604 25.37355795641824 25.395531953854604 25.395531953854604 25.37355795641824 25.37355795641824 25.37355795641824 25.37355795641824 25.37355795641824 25.37355795641824 25.37355795641824 25.37355795641824 25.37355795641824 25.37355795641824 25.37355795641824 25.37355795641824 25.37355795641824 25.37355795641824 25.37355795641824 25.37355795641824 25.37355795641824 25.35158395898187 25.37355795641824 25.37355795641824 25.37355795641824 25.37355795641824 25.37355795641824 25.37355795641824 25.37355795641824 25.35158395898187 25.37355795641824 25.37355795641824 25.37355795641824 25.35158395898187 25.35158395898187 25.35158395898187 25.35158395898187 25.37355795641824 25.35158395898187 25.35158395898187 25.35158395898187 25.37355795641824 25.35158395898187 25.37355795641824 25.37355795641824 25.37355795641824 25.37355795641824 25.37355795641824 25.37355795641824 25.37355795641824 25.37355795641824 25.37355795641824 25.37355795641824 25.37355795641824 25.37355795641824 25.37355795641824 25.37355795641824 25.37355795641824 25.37355795641824 25.37355795641824 25.37355795641824 25.37355795641824 25.37355795641824 25.37355795641824 25.37355795641824 25.37355795641824 25.37355795641824 25.37355795641824 25.37355795641824 25.37355795641824 25.37355795641824 25.37355795641824 25.37355795641824 25.37355795641824 25.37355795641824 25.37355795641824 25.37355795641824 25.37355795641824 25.37355795641824 25.37355795641824 25.37355795641824 25.37355795641824 25.37355795641824 25.37355795641824 25.37355795641824 25.37355795641824 25.37355795641824 25.37355795641824 25.37355795641824 25.37355795641824 25.37355795641824 25.37355795641824 25.37355795641824 25.37355795641824 25.37355795641824 25.37355795641824 25.37355795641824 25.35158395898187 25.37355795641824 25.37355795641824 25.37355795641824 25.35158395898187 25.35158395898187 25.35158395898187 25.35158395898187 25.35158395898187 25.35158395898187 25.35158395898187 25.35158395898187 25.35158395898187 25.35158395898187 25.35158395898187 25.35158395898187 25.329609961545504 25.35158395898187 25.35158395898187 25.329609961545504 25.329609961545504 25.329609961545504 25.329609961545504 25.329609961545504 25.329609961545504 25.329609961545504 25.329609961545504 25.329609961545504 25.329609961545504 25.35158395898187 25.35158395898187 25.329609961545504 25.35158395898187 25.35158395898187 25.35158395898187 25.35158395898187 25.35158395898187 25.35158395898187 25.35158395898187 25.35158395898187 25.35158395898187 25.35158395898187 25.35158395898187 25.35158395898187 25.37355795641824 25.37355795641824 25.395531953854604 25.417505951290973 25.461453946163708 25.483427943600073 25.549349935909174 25.681193920527377 25.769089910272843 25.922907892327412 26.054751876945616 26.340413843618386 26.60410181285479 26.867789782091194 27.329243728254898 27.834645669291337 28.18622962827321 28.735579564182384 29.131111518036988 29.724409448818896 30.537447353964474 30.998901300128182 31.37245925654642 32.00970518220106 32.55905511811024 33.174327046328514 33.89946896172862 34.62461087712873 35.37172678996521 35.89910272843802 36.404504669474456 37.45925654642007 37.94268449002014 38.68980040285662 39.173228346456696 39.920344259293174 40.645486174693275 41.12891411829335 41.87603003112983 42.60117194652994 43.392235854239146 43.91961179271196 44.4909357260575 45.32594762863944 46.51254349020326 47.17176341329427 47.80900933894891 48.79783922358543 49.56692913385827 50.92931697491302 51.28090093389489 52.68723676982238 53.720014649331624 54.42318256729537 55.45596044680461 56.444790331441126 57.104010254532135 58.09284013916865 58.75206006225966 59.718915949459806 60.68577183665995 61.36696575718733 62.31184764695111 63.300677531587624 63.93792345724226 64.92675334187878 65.60794726240616 66.92638710858817 67.93719099066105 68.28877494964291 69.3655008240249 70.02472074711591 71.05749862662516 72.26606848562534 72.92528840871636 73.98004028566197 74.99084416773485 75.97967405237137 76.616919978026 77.21021790880792 77.9573338216444 78.77037172678996 79.34169566013551 80.13275956784472 81.25343343709943 81.58304339864495 82.28621131660869 82.79161325764511 83.51675517304523 84.21992309100898 84.74729902948178 85.7361289141183 86.46127082951841 86.98864676799121 87.69181468595497 88.13129463468229 88.57077458340964 89.36183849111885 89.77934444240981 90.37264237319172 90.98791430141 91.3834462552646 92.13056216810108 92.35030214246476 92.83373008606483 93.33913202710126 93.62479399377403 94.06427394250137 94.43783189891961 94.87731184764695 95.22889580662883 95.42666178355613 95.69034975279253 95.95403772202894 96.15180369895623 96.437465665629 96.59128364768357 96.65720563999268 96.67917963742904 96.70115363486542 96.72312763230178 96.67917963742904 96.5693096502472 96.41549166819264 96.08588170664714 95.80021973997437 95.31679179637429 94.94323383995605 94.37190990661051 93.75663797839223 93.3171580296649 92.74583409631936 92.35030214246476 91.53726423731918 90.94396630653726 90.61435634499176 90.13092840139169 89.58157846548252 89.22999450650065 88.50485259110053 88.15326863211865 87.60391869620949 86.98864676799121 86.54916681926387 86.1316608679729 85.4065189525728 84.98901300128182 84.3957150704999 84.0001831166453 83.42885918329976 82.8135872550815 82.35213330891779 81.75883537813587 81.09961545504487 80.61618751144479 79.60538362937191 79.34169566013551 78.57260574986266 77.84746383446256 77.0783739241897 76.57297198315328 75.75993407800769 75.14466214978941 74.0239882805347 73.45266434718917 72.81541842153452 71.91448452664348 71.40908258560702 70.94762863944334 70.02472074711591 69.2995788317158 68.57443691631569 68.00311298297015 66.97033510346091 66.46493316242447 65.93755722395166 65.27833730086064 64.5092473905878 63.93792345724226 63.10291155466032 62.18000366233291 61.32301776231459 60.81761582127815 60.312213880241714 59.652993957150706 58.94982603918696 58.46639809558689 57.45559421351401 56.950192272477565 56.115180369895626 55.21424647500458 54.6648965390954 54.02765061344076 53.170664713422454 52.291704815967776 51.36879692364036 50.77549899285845 49.91851309284014 48.86376121589453 48.31441127998535 47.78703534151254 47.391503387657934 46.754257462003295 46.13898553378502 45.72147958249405 44.84251968503937 44.18329976194836 43.721845815784654 43.260391869620946 42.842885918329976 42.20563999267533 41.39260208752975 40.97509613623878 40.381798205456874 39.788500274674966 39.41494231825673 38.86559238234756 38.51400842336568 38.05255447720198 37.61307452847464 37.34938655923823 36.953854605383626 36.58029664896539 36.20673869254715 35.85515473356528 35.59146676432888 35.34975279252884 35.06409082585607 34.82237685405603 34.49276689251053 34.009338948910454 33.767624977110415 33.372093023255815 33.240249038637614 32.84471708478301 32.36128914118294 31.94378318989196 31.41640725141915 30.889031312946347 30.537447353964474 30.010071415491666 29.658487456509796 29.219007507782457 28.71360556674602 28.581761582127815 28.25215162058231 27.96648965390954 27.790697674418606 27.527009705182202 27.373191723127633 27.241347738509432 27.10950375389123 26.933711774400294 26.845815784654825 26.73594579747299 26.60410181285479 26.45028383080022 26.38436183849112 26.29646584874565 26.208569859000182 26.14264786669108 26.032777879509247 25.988829884636512 25.900933894891047 25.791063907709212 25.703167917963743 25.593297930781908 25.50540194103644 25.43947994872734 25.35158395898187 25.329609961545504 25.28566196667277 25.263687969236404 25.263687969236404 25.28566196667277 25.263687969236404 25.263687969236404 25.241713971800035 25.263687969236404 25.241713971800035 25.241713971800035 25.241713971800035 25.241713971800035 25.241713971800035 25.21973997436367 25.241713971800035 25.241713971800035 25.241713971800035 25.21973997436367 25.21973997436367 25.21973997436367 25.21973997436367 25.197765976927304 25.21973997436367 25.197765976927304 25.197765976927304 25.197765976927304 25.197765976927304 25.21973997436367 25.21973997436367 25.197765976927304 25.21973997436367 25.197765976927304 25.21973997436367 25.197765976927304 25.21973997436367 25.197765976927304 25.21973997436367 25.197765976927304 25.21973997436367 25.21973997436367 25.197765976927304 25.197765976927304 25.21973997436367 25.21973997436367 25.21973997436367 25.21973997436367 25.197765976927304 25.21973997436367 25.21973997436367 25.197765976927304 25.197765976927304 25.21973997436367 25.21973997436367 25.21973997436367 25.21973997436367 25.21973997436367 25.21973997436367 25.21973997436367 25.21973997436367 25.21973997436367 25.21973997436367 25.21973997436367 25.197765976927304 25.21973997436367 25.21973997436367 25.21973997436367 25.197765976927304 25.21973997436367 25.21973997436367 25.21973997436367 25.21973997436367 25.21973997436367 25.21973997436367 25.21973997436367 25.21973997436367 25.197765976927304 25.197765976927304 25.197765976927304 25.197765976927304 25.197765976927304 25.197765976927304 25.21973997436367 25.21973997436367 25.197765976927304 25.21973997436367 25.21973997436367 25.197765976927304 25.21973997436367 25.21973997436367 25.21973997436367 25.21973997436367 25.21973997436367 25.21973997436367 25.21973997436367 25.21973997436367 25.21973997436367 25.21973997436367 25.21973997436367 25.21973997436367 25.21973997436367 25.21973997436367 25.21973997436367 25.21973997436367 25.21973997436367 25.21973997436367 25.21973997436367 25.21973997436367 25.21973997436367 25.21973997436367 25.21973997436367 25.21973997436367 25.21973997436367 25.21973997436367 25.21973997436367 25.21973997436367 25.21973997436367 25.21973997436367 25.21973997436367 25.21973997436367 25.21973997436367 25.21973997436367 25.21973997436367 25.21973997436367 25.21973997436367 25.21973997436367 25.21973997436367 25.21973997436367 25.21973997436367 25.21973997436367 25.21973997436367 25.21973997436367 25.21973997436367 25.21973997436367 25.21973997436367 25.21973997436367 25.21973997436367 25.197765976927304 25.21973997436367 25.21973997436367 25.197765976927304 25.21973997436367 25.197765976927304 25.197765976927304 25.197765976927304 25.197765976927304 25.197765976927304 25.197765976927304 25.197765976927304 25.197765976927304 25.197765976927304 25.197765976927304 25.197765976927304 25.197765976927304 25.197765976927304 25.197765976927304 25.197765976927304 25.175791979490935 25.175791979490935 25.175791979490935 25.197765976927304 25.175791979490935 25.197765976927304 25.197765976927304 25.175791979490935 25.197765976927304 25.197765976927304 25.197765976927304 25.175791979490935 25.197765976927304 25.175791979490935 25.175791979490935 25.175791979490935 25.175791979490935 25.175791979490935 25.175791979490935 25.175791979490935 25.175791979490935 25.175791979490935 25.175791979490935 25.175791979490935 25.175791979490935 25.175791979490935 25.175791979490935 25.175791979490935 25.175791979490935 25.175791979490935 25.175791979490935 25.175791979490935 25.175791979490935 25.175791979490935 25.175791979490935 25.175791979490935 25.175791979490935 25.175791979490935 25.175791979490935 25.175791979490935 25.175791979490935 25.175791979490935 25.175791979490935 25.175791979490935 25.175791979490935 25.175791979490935 25.175791979490935 25.175791979490935 25.175791979490935 25.175791979490935 25.175791979490935 25.175791979490935 25.175791979490935 25.175791979490935 25.197765976927304 25.175791979490935 25.175791979490935 25.175791979490935 25.197765976927304 25.175791979490935 25.197765976927304 25.175791979490935 25.197765976927304 25.197765976927304 25.197765976927304 25.197765976927304 25.197765976927304 25.197765976927304 25.197765976927304 25.197765976927304 25.197765976927304 25.197765976927304 25.197765976927304 25.21973997436367 25.21973997436367 25.21973997436367 25.241713971800035 25.263687969236404 25.28566196667277 25.30763596410914 25.395531953854604 25.483427943600073 25.527375938472808 25.615271928218274 25.791063907709212 25.922907892327412 26.120673869254716 26.274491851309286 26.60410181285479 26.95568577183666 27.417139718000367 27.768723676982237 28.31807361289141 28.69163156930965 29.19703351034609 29.592565464200696 30.339681377037174 30.932979307819082 31.37245925654642 31.855887200146494 32.47115912836477 32.932613074528476 33.89946896172862 34.38289690532869 35.15198681560154 35.89910272843802 36.426478666910825 36.953854605383626 37.96465848745651 38.55795641823842 39.28309833363853 39.8324482695477 40.62351217725691 41.43655008240249 42.11774400292987 42.88683391320271 43.765793810657385 44.38106573887566 45.28199963376671 45.96319355429409 46.886101446621495 48.22651529023988 48.90770921076726 49.588903131294636 50.643655008240245 51.45669291338582 52.797106757004215 53.54422266984069 54.6648965390954 55.74162241347739 56.488738326313864 57.30177623145944 58.31258011353232 59.4552279802234 60.40010986998718 61.12525178538729 62.09210767258744 63.256729536714886 64.20161142647866 64.79490935726056 65.52005127266068 66.55282915216993 67.65152902398827 68.92602087529757 69.80498077275224 70.66196667277055 71.45303058047976 72.39791247024354 73.05713239333456 74.19978026002565 75.65006409082585 76.30928401391687 77.25416590368064 78.11115180369896 78.77037172678996 79.64933162424464 80.24262955502655 81.09961545504487 82.02252334737227 82.50595129097235 83.23109320637246 83.95623512177258 84.5275590551181 85.4724409448819 85.71415491668193 86.43929683208204 87.16443874748215 87.86760666544589 88.50485259110053 89.14209851675518 89.58157846548252 90.24079838857352 90.4605383629372 91.1197582860282 91.95477018861015 92.35030214246476 92.83373008606483 93.29518403222853 93.47097601171946 93.84453396813771 93.9104559604468 93.97637795275591 93.99835195019227 93.99835195019227 93.99835195019227 93.80058597326497 93.66874198864677 93.383080021974 93.27321003479217 92.96557407068303 92.59201611426478 92.30635414759202 91.7130562168101 91.3175242629555 90.94396630653726 90.4605383629372 90.28474638344626 89.75737044497345 89.36183849111885 89.12012451931881 88.70261856802784 88.4609045962278 88.10932063724593 87.71378868339133 87.29628273210035 86.96667277055485 86.57114081670024 86.21955685771837 85.62625892693646 85.25270097051822 84.63742904229994 83.8683391320271 83.4728071781725 83.0772752243179 82.52792528840871 82.13239333455411 81.62699139351767 81.03369346273576 80.52829152169933 79.93499359091741 79.51748763962644 79.05603369346274 78.1550997985717 77.71561984984436 77.05639992675334 76.52902398828054 75.86980406518953 75.12268815235305 74.63926020875297 73.8921442959165 73.2329243728255 72.72752243178905 72.04632851126168 71.56290056766161 70.9036806445706 70.04669474455227 69.51931880607947 68.99194286760667 68.15693096502471 67.47573704449735 66.53085515473356 65.9815052188244 65.30031129829702 64.55319538546054 63.915949459805894 63.432521516205824 62.33382164438748 61.76249771104193 60.94945980589635 60.641823841787215 59.982603918696206 59.2574620032961 58.77403405969603 58.07086614173228 57.49954220838674 56.906244277604834 56.02728438015016 55.52188243911371 54.81871452114997 54.269364585240794 53.80791063907709 53.01684673136788 52.51144479033144 51.34682292620399 50.445889031312944 49.76469511078557 48.84178721845816 47.89690532869437 47.259659403039734 46.57846548251236 45.67753158762132 44.90844167734847 44.09540377220289 43.436183849111885 42.95275590551181 42.11774400292987 41.74418604651163 41.34865409265702 40.97509613623878 40.49166819263871 39.986266251602274 39.656656290056766 39.01941036440212 38.55795641823842 38.20637245925654 37.78886650796557 37.59110053103827 37.2395165720564 36.624244643838125 36.316608679728986 35.67936275407435 35.37172678996521 35.0421168284197 34.53671488738326 34.141182933528654 33.61380699505585 33.020509064273945 32.55905511811024 32.00970518220106 31.394433253982786 30.779161325764512 30.163889397546235 29.9221754257462 29.19703351034609 28.823475553927853 28.449917597509614 27.834645669291337 27.417139718000367 27.197399743636698 26.97765976927303 26.95568577183666 26.88976377952756 26.845815784654825 26.82384178721846 26.82384178721846 26.80186778978209 26.779893792345725 26.691997802600255 26.626075810291155 26.51620582310932 26.45028383080022 26.406335835927486 26.340413843618386 26.274491851309286 26.186595861563816 26.07672587438198 26.01080388207288 25.944881889763778 25.878959897454678 25.835011902581943 25.747115912836477 25.703167917963743 25.65921992309101 25.637245925654643 25.615271928218274 25.615271928218274 25.615271928218274 25.615271928218274 25.615271928218274 25.615271928218274 25.615271928218274 25.615271928218274 25.615271928218274 25.615271928218274 25.615271928218274 25.615271928218274 25.615271928218274 25.615271928218274 25.615271928218274 25.615271928218274 25.615271928218274 25.615271928218274 25.615271928218274 25.615271928218274 25.615271928218274 25.615271928218274 25.615271928218274 25.615271928218274 25.615271928218274 25.593297930781908 25.593297930781908 25.593297930781908 25.593297930781908 25.593297930781908 25.571323933345543 25.571323933345543 25.571323933345543 25.571323933345543 25.549349935909174 25.571323933345543 25.549349935909174 25.549349935909174 25.549349935909174 25.549349935909174 25.549349935909174 25.549349935909174 25.549349935909174 25.549349935909174 25.549349935909174 25.527375938472808 25.527375938472808 25.549349935909174 25.549349935909174 25.527375938472808 25.549349935909174 25.527375938472808 25.527375938472808 25.527375938472808 25.527375938472808 25.527375938472808 25.527375938472808 25.527375938472808 25.527375938472808 25.527375938472808 25.527375938472808 25.527375938472808 25.527375938472808 25.50540194103644 25.50540194103644 25.50540194103644 25.50540194103644 25.50540194103644 25.50540194103644 25.50540194103644 25.50540194103644 25.50540194103644 25.50540194103644 25.50540194103644 25.50540194103644 25.50540194103644 25.50540194103644 25.50540194103644 25.50540194103644 25.50540194103644 25.50540194103644 25.483427943600073 25.483427943600073 25.50540194103644 25.483427943600073 25.50540194103644 25.50540194103644 25.483427943600073 25.483427943600073 25.483427943600073 25.483427943600073 25.483427943600073 25.483427943600073 25.483427943600073 25.483427943600073 25.483427943600073 25.483427943600073 25.461453946163708 25.461453946163708 25.461453946163708 25.461453946163708 25.483427943600073 25.461453946163708 25.483427943600073 25.461453946163708 25.461453946163708 25.461453946163708 25.461453946163708 25.461453946163708 25.483427943600073 25.461453946163708 25.461453946163708 25.461453946163708 25.461453946163708 25.461453946163708 25.461453946163708 25.461453946163708 25.461453946163708 25.461453946163708 25.461453946163708 25.461453946163708 25.461453946163708 25.461453946163708 25.461453946163708 25.461453946163708 25.461453946163708 25.461453946163708 25.461453946163708 25.461453946163708 25.461453946163708 25.461453946163708 25.43947994872734 25.43947994872734 25.43947994872734 25.43947994872734 25.43947994872734 25.43947994872734 25.43947994872734 25.43947994872734 25.43947994872734 25.43947994872734 25.43947994872734 25.43947994872734 25.43947994872734 25.43947994872734 25.43947994872734 25.43947994872734 25.43947994872734 25.43947994872734 25.43947994872734 25.43947994872734 25.43947994872734 25.43947994872734 25.43947994872734 25.461453946163708 25.43947994872734 25.43947994872734 25.461453946163708 25.461453946163708 25.461453946163708 25.461453946163708 25.43947994872734 25.461453946163708 25.461453946163708 25.461453946163708 25.461453946163708 25.43947994872734 25.461453946163708 25.461453946163708 25.461453946163708 25.461453946163708 25.461453946163708 25.461453946163708 25.461453946163708 25.461453946163708 25.43947994872734 25.43947994872734 25.43947994872734 25.461453946163708 25.461453946163708 25.43947994872734 25.43947994872734 25.43947994872734 25.43947994872734 25.43947994872734 25.43947994872734 25.43947994872734 25.43947994872734 25.43947994872734 25.43947994872734 25.43947994872734 25.43947994872734 25.43947994872734 25.43947994872734 25.43947994872734 25.43947994872734 25.43947994872734 25.43947994872734 25.43947994872734 25.43947994872734 25.43947994872734 25.43947994872734 25.43947994872734 25.43947994872734 25.43947994872734 25.43947994872734 25.43947994872734 25.43947994872734 25.43947994872734 25.43947994872734 25.43947994872734 25.43947994872734 25.43947994872734 25.43947994872734 25.43947994872734 25.43947994872734 25.43947994872734 25.43947994872734 25.43947994872734 25.43947994872734 25.43947994872734 25.417505951290973 25.43947994872734 25.43947994872734 25.43947994872734 25.43947994872734 25.43947994872734 25.43947994872734 25.43947994872734 25.43947994872734 25.43947994872734 25.43947994872734 25.417505951290973 25.43947994872734 25.43947994872734 25.43947994872734 25.461453946163708 25.483427943600073 25.527375938472808 25.549349935909174 25.593297930781908 25.637245925654643 25.72514191540011 25.813037905145578 25.878959897454678 25.988829884636512 26.14264786669108 26.274491851309286 26.80186778978209 26.97765976927303 27.329243728254898 27.790697674418606 28.16425563083684 28.449917597509614 29.131111518036988 29.48269547701886 29.966123420618935 30.29573338216444 30.823109320637247 31.46035524629189 31.833913202710125 32.20747115912837 32.712873100164806 33.086431056583045 33.61380699505585 34.009338948910454 34.80040285661967 35.41567478483794 35.85515473356528 36.272660684856255 37.15162058231093 37.3713605566746 38.31624244643838 38.88756637978392 39.810474272111335 40.315876213147774 40.84325215162058 41.65629005676616 42.46932796191174 43.172495879875484 44.007507782457424 44.6227797106757 45.54568760300312 46.490569492766895 47.4134773850943 48.11664530305805 48.77586522614906 49.56692913385827 50.40194103644021 50.99523896722212 51.85222486724043 52.95092473905878 53.478300677531585 54.269364585240794 54.64292254165903 55.21424647500458 55.983336385277426 56.466764328877495 57.43362021607764 58.42245010071415 58.88390404687786 59.4552279802234 59.982603918696206 61.05932979307819 61.586705731551 62.13605566746017 62.88317158029665 63.718183482878594 64.26753341878776 65.08057132393334 65.73979124702436 66.48690715986083 67.21204907526095 67.76139901117011 68.53048892144295 69.38747482146127 70.24446072147958 71.12342061893426 71.56290056766161 72.17817249587988 73.1010803882073 73.8921442959165 74.81505218824393 75.65006409082585 76.19941402673503 76.96850393700788 77.49587987548068 78.24299578831716 79.05603369346274 79.62735762680828 80.46236952939023 81.58304339864495 82.19831532686322 82.74766526277239 83.31898919611793 84.57150704999086 84.96703900384546 85.49441494231826 86.30745284746384 87.03259476286395 87.55997070133675 88.13129463468229 88.4609045962278 88.94433253982787 89.73539644753708 90.15290239882806 90.76817432704634 91.1856802783373 91.75700421168284 92.35030214246476 92.9875480681194 93.3171580296649 93.62479399377403 93.9104559604468 94.34993590917415 94.56967588353781 94.85533785021059 95.11902581944699 95.22889580662883 95.40468778611975 95.55850576817433 95.6464017579198 95.66837575535617 95.66837575535617 95.6464017579198 95.44863578099249 95.14099981688335 95.00915583226515 94.41585790148325 94.02032594762865 93.62479399377403 93.27321003479217 92.7897820911921 92.02069218091924 91.64713422450102 91.2516022706464 90.5923823475554 90.19685039370079 89.55960446804615 89.12012451931881 88.41695660135505 87.42812671671855 86.59311481413661 86.32942684490021 85.45046694744553 84.87914301409998 84.04413111151804 83.03332722944516 82.44002929866325 81.93462735762681 81.53909540377221 81.09961545504487 80.24262955502655 79.78117560886285 79.12195568577184 78.6824757370445 78.0891778062626 77.45193188060796 77.0124519318806 76.37520600622597 75.75993407800769 75.25453213697125 74.66123420618933 73.93609229078925 73.47463834462553 72.50778245742538 72.00238051638894 71.45303058047976 71.0355246291888 70.02472074711591 69.40944881889763 68.94799487273393 68.24482695477019 67.65152902398827 67.21204907526095 66.59677714704267 66.1792711957517 65.49807727522432 64.88280534700604 64.2455594213514 63.784105475187694 63.036989562351216 62.50961362387841 61.60867972898736 61.08130379051456 60.158395898187145 59.27943600073247 58.66416407251419 57.125984251968504 56.51071232375023 56.20307635964109 55.17029848013185 54.62094854422267 53.720014649331624 52.48947079289508 51.85222486724043 50.84142098516755 49.852591100531036 49.171397180003666 47.91887932613075 47.391503387657934 46.73228346456693 45.89727156198498 45.36989562351218 44.6227797106757 43.74381981322102 43.326313861930046 42.95275590551181 42.55722395165721 41.98590001831167 41.43655008240249 41.06299212598425 40.381798205456874 39.898370261856805 39.590734297747666 39.12928035158396 38.93151437465666 38.49203442592932 37.81084050540194 37.45925654642007 36.887932613074526 36.360556674601725 35.96502472074712 35.23988280534701 34.9102728438015 34.49276689251053 33.96539095403772 33.61380699505585 32.866691082219376 32.800769089910276 32.3173411463102 31.96575718732833 31.72404321552829 31.50430324116462 31.24061527192822 31.064823292437282 30.757187328328143 30.603369346273574 30.383629371909905 30.185863394982604 30.032045412928035 29.900201428309835 29.61453946163706 29.460721479582496 29.219007507782457 29.043215528291523 28.801501556491484 28.515839589818714 28.12030763596411 28.05438564365501 27.74674967954587 27.570957700054933 27.307269730818533 27.10950375389123 26.80186778978209 26.406335835927486 26.252517853872916 26.186595861563816 26.098699871818347 25.988829884636512 25.966855887200147 25.900933894891047 25.878959897454678 25.835011902581943 25.813037905145578 25.769089910272843 25.72514191540011 25.703167917963743 25.681193920527377 25.681193920527377 25.65921992309101 25.65921992309101 25.637245925654643 25.637245925654643 25.615271928218274 25.615271928218274 25.593297930781908 25.571323933345543 25.571323933345543 25.571323933345543 25.571323933345543 25.571323933345543 25.571323933345543 25.571323933345543 25.571323933345543 25.571323933345543 25.571323933345543 25.571323933345543 25.571323933345543 25.571323933345543 25.571323933345543 25.571323933345543 25.571323933345543 25.571323933345543 25.571323933345543 25.571323933345543 25.571323933345543 25.571323933345543 25.571323933345543 25.571323933345543 25.571323933345543 25.571323933345543 25.549349935909174 25.571323933345543 25.571323933345543 25.549349935909174 25.571323933345543 25.549349935909174 25.571323933345543 25.549349935909174 25.571323933345543 25.571323933345543 25.571323933345543 25.571323933345543 25.549349935909174 25.571323933345543 25.571323933345543 25.571323933345543 25.549349935909174 25.549349935909174 25.549349935909174 25.549349935909174 25.549349935909174 25.549349935909174 25.549349935909174 25.571323933345543 25.549349935909174 25.549349935909174 25.549349935909174 25.571323933345543 25.549349935909174 25.549349935909174 25.549349935909174 25.549349935909174 25.549349935909174 25.549349935909174 25.571323933345543 25.549349935909174 25.549349935909174 25.549349935909174 25.549349935909174 25.549349935909174 25.571323933345543 25.571323933345543 25.571323933345543 25.549349935909174 25.549349935909174 25.549349935909174 25.549349935909174 25.549349935909174 25.549349935909174 25.549349935909174 25.571323933345543 25.549349935909174 25.549349935909174 25.549349935909174 25.571323933345543 25.571323933345543 25.549349935909174 25.571323933345543 25.571323933345543 25.549349935909174 25.549349935909174 25.571323933345543 25.571323933345543 25.571323933345543 25.571323933345543 25.571323933345543 25.571323933345543 25.571323933345543 25.571323933345543 25.571323933345543 25.571323933345543 25.571323933345543 25.571323933345543 25.571323933345543 25.571323933345543 25.571323933345543 25.571323933345543 25.571323933345543 25.571323933345543 25.571323933345543 25.571323933345543 25.571323933345543 25.571323933345543 25.571323933345543 25.571323933345543 25.571323933345543 25.571323933345543 25.571323933345543 25.571323933345543 25.571323933345543 25.571323933345543 25.571323933345543 25.593297930781908 25.571323933345543 25.593297930781908 25.571323933345543 25.571323933345543 25.571323933345543 25.571323933345543 25.571323933345543 25.571323933345543 25.571323933345543 25.571323933345543 25.571323933345543 25.571323933345543 25.571323933345543 25.571323933345543 25.571323933345543 25.571323933345543 25.549349935909174 25.571323933345543 25.571323933345543 25.549349935909174 25.549349935909174 25.571323933345543 25.549349935909174 25.549349935909174 25.549349935909174 25.549349935909174 25.549349935909174 25.549349935909174 25.549349935909174 25.549349935909174 25.549349935909174 25.549349935909174 25.549349935909174 25.549349935909174 25.549349935909174 25.527375938472808 25.527375938472808 25.527375938472808 25.527375938472808 25.527375938472808 25.50540194103644 25.50540194103644 25.50540194103644 25.50540194103644 25.50540194103644 25.50540194103644 25.50540194103644 25.50540194103644 25.50540194103644 25.50540194103644 25.483427943600073 25.483427943600073 25.50540194103644 25.50540194103644 25.483427943600073 25.50540194103644 25.50540194103644 25.50540194103644 25.483427943600073 25.50540194103644 25.50540194103644 25.483427943600073 25.50540194103644 25.50540194103644 25.483427943600073 25.50540194103644 25.483427943600073 25.50540194103644 25.50540194103644 25.50540194103644 25.50540194103644 25.50540194103644 25.483427943600073 25.50540194103644 25.50540194103644 25.50540194103644 25.50540194103644 25.483427943600073 25.50540194103644 25.483427943600073 25.483427943600073 25.50540194103644 25.50540194103644 25.483427943600073 25.50540194103644 25.50540194103644 25.50540194103644 25.50540194103644 25.50540194103644 25.527375938472808 25.527375938472808 25.527375938472808 25.527375938472808 25.527375938472808 25.527375938472808 25.527375938472808 25.527375938472808 25.549349935909174 25.571323933345543 25.615271928218274 25.637245925654643 25.681193920527377 25.72514191540011 25.769089910272843 25.900933894891047 25.944881889763778 26.07672587438198 26.340413843618386 26.51620582310932 26.999633766709394 27.131477751327594 27.636879692364037 28.05438564365501 28.230177623145945 28.62570957700055 29.065189525727888 29.54861746932796 30.054019410364404 30.383629371909905 30.889031312946347 31.394433253982786 31.767991210401025 32.3832631386193 32.998535066837576 33.54788500274675 34.09723493865592 34.53671488738326 35.21790880791064 36.184764695110786 36.668192638710856 37.15162058231093 37.92071049258378 38.44808643105658 39.21717634132943 39.8324482695477 40.88720014649331 41.76616004394799 42.27156198498443 42.842885918329976 43.392235854239146 44.24922175425746 45.45779161325764 46.468595495330526 47.17176341329427 48.00677531587621 48.70994323383995 49.786669108221936 50.511811023622045 51.56656290056766 52.68723676982238 53.390404687786116 54.42318256729537 55.49990844167735 56.57663431605933 57.323750228895804 57.91704815967771 59.23548800585973 59.894707928950744 60.55392785204175 61.8503937007874 62.81724958798755 63.498443508514924 64.35542940853324 64.68503937007874 65.91558322651528 66.5088811572972 67.60758102911555 68.22285295733383 68.94799487273393 69.54129280351583 70.33235671122506 71.167368613807 71.69474455227981 72.48580845998902 73.01318439846182 73.78227430873466 74.59531221388025 75.12268815235305 76.17744002929867 76.70481596777148 77.23219190624428 77.80351583958982 78.26496978575352 78.99011170115364 79.95696758835379 80.44039553195387 81.12158945248123 81.45119941402675 82.19831532686322 82.72569126533602 83.25306720380883 83.64859915766343 84.15400109869987 84.50558505768174 85.07690899102728 85.45046694744553 85.9998168833547 86.50521882439114 86.85680278337301 87.55997070133675 87.82365867057317 88.19721662699139 88.70261856802784 88.9882805347006 89.25196850393701 89.55960446804615 89.82329243728255 90.30672038088262 90.57040835011902 90.83409631935542 91.27357626808276 91.49331624244644 91.75700421168284 91.95477018861015 92.08661417322836 92.24043215528292 92.30635414759202 92.37227613990112 92.3942501373375 92.3942501373375 92.3942501373375 92.35030214246476 92.24043215528292 92.06464017579198 91.88884819630104 91.42739425013734 90.98791430141 90.65830433986449 90.328694378319 89.86724043215528 89.51565647317341 88.87841054751877 88.52682658853689 87.99945065006409 87.49404870902765 87.14246475004578 86.76890679362754 86.06573887566381 85.69218091924556 85.18677897820913 84.85716901666362 84.3957150704999 83.78044314228164 83.45083318073613 83.16517121406336 82.54989928584509 82.19831532686322 81.89067936275407 81.53909540377221 81.03369346273576 80.59421351400843 80.28657754989928 79.95696758835379 79.51748763962644 79.18787767808094 78.5506317524263 78.24299578831716 77.75956784471708 77.29811389855337 76.9465299395715 76.44112799853508 76.06757004211683 75.5621681010804 74.99084416773485 74.59531221388025 74.0239882805347 73.3647683574437 72.92528840871636 72.00238051638894 71.78264054202528 71.07947262406154 70.39827870353415 69.8928767624977 69.14576084966123 68.13495696758835 67.67350302142464 67.25599707013367 66.88243911371544 66.3111151803699 65.54202527009704 65.14649331624244 64.33345541109688 63.74015748031496 63.366599523896724 62.707379600805716 62.26789965207837 61.63065372642373 61.01538179820545 60.597875846914484 59.960629921259844 59.301409998168836 58.83995605200513 57.91704815967771 57.69730818531404 56.9941402673503 56.378868339132026 55.74162241347739 55.14832448269547 54.77476652627723 54.203442592931694 53.390404687786116 53.104742721113354 52.797106757004215 52.44552279802234 52.11591283647684 51.6105108954404 51.083134956967584 50.643655008240245 50.094305072331075 49.676799121040105 49.03955319538546 48.38033327229445 47.94085332356711 47.325581395348834 46.534517487639626 46.117011536348656 45.72147958249405 45.30397363120308 44.73264969785754 44.18329976194836 43.633949826039185 43.150521882439115 42.842885918329976 42.40340596960264 41.98590001831167 41.81010803882073 41.39260208752975 40.79930415674785 40.49166819263871 39.986266251602274 39.722578282365866 39.28309833363853 38.66782640542025 38.47006042849295 38.03058047976561 37.5691265336019 37.261490569492764 36.843984618201794 36.38253067203809 35.96502472074712 35.52554477201978 35.23988280534701 34.95422083867423 34.55868888481963 34.27302691814686 33.81157297198315 33.459989013001284 33.04248306171031 32.49313312580114 32.20747115912837 31.921809192455594 31.636147225782825 31.41640725141915 31.08679728987365 30.86705731550998 30.559421351400843 30.251785387291704 29.812305438564366 29.592565464200696 29.306903497527927 28.97729353598242 28.735579564182384 28.449917597509614 27.768723676982237 27.197399743636698 26.757919794909355 26.42830983336385 26.274491851309286 26.032777879509247 25.900933894891047 25.769089910272843 25.65921992309101 25.637245925654643 25.615271928218274 25.615271928218274 25.637245925654643 25.615271928218274 25.593297930781908 25.571323933345543 25.549349935909174 25.527375938472808 25.50540194103644 25.483427943600073 25.461453946163708 25.43947994872734 25.417505951290973 25.395531953854604 25.395531953854604 25.37355795641824 25.37355795641824 25.37355795641824 25.37355795641824 25.35158395898187 25.35158395898187 25.35158395898187 25.35158395898187 25.35158395898187 25.35158395898187 25.35158395898187 25.35158395898187 25.35158395898187 25.329609961545504 25.35158395898187 25.35158395898187 25.35158395898187 25.35158395898187 25.329609961545504 25.35158395898187 25.35158395898187 25.329609961545504 25.35158395898187 25.35158395898187 25.35158395898187 25.35158395898187 25.35158395898187 25.35158395898187 25.35158395898187 25.329609961545504 25.329609961545504 25.329609961545504 25.35158395898187 25.35158395898187 25.35158395898187 25.35158395898187 25.35158395898187 25.35158395898187 25.35158395898187 25.35158395898187 25.35158395898187 25.35158395898187 25.329609961545504 25.329609961545504 25.35158395898187 25.329609961545504 25.35158395898187 25.35158395898187 25.35158395898187 25.329609961545504 25.35158395898187 25.35158395898187 25.35158395898187 25.329609961545504 25.35158395898187 25.329609961545504 25.329609961545504 25.329609961545504 25.35158395898187 25.35158395898187 25.329609961545504 25.35158395898187 25.329609961545504 25.329609961545504 25.329609961545504 25.329609961545504 25.329609961545504 25.329609961545504 25.329609961545504 25.35158395898187 25.329609961545504 25.329609961545504 25.329609961545504 25.329609961545504 25.329609961545504 25.329609961545504 25.329609961545504 25.329609961545504 25.329609961545504 25.329609961545504 25.329609961545504 25.329609961545504 25.329609961545504 25.329609961545504 25.329609961545504 25.30763596410914 25.30763596410914 25.30763596410914 25.30763596410914 25.30763596410914 25.30763596410914 25.30763596410914 25.30763596410914 25.30763596410914 25.30763596410914 25.30763596410914 25.30763596410914 25.30763596410914 25.28566196667277 25.30763596410914 25.28566196667277 25.28566196667277 25.30763596410914 25.30763596410914 25.28566196667277 25.28566196667277 25.28566196667277 25.30763596410914 25.28566196667277 25.28566196667277 25.28566196667277 25.28566196667277 25.28566196667277 25.28566196667277 25.28566196667277 25.28566196667277 25.28566196667277 25.263687969236404 25.28566196667277 25.28566196667277 25.28566196667277 25.28566196667277 25.28566196667277 25.28566196667277 25.263687969236404 25.28566196667277 25.263687969236404 25.263687969236404 25.263687969236404 25.263687969236404 25.263687969236404 25.263687969236404 25.263687969236404 25.263687969236404 25.263687969236404 25.263687969236404 25.263687969236404 25.263687969236404 25.263687969236404 25.263687969236404 25.263687969236404 25.263687969236404 25.263687969236404 25.263687969236404 25.263687969236404 25.263687969236404 25.263687969236404 25.263687969236404 25.263687969236404 25.263687969236404 25.263687969236404 25.263687969236404 25.263687969236404 25.263687969236404 25.263687969236404 25.263687969236404 25.263687969236404 25.263687969236404 25.263687969236404 25.263687969236404 25.263687969236404 25.263687969236404 25.263687969236404 25.263687969236404 25.263687969236404 25.263687969236404 25.263687969236404 25.263687969236404 25.263687969236404 25.263687969236404 25.263687969236404 25.263687969236404 25.263687969236404 25.263687969236404 25.28566196667277 25.263687969236404 25.263687969236404 25.263687969236404 25.263687969236404 25.263687969236404 25.263687969236404 25.263687969236404 25.28566196667277 25.263687969236404 25.28566196667277 25.28566196667277 25.28566196667277 25.263687969236404 25.28566196667277 25.28566196667277 25.28566196667277 25.28566196667277 25.28566196667277 25.30763596410914 25.30763596410914 25.30763596410914 25.28566196667277 25.30763596410914 25.30763596410914 25.30763596410914 25.329609961545504 25.329609961545504 25.329609961545504 25.35158395898187 25.37355795641824 25.395531953854604 25.43947994872734 25.461453946163708 25.50540194103644 25.593297930781908 25.65921992309101 25.769089910272843 25.900933894891047 25.988829884636512 26.098699871818347 26.38436183849112 26.58212781541842 26.88976377952756 27.263321735945798 27.505035707745833 27.87859366416407 28.16425563083684 28.581761582127815 29.19703351034609 29.61453946163706 29.9880974180553 30.405603369346274 30.976927302691813 31.35048525911005 31.987731184764694 32.47115912836477 32.998535066837576 33.61380699505585 34.207104925837754 34.58066288225599 35.15198681560154 35.72331074894708 36.118842702801686 36.690166636147225 37.1076725874382 37.74491851309284 38.42611243362022 39.04138436183849 39.7006042849295 40.77733015931148 41.37062809009339 41.89800402856619 42.49130195934811 43.326313861930046 44.205273759384724 45.0842336568394 45.96319355429409 46.86412744918513 47.50137337483977 48.16059329793078 48.79783922358543 49.91851309284014 50.81944698773118 51.41274491851309 52.55539278520418 53.192638710858816 53.80791063907709 54.86266251602271 55.23622047244095 56.07123237502289 56.9941402673503 57.69730818531404 58.48837209302326 59.652993957150706 60.246291887932614 61.14722578282366 61.45486174693279 62.35579564182384 63.23475553927852 63.850027467496794 65.21241530855156 66.15729719831532 66.86046511627907 67.91521699322467 68.35469694195203 69.67313678813403 70.31038271378868 71.2992125984252 72.20014649331624 73.01318439846182 73.6284563266801 74.59531221388025 75.16663614722579 76.00164804980773 76.7487639626442 77.29811389855337 77.9573338216444 78.6824757370445 79.18787767808094 80.22065555759019 80.50631752426295 81.23145943966307 81.95660135506317 82.41805530122689 83.0772752243179 83.7364951474089 84.37374107306354 85.05493499359092 85.36257095770006 86.1316608679729 86.76890679362754 87.16443874748215 87.69181468595497 88.04339864493683 88.4609045962278 88.87841054751877 89.16407251419155 89.53763047060978 89.93316242446438 90.19685039370079 90.57040835011902 90.9219923091009 91.16370628090094 91.53726423731918 91.91082219373742 92.13056216810108 92.43819813221022 92.6579381065739 93.1193920527376 93.29518403222853 93.58084599890131 93.7786119758286 93.88848196301043 93.99835195019227 94.02032594762865 94.02032594762865 94.02032594762865 93.99835195019227 93.88848196301043 93.71268998351951 93.53689800402857 93.20728804248306 92.83373008606483 92.57004211682842 92.13056216810108 91.64713422450102 91.14173228346456 90.68027833730086 90.48251236037356 90.02105841420986 89.58157846548252 89.0542025270097 88.83446255264604 88.57077458340964 88.13129463468229 87.66984068851858 87.38417872184581 86.90075077824574 86.30745284746384 85.88994689617286 85.3405969602637 84.94506500640908 84.37374107306354 83.62662516022706 83.27504120124519 82.87950924739059 82.54989928584509 82.02252334737227 81.34132942684491 81.0776414576085 80.46236952939023 79.93499359091741 79.56143563449919 79.18787767808094 78.81431972166271 78.352865775499 77.53982787035342 77.23219190624428 76.85863394982604 76.30928401391687 75.93572605749863 75.34242812671673 74.88097418055301 74.37557223951657 73.71635231642557 73.27687236769822 72.61765244460722 71.95843252151622 71.34316059329794 70.70591466764328 70.31038271378868 69.84892876762498 69.2336568394067 68.79417689067935 67.98113898553379 67.36586705731551 66.9044131111518 66.26716718549716 65.82768723676982 65.19044131111518 64.55319538546054 64.1137154367332 63.476469511078555 62.839223585423916 62.42171763413294 61.7844717084783 61.30104376487823 60.68577183665995 60.026551913568944 59.3233839956052 58.79600805713239 58.11481413660502 57.609412195568574 56.664530305804796 56.247024354513826 55.71964841604102 55.01648049807727 54.55502655191357 53.720014649331624 53.324482695477016 52.731184764695115 52.18183482878594 51.76432887749496 51.25892693645852 50.77549899285845 50.46786302874931 49.984435085149244 49.676799121040105 49.25929316974913 48.86376121589453 48.57809924922175 48.00677531587621 47.72111334920344 47.391503387657934 46.886101446621495 46.358725508148694 45.985167551730456 45.34792162607581 44.99633766709394 44.66672770554844 44.139351767075624 43.787767808093754 43.08459989013001 42.733015931148145 42.27156198498443 41.81010803882073 41.41457608496612 41.04101812854789 40.601538179820544 40.315876213147774 39.898370261856805 39.612708295184035 39.19520234389306 38.66782640542025 38.47006042849295 38.07452847463834 37.65702252334737 37.34938655923823 36.953854605383626 36.536348654092656 36.16279069767442 35.85515473356528 35.63541475920161 35.45962277971068 35.19593481047427 35.0421168284197 34.7125068668742 34.58066288225599 34.33894891045596 34.09723493865592 33.943416956601354 33.701702984801315 33.48196301043765 33.306171030946714 33.064457059146676 32.88866507965574 32.62497711041934 32.36128914118294 32.09760117194653 31.921809192455594 31.614173228346456 31.394433253982786 31.08679728987365 30.845083318073613 30.44955136421901 30.097967405237135 29.8562534334371 29.61453946163706 29.372825489837027 29.021241530855153 28.603735579564184 28.34004761032778 28.09833363852774 27.81267167185497 27.570957700054933 27.483061710309467 27.241347738509432 27.10950375389123 26.933711774400294 26.80186778978209 26.538179820545686 26.38436183849112 26.186595861563816 26.07672587438198 26.032777879509247 25.966855887200147 25.922907892327412 25.878959897454678 25.856985900018312 25.835011902581943 25.813037905145578 25.813037905145578 25.813037905145578 25.791063907709212 25.769089910272843 25.72514191540011 25.703167917963743 25.65921992309101 25.615271928218274 25.593297930781908 25.593297930781908 25.571323933345543 25.549349935909174 25.571323933345543 25.549349935909174 25.549349935909174 25.549349935909174 25.549349935909174 25.549349935909174 25.549349935909174 25.549349935909174 25.549349935909174 25.549349935909174 25.527375938472808 25.527375938472808 25.50540194103644 25.50540194103644 25.50540194103644 25.483427943600073 25.483427943600073 25.483427943600073 25.461453946163708 25.461453946163708 25.461453946163708 25.461453946163708 25.461453946163708 25.461453946163708 25.461453946163708 25.461453946163708 25.43947994872734 25.43947994872734 25.461453946163708 25.461453946163708 25.43947994872734 25.43947994872734 25.43947994872734 25.43947994872734 25.43947994872734 25.43947994872734 25.43947994872734 25.43947994872734 25.43947994872734 25.43947994872734 25.43947994872734 25.43947994872734 25.43947994872734 25.43947994872734 25.417505951290973 25.417505951290973 25.417505951290973 25.417505951290973 25.417505951290973 25.395531953854604 25.395531953854604 25.395531953854604 25.395531953854604 25.395531953854604 25.395531953854604 25.395531953854604 25.395531953854604 25.395531953854604 25.395531953854604 25.37355795641824 25.37355795641824 25.37355795641824 25.37355795641824 25.37355795641824 25.37355795641824 25.37355795641824 25.37355795641824 25.37355795641824 25.35158395898187 25.35158395898187 25.37355795641824 25.35158395898187 25.35158395898187 25.35158395898187 25.35158395898187 25.35158395898187 25.35158395898187 25.35158395898187 25.35158395898187 25.35158395898187 25.329609961545504 25.35158395898187 25.35158395898187 25.35158395898187 25.35158395898187 25.35158395898187 25.35158395898187 25.35158395898187 25.35158395898187 25.35158395898187 25.329609961545504 25.329609961545504 25.329609961545504 25.35158395898187 25.35158395898187 25.329609961545504 25.35158395898187 25.329609961545504 25.35158395898187 25.35158395898187 25.329609961545504 25.329609961545504 25.35158395898187 25.329609961545504 25.329609961545504 25.35158395898187 25.35158395898187 25.35158395898187 25.35158395898187 25.35158395898187 25.35158395898187 25.329609961545504 25.35158395898187 25.35158395898187 25.35158395898187 25.35158395898187 25.35158395898187 25.35158395898187 25.35158395898187 25.35158395898187 25.35158395898187 25.35158395898187 25.35158395898187 25.35158395898187 25.329609961545504 25.329609961545504 25.35158395898187 25.35158395898187 25.35158395898187 25.35158395898187 25.35158395898187 25.35158395898187 25.35158395898187 25.35158395898187 25.35158395898187 25.329609961545504 25.329609961545504 25.35158395898187 25.329609961545504 25.329609961545504 25.329609961545504 25.329609961545504 25.329609961545504 25.329609961545504 25.329609961545504 25.329609961545504 25.329609961545504 25.329609961545504 25.329609961545504 25.329609961545504 25.329609961545504 25.329609961545504 25.329609961545504 25.329609961545504 25.329609961545504 25.329609961545504 25.329609961545504 25.329609961545504 25.329609961545504 25.329609961545504 25.30763596410914 25.30763596410914 25.329609961545504 25.30763596410914 25.329609961545504 25.30763596410914 25.30763596410914 25.30763596410914 25.30763596410914 25.30763596410914 25.30763596410914 25.30763596410914 25.28566196667277 25.30763596410914 25.30763596410914 25.30763596410914 25.30763596410914 25.30763596410914 25.30763596410914 25.28566196667277 25.28566196667277 25.30763596410914 25.28566196667277 25.30763596410914 25.30763596410914 25.28566196667277 25.28566196667277 25.28566196667277 25.28566196667277 25.30763596410914 25.30763596410914 25.28566196667277 25.28566196667277 25.28566196667277 25.28566196667277 25.28566196667277 25.28566196667277 25.28566196667277 25.28566196667277 25.28566196667277 25.28566196667277 25.28566196667277 25.28566196667277 25.28566196667277 25.28566196667277 25.28566196667277 25.28566196667277 25.28566196667277 25.28566196667277 25.28566196667277 25.28566196667277 25.28566196667277 25.28566196667277 25.28566196667277 25.28566196667277 25.28566196667277 25.28566196667277 25.28566196667277 25.28566196667277 25.28566196667277 25.28566196667277 25.28566196667277 25.28566196667277 25.28566196667277 25.28566196667277 25.28566196667277 25.28566196667277 25.28566196667277 25.28566196667277 25.30763596410914 25.28566196667277 25.30763596410914 25.28566196667277 25.28566196667277 25.28566196667277 25.28566196667277 25.28566196667277 25.28566196667277 25.28566196667277 25.28566196667277 25.28566196667277 25.28566196667277 25.30763596410914 25.30763596410914 25.28566196667277 25.30763596410914 25.28566196667277 25.30763596410914 25.30763596410914 25.30763596410914 25.30763596410914 25.30763596410914 25.30763596410914 25.30763596410914 25.30763596410914 25.30763596410914 25.30763596410914 25.30763596410914 25.30763596410914 25.30763596410914 25.30763596410914 25.30763596410914 25.30763596410914 25.30763596410914 25.30763596410914 25.30763596410914 25.30763596410914 25.30763596410914 25.30763596410914 25.30763596410914 25.28566196667277 25.30763596410914 25.30763596410914 25.30763596410914 25.30763596410914 25.30763596410914 25.30763596410914 25.30763596410914 25.30763596410914 25.30763596410914 25.30763596410914 25.30763596410914 25.30763596410914 25.30763596410914 25.30763596410914 25.30763596410914 25.30763596410914 25.28566196667277 25.30763596410914 25.28566196667277 25.28566196667277 25.28566196667277 25.28566196667277 25.28566196667277 25.28566196667277 25.28566196667277 25.28566196667277 25.28566196667277 25.28566196667277 25.28566196667277 25.28566196667277 25.28566196667277 25.28566196667277 25.28566196667277 25.28566196667277 25.28566196667277 25.28566196667277 25.28566196667277 25.28566196667277 25.28566196667277 25.28566196667277 25.28566196667277 25.263687969236404 25.28566196667277 25.28566196667277 25.28566196667277 25.28566196667277 25.28566196667277 25.28566196667277 25.263687969236404 25.263687969236404 25.263687969236404 25.263687969236404 25.263687969236404 25.263687969236404 25.263687969236404 25.263687969236404 25.263687969236404 25.263687969236404 25.263687969236404 25.263687969236404 25.263687969236404 25.263687969236404 25.28566196667277 25.263687969236404 25.263687969236404 25.263687969236404 25.263687969236404 25.263687969236404 25.263687969236404 25.263687969236404 25.263687969236404 25.263687969236404 25.263687969236404 25.263687969236404 25.263687969236404 25.263687969236404 25.263687969236404 25.263687969236404 25.263687969236404 25.263687969236404 25.263687969236404 25.263687969236404 25.263687969236404 25.263687969236404 25.263687969236404 25.263687969236404 25.263687969236404 25.263687969236404 25.263687969236404 25.263687969236404 25.263687969236404 25.263687969236404 25.263687969236404 25.263687969236404 25.263687969236404 25.263687969236404 25.263687969236404 25.263687969236404 25.263687969236404 25.263687969236404 25.263687969236404 25.263687969236404 