25.0 25.0 25.0 25.0 25.0 25.0 25.0 25.0 25.0 25.0 25.0 25.0 25.0 25.0 25.0 25.0 25.0 25.0 25.0 25.0 25.0 25.0 25.0 25.0 25.0 25.0 25.0 25.0 25.0 25.0 25.0 25.0 25.0 25.0 25.0 25.0 25.0 25.0 25.0 25.0 25.0 25.0 25.0 25.0 25.0 25.0 25.0 25.0 25.0 25.0 25.0 25.0 25.0 25.0 25.0 25.0 25.0 25.0 25.0 25.0 25.0 25.0 25.0 25.0 25.0 25.0 25.0 25.0 25.0 25.0 25.0 25.0 25.0 25.0 25.0 25.0 25.0 25.0 25.0 25.0 25.0 25.0 25.0 25.0 25.0 25.0 25.0 25.0 25.0 25.0 25.0 25.0 25.0 25.0 25.0 25.0 25.0 25.0 25.0 25.0 25.0 25.0 25.0 25.0 25.0 25.0 25.021973997436366 25.0 25.0 25.0 25.0 25.0 25.0 25.0 25.0 25.0 25.0 25.0 25.0 25.0 25.0 25.0 25.0 25.0 25.0 25.0 25.0 25.0 25.0 25.0 25.0 25.0 25.0 25.0 25.0 25.0 25.0 25.0 25.0 25.0 25.0 25.0 25.0 25.0 25.0 25.0 25.0 25.0 25.0 25.0 25.0 25.0 25.0 25.0 25.0 25.0 25.0 25.0 25.0 25.0 25.0 25.0 25.0 25.0 25.0 25.0 25.0 25.0 25.0 25.0 25.0 25.0 25.0 25.0 25.0 25.0 25.0 25.0 25.0 25.0 25.0 25.0 25.0 25.0 25.0 25.0 25.0 25.0 25.0 25.0 25.0 25.0 25.0 25.0 25.0 25.0 25.0 25.0 25.0 25.0 25.0 25.0 25.0 25.0 25.0 25.0 25.0 25.0 25.0 25.0 25.0 25.0 25.0 25.0 25.0 25.0 25.0 25.0 25.0 25.0 25.0 25.0 25.0 25.0 25.0 25.0 25.0 25.0 25.0 25.0 25.0 25.0 25.0 25.0 25.0 25.0 25.0 25.0 25.0 25.0 25.0 25.0 25.0 25.0 25.0 25.0 25.0 25.0 25.0 25.0 25.0 25.0 25.0 25.0 25.0 25.0 25.0 25.0 25.0 25.0 25.0 25.0 25.0 25.0 25.0 25.0 25.0 25.0 25.0 25.0 25.0 25.0 25.0 25.0 25.0 25.0 25.0 25.0 25.0 25.0 25.0 25.0 25.0 25.0 25.0 25.0 25.0 25.0 25.0 25.0 25.0 25.0 25.0 25.0 25.0 25.0 25.0 25.0 25.0 25.0 25.0 25.0 25.0 25.0 25.0 25.0 25.0 25.0 25.0 25.0 25.0 25.0 25.0 25.0 25.0 25.0 25.0 25.0 25.0 25.0 25.0 25.0 25.0 25.0 25.0 25.0 25.0 25.0 25.0 25.0 25.0 25.0 25.0 25.0 25.0 25.0 25.0 25.0 25.0 25.0 25.0 25.0 25.0 25.0 25.0 25.0 25.0 25.0 25.0 25.0 25.0 25.0 25.0 25.0 25.0 25.0 25.0 25.0 25.0 25.0 25.0 25.0 25.0 25.0 25.0 25.0 25.0 25.0 25.0 25.0 25.0 25.0 25.0 25.0 25.0 25.0 25.0 25.0 25.0 25.0 25.0 25.0 25.0 25.0 25.0 25.0 25.0 25.0 25.0 25.0 25.0 25.0 25.0 25.0 25.0 25.0 25.0 25.0 25.0 25.0 25.0 25.0 25.0 25.0 25.0 25.0 25.0 25.0 25.0 25.0 25.0 25.0 24.956052005127265 24.956052005127265 24.956052005127265 24.956052005127265 24.956052005127265 24.84618201794543 24.84618201794543 24.84618201794543 24.84618201794543 24.824208020509065 24.824208020509065 24.824208020509065 24.802234023072696 24.802234023072696 24.802234023072696 24.824208020509065 24.802234023072696 24.824208020509065 24.824208020509065 24.824208020509065 24.824208020509065 24.824208020509065 24.824208020509065 24.824208020509065 24.824208020509065 24.824208020509065 24.824208020509065 24.824208020509065 24.84618201794543 24.84618201794543 24.84618201794543 24.84618201794543 24.8681560153818 24.84618201794543 24.8681560153818 24.84618201794543 24.84618201794543 24.84618201794543 24.84618201794543 24.84618201794543 24.84618201794543 24.84618201794543 24.84618201794543 24.84618201794543 24.84618201794543 24.84618201794543 24.84618201794543 24.84618201794543 24.84618201794543 24.84618201794543 24.84618201794543 24.84618201794543 24.8681560153818 24.84618201794543 24.84618201794543 24.84618201794543 24.84618201794543 24.84618201794543 24.84618201794543 24.84618201794543 24.84618201794543 24.84618201794543 24.84618201794543 24.8681560153818 24.8681560153818 24.84618201794543 24.84618201794543 24.84618201794543 24.84618201794543 24.84618201794543 24.84618201794543 24.84618201794543 24.8681560153818 24.84618201794543 24.84618201794543 24.84618201794543 24.84618201794543 24.8681560153818 24.84618201794543 24.84618201794543 24.84618201794543 24.84618201794543 24.84618201794543 24.84618201794543 24.84618201794543 24.84618201794543 24.84618201794543 24.84618201794543 24.84618201794543 24.84618201794543 24.84618201794543 24.84618201794543 24.84618201794543 24.84618201794543 24.84618201794543 24.84618201794543 24.84618201794543 24.84618201794543 24.84618201794543 24.84618201794543 24.84618201794543 24.84618201794543 24.84618201794543 24.84618201794543 24.84618201794543 24.84618201794543 24.84618201794543 24.84618201794543 24.8681560153818 24.84618201794543 24.84618201794543 24.84618201794543 24.84618201794543 24.84618201794543 24.84618201794543 24.84618201794543 24.84618201794543 24.84618201794543 24.84618201794543 24.84618201794543 24.84618201794543 24.8681560153818 24.84618201794543 24.84618201794543 24.84618201794543 24.84618201794543 24.84618201794543 24.84618201794543 24.84618201794543 24.84618201794543 24.84618201794543 24.84618201794543 24.84618201794543 24.84618201794543 24.84618201794543 24.84618201794543 24.84618201794543 24.84618201794543 24.84618201794543 24.84618201794543 24.84618201794543 24.84618201794543 24.84618201794543 24.84618201794543 24.84618201794543 24.84618201794543 24.84618201794543 24.84618201794543 24.84618201794543 24.84618201794543 24.84618201794543 24.84618201794543 24.84618201794543 24.84618201794543 24.84618201794543 24.84618201794543 24.84618201794543 24.84618201794543 24.84618201794543 24.84618201794543 24.8681560153818 24.8681560153818 24.84618201794543 24.8681560153818 24.8681560153818 24.890130012818165 24.91210401025453 24.91210401025453 24.91210401025453 24.9340780076909 24.978026002563634 25.35158395898187 25.615271928218274 26.07672587438198 27.395165720564 28.75755356161875 30.36165537447354 31.59219923091009 33.064457059146676 34.60263687969236 36.338582677165356 38.14045046694744 39.7006042849295 41.37062809009339 42.82091192089361 44.46896172862113 46.248855520966856 48.07269730818531 49.610877128731005 52.70921076725874 55.39003845449551 57.389672221204904 60.26826588536898 63.058963559787585 65.717817249588 67.93719099066105 70.42025270097052 72.63962644204358 74.81505218824393 77.23219190624428 79.38564365500824 82.24226332173595 84.1320271012635 86.74693279619117 88.592748580846 90.68027833730086 -266.9685039370079 -265.4303241164622 -262.9692364035891 -261.409082585607 -259.2995788317158 -257.10217908807914 -255.3662332906061 -253.58633949826037 -252.26789965207837 -250.94945980589637 -249.9826039186962 -249.01574803149606 -248.33455411096867 -247.6753341878777 -247.45559421351402 -247.65336019044133 -248.1367881340414 -248.8399560520051 -249.5211499725325 -251.23512177256913 -253.01501556491485 -254.37740340596957 -255.9815052188244 -257.62955502655194 -258.94799487273394 -260.17853872917044 -262.0243545138253 -263.51858633949826 -264.79307819080753 -266.30928401391685 -267.693645852408 90.63633034242812 88.87841054751877 87.14246475004578 85.8020509064274 83.8683391320271 82.11041933711775 80.57223951657207 78.79234572422632 77.23219190624428 75.40835011902581 73.8262223036074 71.91448452664348 69.87090276506135 68.02508698040651 65.5859732649698 63.630287493133125 61.54275773667826 59.1256180186779 57.34572422633217 55.54385643655009 53.67606665445889 51.91814685954954 50.379967039003844 48.99560520051273 47.4134773850943 45.80937557223952 44.205273759384724 42.930781908075446 41.48049807727523 40.315876213147774 38.95348837209302 38.11847646951108 37.28346456692913 36.80003662332906 36.14081670023805 35.50357077458341 34.9102728438015 34.29500091558323 33.459989013001284 32.778795092473906 31.855887200146494 30.954953305255447 30.273759384728073 29.240981505218826 28.449917597509614 27.702801684673137 27.219373741073063 26.95568577183666 26.95568577183666 26.95568577183666 26.95568577183666 26.95568577183666 26.95568577183666 26.933711774400294 26.95568577183666 26.95568577183666 26.95568577183666 26.95568577183666 26.95568577183666 26.95568577183666 26.933711774400294 26.933711774400294 26.95568577183666 26.95568577183666 26.95568577183666 26.933711774400294 26.95568577183666 26.95568577183666 26.95568577183666 26.95568577183666 26.933711774400294 26.95568577183666 26.95568577183666 26.95568577183666 26.933711774400294 26.95568577183666 26.95568577183666 26.933711774400294 26.933711774400294 26.933711774400294 26.95568577183666 26.95568577183666 26.933711774400294 26.95568577183666 26.933711774400294 26.933711774400294 26.95568577183666 26.911737776963925 26.911737776963925 26.88976377952756 26.88976377952756 26.88976377952756 26.88976377952756 26.88976377952756 26.88976377952756 26.88976377952756 26.88976377952756 26.867789782091194 26.88976377952756 26.88976377952756 26.88976377952756 26.867789782091194 26.88976377952756 26.867789782091194 26.867789782091194 26.88976377952756 26.88976377952756 26.867789782091194 26.88976377952756 26.88976377952756 26.88976377952756 26.88976377952756 26.82384178721846 26.779893792345725 26.757919794909355 26.73594579747299 26.73594579747299 26.73594579747299 26.73594579747299 26.73594579747299 26.73594579747299 26.73594579747299 26.73594579747299 26.73594579747299 26.73594579747299 26.73594579747299 26.73594579747299 26.73594579747299 26.73594579747299 26.73594579747299 26.73594579747299 26.73594579747299 26.73594579747299 26.757919794909355 27.351217725691264 29.131111518036988 31.130745284746382 32.581029115546606 35.0421168284197 37.72294451565647 40.62351217725691 43.106573887566384 46.600439479948726 48.27046328511261 51.76432887749496 54.84068851858634 57.47756821095037 60.92748580845999 63.784105475187694 66.39901117011536 67.98113898553379 71.07947262406154 74.15583226515291 76.2213880241714 78.70444973448086 81.09961545504487 83.49478117560886 85.78007690899102 88.24116462186413 90.30672038088262 -267.58377586522613 -265.3863761215895 -262.57370444973446 -260.68394067020694 -258.9260208752976 -256.2891411829335 -254.11371543673323 -252.245925654642 -250.35616187511442 -248.86193004944147 -246.33492034425933 -245.477934444241 -244.04962461087712 -242.86302874931334 -241.56656290056765 -240.7974729902948 -240.55575901849477 -240.57773301593113 -240.9512909723494 -241.1490569492767 -241.36879692364033 -241.6324848928768 -241.80827687236768 -241.87419886467677 -242.42354880058593 -243.2146127082952 -244.29133858267716 -245.98333638527743 -247.43362021607766 -249.56509796740522 -251.56473173411462 -253.89397546236955 -256.7286211316609 -259.6072147958249 -262.2221204907526 -264.41952023438927 -267.4079838857352 89.93316242446438 87.73576268082769 85.14283098333638 82.61582127815419 80.13275956784472 78.352865775499 75.6940120856986 73.6943783189892 71.60684856253434 68.68430690349753 66.46493316242447 63.981871452114994 61.80644570591467 59.41127998535067 56.972166269913934 54.73081853140451 52.11591283647684 50.094305072331075 48.29243728254899 46.776231459439664 45.43581761582128 44.205273759384724 43.040651895257284 42.20563999267533 41.28273210034792 40.71140816700238 40.162058231093205 39.678630287493135 39.04138436183849 38.36019044131112 37.635048525911 36.887932613074526 36.184764695110786 35.19593481047427 34.40487090276506 33.240249038637614 32.20747115912837 31.89983519501923 30.976927302691813 30.29573338216444 29.570591466764327 29.153085515473357 28.889397546236953 28.71360556674602 28.603735579564184 28.40596960263688 28.31807361289141 28.12030763596411 27.90056766160044 27.373191723127633 27.241347738509432 27.087529756454863 27.087529756454863 27.065555759018494 27.065555759018494 27.087529756454863 27.087529756454863 27.065555759018494 27.087529756454863 27.065555759018494 27.087529756454863 27.065555759018494 27.087529756454863 27.087529756454863 27.065555759018494 27.065555759018494 27.087529756454863 27.087529756454863 27.065555759018494 27.087529756454863 27.087529756454863 27.087529756454863 27.065555759018494 27.065555759018494 27.065555759018494 27.065555759018494 27.065555759018494 27.065555759018494 27.087529756454863 27.087529756454863 27.087529756454863 27.087529756454863 27.065555759018494 27.087529756454863 27.087529756454863 27.087529756454863 27.065555759018494 27.065555759018494 27.065555759018494 27.087529756454863 27.065555759018494 27.065555759018494 27.065555759018494 27.065555759018494 27.087529756454863 27.065555759018494 27.065555759018494 27.087529756454863 27.065555759018494 27.065555759018494 27.065555759018494 27.065555759018494 27.087529756454863 27.065555759018494 27.065555759018494 27.087529756454863 27.065555759018494 27.065555759018494 27.065555759018494 27.065555759018494 27.065555759018494 27.087529756454863 27.065555759018494 27.065555759018494 27.065555759018494 27.065555759018494 27.087529756454863 27.065555759018494 27.065555759018494 27.065555759018494 27.065555759018494 27.087529756454863 27.087529756454863 27.087529756454863 27.087529756454863 27.087529756454863 27.351217725691264 28.362021607764145 29.54861746932796 31.15271928218275 33.086431056583045 35.30580479765611 37.063724592565464 39.12928035158396 41.019044131111514 43.238417872184584 45.32594762863944 48.09467130562168 50.116279069767444 52.3356528108405 54.70884453396813 56.840322285295734 59.47720197765977 61.67460172129647 64.39937740340596 66.70664713422451 68.28877494964291 70.88170664713422 72.4198864676799 75.25453213697125 76.46310199597144 78.19904779344444 80.08881157297199 82.30818531404505 84.3957150704999 86.87877678080937 89.03222852957333 90.9219923091009 -267.05639992675333 -265.3644021241531 -263.6504303241165 -262.2880424830617 -260.2884087163523 -259.1457608496612 -257.47573704449735 -256.3111151803699 -255.16846731367883 -254.44332539827872 -253.74015748031496 -253.36659952389675 -253.43252151620584 -253.58633949826037 -253.74015748031496 -254.00384544955136 -254.5751693828969 -255.23438930598792 -255.69584325215163 -256.1572971983153 -256.59677714704264 -256.88243911371546 -257.1681010803882 -257.3658670573155 -257.6075810291156 -257.9591649880974 -258.53048892144295 -259.1457608496612 -259.80498077275223 -260.7059146676433 -261.67277055484345 -262.68357443691633 -263.47463834462553 -264.90294817798934 -266.1774400292986 -267.32008789598973 90.87804431422816 89.09815052188245 87.45010071415491 85.7361289141183 83.38491118842703 81.03369346273576 79.51748763962644 77.1442959164988 75.60611609595313 73.58450833180737 71.8925105292071 69.45339681377037 67.76139901117011 65.49807727522432 63.036989562351216 60.88353781358725 59.47720197765977 57.52151620582311 55.54385643655009 53.720014649331624 51.65445889031313 49.56692913385827 48.07269730818531 46.33675151071232 44.820545687603 43.304339864493684 42.667093938839045 41.10694012085699 40.249954220838674 39.26112433620216 38.16242446438381 36.778062625892694 35.76725874381981 34.75645486174693 33.525911005310384 32.646951107855706 30.779161325764512 29.8562534334371 28.955319538546053 28.076359641091376 27.527009705182202 27.417139718000367 27.417139718000367 27.417139718000367 27.417139718000367 27.417139718000367 27.417139718000367 27.417139718000367 27.417139718000367 27.417139718000367 27.417139718000367 27.417139718000367 27.417139718000367 27.417139718000367 27.417139718000367 27.417139718000367 27.417139718000367 27.417139718000367 27.395165720564 27.417139718000367 27.395165720564 27.417139718000367 27.395165720564 27.395165720564 27.417139718000367 27.395165720564 27.417139718000367 27.417139718000367 27.395165720564 27.417139718000367 27.417139718000367 27.417139718000367 27.417139718000367 27.395165720564 27.417139718000367 27.417139718000367 27.417139718000367 27.417139718000367 27.417139718000367 27.417139718000367 27.417139718000367 27.395165720564 27.395165720564 27.417139718000367 27.417139718000367 27.417139718000367 27.417139718000367 27.395165720564 27.417139718000367 27.395165720564 27.417139718000367 27.395165720564 27.417139718000367 27.395165720564 27.417139718000367 27.395165720564 27.417139718000367 27.417139718000367 27.417139718000367 27.395165720564 27.417139718000367 27.417139718000367 27.395165720564 27.395165720564 27.395165720564 27.417139718000367 27.417139718000367 27.417139718000367 27.417139718000367 27.417139718000367 27.395165720564 27.417139718000367 27.417139718000367 27.417139718000367 27.395165720564 27.395165720564 27.417139718000367 27.395165720564 27.395165720564 27.395165720564 27.417139718000367 27.395165720564 27.417139718000367 27.417139718000367 27.395165720564 27.417139718000367 27.395165720564 27.395165720564 27.395165720564 27.395165720564 27.329243728254898 27.263321735945798 27.219373741073063 27.197399743636698 27.197399743636698 27.17542574620033 27.17542574620033 27.197399743636698 27.197399743636698 27.197399743636698 27.197399743636698 27.197399743636698 27.219373741073063 27.505035707745833 28.69163156930965 30.273759384728073 31.68009522065556 33.372093023255815 34.95422083867423 36.865958615638164 38.64585240798389 40.93114814136605 42.82091192089361 44.73264969785754 46.776231459439664 48.62204724409449 51.32484892876762 52.906976744186046 55.36806445705915 57.49954220838674 60.26826588536898 62.00421168284197 64.33345541109688 66.94836110602454 68.9699688701703 71.12342061893426 73.14502838308002 75.45229811389855 77.47390587804432 79.95696758835379 82.39608130379051 84.63742904229994 86.50521882439114 88.54880058597325 90.81212232191906 -267.78154184215344 -266.11151803698954 -264.66123420618936 -263.4966123420619 -262.4418604651163 -261.1893426112434 -260.06866874198863 -259.12378685222484 -258.1789049624611 -257.3658670573155 -256.42098516755175 -255.5639992675334 -254.7729353598242 -254.26753341878776 -253.93792345724228 -253.89397546236955 -254.02581944698773 -254.26753341878776 -254.46529939571508 -255.717817249588 -256.5748031496063 -257.84929500091556 -259.47537081120674 -260.5960446804615 -262.3759384728072 -263.71635231642557 -265.1666361472258 -266.4191540010987 -267.9133858267716 90.7901483244827 89.27394250137338 87.42812671671855 86.02179088079106 84.30781908075444 82.72569126533602 80.85790148324483 79.23182567295368 77.36403589086248 75.29848013184399 74.11188427028017 72.33199047793445 70.46420069584326 68.81615088811573 66.75059512909723 65.23438930598792 63.67423548800586 61.67460172129647 59.806811939205275 57.235854239150335 55.41201245193188 53.302508698040654 51.25892693645852 49.720747115912836 47.67716535433071 46.051089544039556 44.40303973631203 43.106573887566384 41.83208203625709 40.403772202893244 39.458890313129466 38.11847646951108 36.712140633583594 35.26185680278337 34.05328694378319 32.66892510529207 31.636147225782825 30.559421351400843 29.460721479582496 28.208203625709576 27.219373741073063 27.04358176158213 26.999633766709394 26.97765976927303 26.97765976927303 26.97765976927303 26.97765976927303 26.97765976927303 26.97765976927303 26.97765976927303 26.97765976927303 26.97765976927303 26.97765976927303 26.97765976927303 26.97765976927303 26.97765976927303 26.97765976927303 26.97765976927303 26.97765976927303 26.97765976927303 26.97765976927303 26.97765976927303 26.97765976927303 26.97765976927303 26.97765976927303 26.933711774400294 26.911737776963925 26.911737776963925 26.88976377952756 26.88976377952756 26.88976377952756 26.88976377952756 26.88976377952756 26.88976377952756 26.88976377952756 26.88976377952756 26.88976377952756 26.88976377952756 26.88976377952756 26.88976377952756 26.88976377952756 26.845815784654825 26.845815784654825 26.82384178721846 26.80186778978209 26.80186778978209 26.80186778978209 26.80186778978209 26.80186778978209 26.80186778978209 26.80186778978209 26.80186778978209 26.80186778978209 26.80186778978209 26.80186778978209 26.80186778978209 26.80186778978209 26.80186778978209 26.80186778978209 26.80186778978209 26.80186778978209 26.80186778978209 26.80186778978209 26.80186778978209 26.80186778978209 26.80186778978209 26.80186778978209 26.80186778978209 26.80186778978209 26.80186778978209 26.80186778978209 26.80186778978209 26.80186778978209 26.80186778978209 26.80186778978209 26.80186778978209 26.80186778978209 26.80186778978209 26.80186778978209 26.80186778978209 26.80186778978209 26.80186778978209 26.80186778978209 26.80186778978209 26.80186778978209 26.80186778978209 26.80186778978209 26.80186778978209 26.80186778978209 26.80186778978209 26.80186778978209 26.80186778978209 26.80186778978209 26.80186778978209 26.80186778978209 26.80186778978209 26.80186778978209 26.779893792345725 26.779893792345725 26.80186778978209 27.153451748763963 27.702801684673137 28.362021607764145 29.219007507782457 30.317707379600805 31.46035524629189 33.108405054019414 34.42684490020143 36.338582677165356 38.73374839772936 40.579564182384175 43.08459989013001 44.93041567478484 46.820179454312395 48.73191723127633 51.01721296465848 53.390404687786116 55.58780443142282 57.71928218275041 60.597875846914484 63.146859549533055 65.69584325215162 67.80534700604285 69.93682475737045 72.68357443691632 74.66123420618933 77.276139901117 79.62735762680828 81.62699139351767 83.84636513459074 85.69218091924556 87.58194469877311 89.47170847830067 90.68027833730086 -268.0012818165171 -265.957700054935 -264.41952023438927 -262.6176524446072 -260.83775865226147 -259.36550082402493 -257.7613990111701 -256.1572971983153 -254.79490935726056 -253.87200146493313 -252.68540560336936 -251.7844717084783 -251.41091375206003 -250.9934078007691 -250.94945980589637 -250.94945980589637 -251.16919978026004 -251.43288774949644 -251.87236769822374 -252.48763962644205 -253.08093755722393 -253.80607947262405 -255.01464933162424 -256.8165171214063 -258.4865409265702 -260.46420069584326 -263.21095037538913 -264.0679362754074 -266.3532320087896 91.36147225782824 89.42776048342795 87.88958066288225 85.82402490386376 83.4728071781725 81.47317341146311 79.23182567295368 77.34206189342612 74.83702618568029 73.05713239333456 71.1014466214979 69.2995788317158 67.93719099066105 65.45412928035158 63.981871452114994 62.07013367515107 59.982603918696206 57.54349020325947 55.54385643655009 53.961728621131655 51.58853689800403 49.69877311847647 47.91887932613075 45.853323567112255 44.5568577183666 43.238417872184584 41.98590001831167 40.118110236220474 39.5028383080022 38.14045046694744 36.690166636147225 35.17396081303791 33.98736495147409 32.33931514374657 30.51547335652811 29.394799487273392 27.90056766160044 27.285295733382164 26.73594579747299 26.648049807727524 26.626075810291155 26.626075810291155 26.60410181285479 26.626075810291155 26.60410181285479 26.60410181285479 26.626075810291155 26.626075810291155 26.60410181285479 26.51620582310932 26.36238784105475 26.186595861563816 26.032777879509247 26.01080388207288 25.988829884636512 25.988829884636512 25.944881889763778 25.922907892327412 25.900933894891047 25.878959897454678 25.791063907709212 25.681193920527377 25.28566196667277 25.21973997436367 25.197765976927304 25.197765976927304 25.197765976927304 25.197765976927304 25.175791979490935 25.241713971800035 25.197765976927304 25.08789598974547 25.0 25.0 24.978026002563634 24.978026002563634 24.978026002563634 24.956052005127265 24.978026002563634 24.956052005127265 24.956052005127265 24.956052005127265 24.956052005127265 24.9340780076909 24.9340780076909 24.91210401025453 24.91210401025453 24.91210401025453 24.91210401025453 24.91210401025453 24.91210401025453 24.91210401025453 24.91210401025453 24.91210401025453 24.91210401025453 24.91210401025453 24.91210401025453 24.91210401025453 24.9340780076909 24.9340780076909 24.9340780076909 24.91210401025453 24.91210401025453 24.91210401025453 24.91210401025453 24.91210401025453 24.890130012818165 24.890130012818165 24.890130012818165 24.890130012818165 24.890130012818165 24.890130012818165 24.8681560153818 24.8681560153818 24.890130012818165 24.8681560153818 24.8681560153818 24.8681560153818 24.890130012818165 24.890130012818165 24.890130012818165 24.890130012818165 24.890130012818165 24.890130012818165 24.890130012818165 24.890130012818165 24.890130012818165 24.890130012818165 24.890130012818165 24.890130012818165 24.890130012818165 24.8681560153818 24.8681560153818 24.8681560153818 24.8681560153818 24.84618201794543 24.8681560153818 24.84618201794543 24.8681560153818 24.8681560153818 24.8681560153818 24.8681560153818 24.8681560153818 24.8681560153818 24.8681560153818 24.8681560153818 24.8681560153818 24.8681560153818 24.8681560153818 24.8681560153818 24.8681560153818 24.8681560153818 24.8681560153818 24.8681560153818 24.8681560153818 24.8681560153818 24.84618201794543 24.84618201794543 24.84618201794543 24.84618201794543 24.84618201794543 24.84618201794543 24.84618201794543 24.84618201794543 24.84618201794543 24.84618201794543 24.84618201794543 24.84618201794543 24.84618201794543 24.84618201794543 24.8681560153818 24.84618201794543 24.84618201794543 24.84618201794543 24.84618201794543 24.84618201794543 24.84618201794543 24.84618201794543 24.84618201794543 24.84618201794543 24.84618201794543 24.84618201794543 24.824208020509065 24.824208020509065 24.824208020509065 24.84618201794543 24.824208020509065 24.84618201794543 24.824208020509065 24.84618201794543 24.824208020509065 24.84618201794543 24.84618201794543 24.84618201794543 24.84618201794543 24.84618201794543 24.84618201794543 24.84618201794543 24.84618201794543 24.84618201794543 24.84618201794543 24.84618201794543 24.84618201794543 24.824208020509065 24.824208020509065 24.824208020509065 24.824208020509065 24.824208020509065 24.824208020509065 24.824208020509065 24.824208020509065 24.824208020509065 24.824208020509065 24.824208020509065 24.824208020509065 24.824208020509065 24.824208020509065 24.824208020509065 24.824208020509065 24.824208020509065 24.824208020509065 24.824208020509065 24.824208020509065 24.824208020509065 24.824208020509065 24.824208020509065 24.824208020509065 24.824208020509065 24.824208020509065 24.824208020509065 24.802234023072696 24.824208020509065 24.824208020509065 24.824208020509065 24.824208020509065 24.824208020509065 24.824208020509065 24.824208020509065 24.824208020509065 24.824208020509065 24.824208020509065 24.824208020509065 24.824208020509065 24.824208020509065 24.824208020509065 24.824208020509065 24.824208020509065 24.824208020509065 24.824208020509065 24.824208020509065 24.824208020509065 24.824208020509065 24.824208020509065 24.802234023072696 24.824208020509065 24.802234023072696 24.824208020509065 24.824208020509065 24.824208020509065 24.802234023072696 24.802234023072696 24.802234023072696 24.802234023072696 24.824208020509065 24.824208020509065 24.802234023072696 24.824208020509065 24.802234023072696 24.824208020509065 24.802234023072696 24.824208020509065 24.824208020509065 24.802234023072696 24.802234023072696 24.802234023072696 24.802234023072696 24.802234023072696 24.802234023072696 24.802234023072696 24.802234023072696 24.802234023072696 24.802234023072696 24.802234023072696 24.802234023072696 24.802234023072696 24.802234023072696 24.802234023072696 24.802234023072696 24.802234023072696 24.802234023072696 24.802234023072696 24.802234023072696 24.802234023072696 24.802234023072696 24.802234023072696 24.802234023072696 24.802234023072696 24.802234023072696 24.802234023072696 24.802234023072696 24.802234023072696 24.802234023072696 24.802234023072696 24.802234023072696 24.802234023072696 24.802234023072696 24.802234023072696 24.802234023072696 24.802234023072696 24.802234023072696 24.802234023072696 24.802234023072696 24.802234023072696 24.802234023072696 24.802234023072696 24.802234023072696 24.802234023072696 24.802234023072696 24.802234023072696 24.802234023072696 24.802234023072696 24.802234023072696 24.802234023072696 24.890130012818165 24.91210401025453 24.91210401025453 24.84618201794543 24.736312030763596 24.736312030763596 24.736312030763596 24.736312030763596 24.78026002563633 24.78026002563633 24.802234023072696 24.78026002563633 24.736312030763596 24.78026002563633 24.758286028199965 24.78026002563633 24.758286028199965 24.71433803332723 24.78026002563633 24.824208020509065 24.802234023072696 24.824208020509065 24.84618201794543 24.78026002563633 24.758286028199965 24.758286028199965 24.736312030763596 24.78026002563633 24.78026002563633 24.78026002563633 24.802234023072696 24.802234023072696 24.802234023072696 24.802234023072696 24.824208020509065 24.824208020509065 24.78026002563633 24.78026002563633 24.758286028199965 24.758286028199965 24.78026002563633 24.78026002563633 24.802234023072696 24.824208020509065 24.84618201794543 24.84618201794543 24.84618201794543 24.8681560153818 24.8681560153818 24.890130012818165 24.91210401025453 24.91210401025453 24.91210401025453 24.91210401025453 24.91210401025453 24.91210401025453 24.9340780076909 24.9340780076909 24.9340780076909 24.9340780076909 24.956052005127265 24.956052005127265 24.956052005127265 24.956052005127265 24.956052005127265 24.956052005127265 24.956052005127265 24.956052005127265 24.956052005127265 24.956052005127265 24.956052005127265 24.956052005127265 24.956052005127265 24.956052005127265 24.956052005127265 24.956052005127265 24.956052005127265 24.9340780076909 24.956052005127265 24.956052005127265 24.956052005127265 24.956052005127265 24.956052005127265 24.956052005127265 24.956052005127265 24.956052005127265 24.956052005127265 24.956052005127265 24.956052005127265 24.956052005127265 24.956052005127265 24.956052005127265 24.956052005127265 24.956052005127265 24.956052005127265 24.9340780076909 24.956052005127265 24.956052005127265 24.956052005127265 24.956052005127265 24.956052005127265 24.956052005127265 24.956052005127265 25.0 25.043947994872735 25.08789598974547 25.1318439846182 25.241713971800035 25.30763596410914 25.30763596410914 25.593297930781908 26.14264786669108 27.263321735945798 28.669657571873284 29.9880974180553 31.46035524629189 32.66892510529207 33.92144295916499 34.86632484892877 35.96502472074712 36.997802600256364 38.25032045412928 39.656656290056766 40.469694195202344 41.48049807727523 42.27156198498443 43.74381981322102 44.73264969785754 45.96319355429409 47.65519135689434 49.2153451748764 51.52261490569492 53.829884636513455 56.664530305804796 59.2574620032961 61.8503937007874 64.641091375206 67.12415308551547 69.54129280351583 71.6288225599707 74.11188427028017 76.26533601904413 78.6824757370445 81.20948544222671 83.6046511627907 85.29664896539094 87.82365867057317 90.06500640908259 -268.0232558139535 -266.04559604468045 -264.4854422266984 -263.14502838308 -262.39791247024357 -261.6507965574071 -261.2332906061161 -261.1014466214979 -261.167368613807 -261.73869254715254 -263.0351583958982 -264.41952023438927 -266.11151803698954 91.73503021424648 89.82329243728255 88.02142464750045 86.19758286028201 84.04413111151804 82.04449734480863 79.47353964475371 77.84746383446256 75.75993407800769 73.93609229078925 71.95843252151622 69.84892876762498 67.93719099066105 66.3111151803699 64.92675334187878 63.828053470060425 62.773301593114816 61.586705731551 60.070499908441676 59.0596960263688 57.63138619300494 55.93938839040469 54.5330525544772 53.412378685222485 52.15986083134957 51.06116095953122 49.63285112616737 48.33638527742171 46.64438747482146 45.10620765427578 44.4250137337484 43.326313861930046 42.798937923457245 42.11774400292987 41.54642006958433 40.88720014649331 40.27192821827504 39.173228346456696 37.85478850027467 36.953854605383626 35.76725874381981 34.62461087712873 33.657754989928584 32.84471708478301 32.3173411463102 31.94378318989196 31.636147225782825 31.30653726423732 30.86705731550998 30.691265336019043 30.537447353964474 30.51547335652811 30.44955136421901 30.14191540010987 29.680461453946165 29.109137520600623 28.62570957700055 28.55978758469145 28.515839589818714 28.515839589818714 28.515839589818714 28.40596960263688 28.31807361289141 28.18622962827321 27.96648965390954 27.856619666727706 27.74674967954587 27.636879692364037 27.548983702618568 27.461087712873102 27.263321735945798 27.219373741073063 27.17542574620033 27.131477751327594 27.087529756454863 27.065555759018494 26.95568577183666 26.88976377952756 26.757919794909355 26.67002380516389 26.58212781541842 26.51620582310932 26.472257828236586 26.45028383080022 26.42830983336385 26.42830983336385 26.42830983336385 26.406335835927486 26.406335835927486 26.406335835927486 26.29646584874565 26.29646584874565 26.29646584874565 26.29646584874565 26.29646584874565 26.274491851309286 26.29646584874565 26.29646584874565 26.29646584874565 26.274491851309286 26.29646584874565 26.29646584874565 26.29646584874565 26.274491851309286 26.274491851309286 26.274491851309286 26.29646584874565 26.29646584874565 26.29646584874565 26.29646584874565 26.274491851309286 26.29646584874565 26.274491851309286 26.29646584874565 26.274491851309286 26.274491851309286 26.274491851309286 26.274491851309286 26.29646584874565 26.274491851309286 26.274491851309286 26.29646584874565 26.29646584874565 26.274491851309286 26.29646584874565 26.274491851309286 26.274491851309286 26.29646584874565 26.274491851309286 26.274491851309286 26.274491851309286 26.274491851309286 26.274491851309286 26.274491851309286 26.274491851309286 26.29646584874565 26.274491851309286 26.274491851309286 26.29646584874565 26.29646584874565 26.274491851309286 26.274491851309286 26.274491851309286 26.274491851309286 26.274491851309286 26.274491851309286 26.274491851309286 26.274491851309286 26.274491851309286 26.274491851309286 26.29646584874565 26.274491851309286 26.274491851309286 26.29646584874565 26.274491851309286 26.29646584874565 26.274491851309286 26.274491851309286 26.274491851309286 26.274491851309286 26.318439846182017 26.38436183849112 27.065555759018494 28.18622962827321 29.70243545138253 31.94378318989196 32.95458707196484 34.75645486174693 36.73411463101996 38.93151437465666 40.93114814136605 43.216443874748215 44.97436366965757 46.73228346456693 48.31441127998535 49.654825123603736 50.665629005676614 51.78630287493133 52.57736678264054 53.566196667277055 54.95055850576817 56.752426295550265 58.44442409815052 60.246291887932614 62.79527559055118 64.59714338033328 67.40981505218824 70.11261673686138 72.72752243178905 75.45229811389855 78.37483977293536 81.89067936275407 83.802417139718 86.32942684490021 88.37300860648233 89.77934444240981 -268.08917780626257 -266.50704999084417 -264.6832082036257 -263.36476835744367 -262.00238051638894 -260.2224867240432 -258.88207288042486 -257.80534700604284 -256.42098516755175 -256.3111151803699 -256.1792711957517 -256.2451931880608 -256.48690715986083 -256.7066471342245 -258.37667093938836 -259.431422816334 -260.7718366599524 -262.46383446255265 -264.0679362754074 -265.6500640908258 -267.60574986266255 90.26277238600989 87.66984068851858 86.37337483977294 83.4728071781725 81.20948544222671 78.46273576268084 75.89177806262589 73.80424830617103 71.0355246291888 68.8381248855521 65.89360922907892 64.1796374290423 61.05932979307819 58.11481413660502 55.36806445705915 51.58853689800403 49.962461087712875 47.61124336202161 45.52371360556674 44.57883171580296 43.370261856802784 42.776963926020876 41.67826405420253 40.667460172129644 39.32704632851126 37.8328145028383 35.85515473356528 34.60263687969236 33.723676982237684 33.196301043764876 32.88866507965574 32.69089910272844 32.5151071232375 32.00970518220106 31.130745284746382 29.54861746932796 29.153085515473357 28.91137154367332 28.84544955136422 28.84544955136422 28.84544955136422 28.84544955136422 28.84544955136422 28.84544955136422 28.823475553927853 28.71360556674602 28.603735579564184 28.581761582127815 28.581761582127815 28.581761582127815 28.581761582127815 28.581761582127815 28.581761582127815 28.581761582127815 28.581761582127815 28.581761582127815 28.581761582127815 28.581761582127815 28.581761582127815 28.581761582127815 28.581761582127815 28.581761582127815 28.581761582127815 28.581761582127815 28.581761582127815 28.581761582127815 28.581761582127815 28.581761582127815 28.581761582127815 28.581761582127815 28.581761582127815 28.581761582127815 28.581761582127815 28.581761582127815 28.581761582127815 28.581761582127815 28.581761582127815 28.581761582127815 28.581761582127815 28.581761582127815 28.581761582127815 28.581761582127815 28.18622962827321 27.96648965390954 27.81267167185497 27.658853689800402 27.548983702618568 27.417139718000367 27.373191723127633 27.395165720564 27.417139718000367 27.439113715436733 27.439113715436733 27.439113715436733 27.439113715436733 27.439113715436733 27.439113715436733 27.439113715436733 27.439113715436733 27.439113715436733 27.439113715436733 27.439113715436733 27.439113715436733 27.439113715436733 27.439113715436733 27.439113715436733 27.439113715436733 27.439113715436733 27.439113715436733 27.439113715436733 27.439113715436733 27.439113715436733 27.439113715436733 27.439113715436733 27.439113715436733 27.439113715436733 27.439113715436733 27.439113715436733 27.439113715436733 27.439113715436733 27.439113715436733 27.439113715436733 27.439113715436733 27.439113715436733 27.439113715436733 27.439113715436733 27.439113715436733 27.439113715436733 27.439113715436733 27.439113715436733 27.439113715436733 27.439113715436733 27.439113715436733 27.439113715436733 27.548983702618568 27.74674967954587 27.944515656473172 29.043215528291523 30.44955136421901 32.33931514374657 34.25105292071049 35.70133675151071 37.327412561801864 39.19520234389306 41.26075810291155 43.238417872184584 45.69950558505768 48.92968320820363 52.31367881340414 54.77476652627723 58.59824208020509 61.7844717084783 65.43215528291522 69.1018128547885 72.66160043947995 76.15546603186229 79.2757736678264 82.52792528840871 85.38454495513642 87.82365867057317 90.52646035524629 -265.8258560703168 -263.5845083318074 -261.43105658304336 -259.189708844534 -257.1681010803882 -254.33345541109685 -252.15802966489656 -250.79564182384178 -249.2574620032961 -249.1036440212415 -249.1036440212415 -249.12561801867787 -249.1036440212415 -249.12561801867787 -249.43325398278705 -249.96062992125985 -250.13642190075075 -251.5207837392419 -252.68540560336936 -254.00384544955136 -255.1245193188061 -256.2451931880608 -257.54165903680644 -259.2995788317158 -259.93682475737046 -261.51895257278886 -263.4966123420619 -265.0787401574803 -266.8146859549533 91.20765427577368 89.33986449368247 87.34023072697309 85.3405969602637 83.53872917048159 81.40725141915401 78.4187877678081 76.616919978026 74.24372825489837 72.17817249587988 69.87090276506135 67.60758102911555 65.8496612342062 64.1137154367332 62.02618568027834 60.202343893059876 58.51034609045962 56.247024354513826 54.97253250320454 53.280534700604285 51.63248489287676 50.050357077458344 48.99560520051273 47.36952939022157 45.87529756454862 44.3590917414393 43.106573887566384 41.83208203625709 40.42574620032961 39.26112433620216 37.87676249771104 36.668192638710856 35.21790880791064 34.22907892327412 33.04248306171031 32.00970518220106 30.647317341146312 29.153085515473357 27.483061710309467 26.07672587438198 25.08789598974547 24.538546053836292 24.208936092290788 23.92327412561802 23.791430140999818 23.76945614356345 23.76945614356345 23.76945614356345 23.76945614356345 23.76945614356345 23.76945614356345 23.76945614356345 23.76945614356345 23.76945614356345 23.76945614356345 23.76945614356345 23.76945614356345 23.76945614356345 23.76945614356345 23.76945614356345 23.76945614356345 23.76945614356345 23.76945614356345 23.76945614356345 23.76945614356345 23.76945614356345 23.76945614356345 23.76945614356345 23.76945614356345 23.76945614356345 23.76945614356345 23.76945614356345 23.76945614356345 23.76945614356345 23.76945614356345 23.76945614356345 23.76945614356345 23.76945614356345 23.76945614356345 23.76945614356345 23.76945614356345 23.76945614356345 23.76945614356345 23.76945614356345 23.76945614356345 23.76945614356345 23.76945614356345 23.76945614356345 23.76945614356345 23.76945614356345 23.76945614356345 23.76945614356345 23.76945614356345 23.76945614356345 23.76945614356345 23.76945614356345 23.76945614356345 23.76945614356345 23.76945614356345 23.76945614356345 23.76945614356345 23.76945614356345 23.76945614356345 23.76945614356345 23.76945614356345 23.76945614356345 23.76945614356345 23.76945614356345 23.76945614356345 23.76945614356345 23.76945614356345 23.76945614356345 23.76945614356345 23.76945614356345 23.76945614356345 23.76945614356345 23.76945614356345 23.76945614356345 23.76945614356345 23.76945614356345 23.76945614356345 23.76945614356345 23.76945614356345 23.76945614356345 23.76945614356345 23.76945614356345 23.76945614356345 23.76945614356345 23.76945614356345 23.76945614356345 23.76945614356345 23.76945614356345 23.76945614356345 23.76945614356345 23.76945614356345 23.76945614356345 23.76945614356345 23.76945614356345 23.76945614356345 23.76945614356345 23.76945614356345 23.747482146127084 23.76945614356345 23.76945614356345 23.85735213330892 24.011170115363488 24.384728071781726 25.747115912836477 26.713971800036624 27.90056766160044 29.570591466764327 31.174693279619117 32.5151071232375 34.88829884636513 37.65702252334737 40.535616187511444 42.798937923457245 45.0842336568394 46.952023438930595 49.08350119025819 50.88536898004028 53.61014466214979 55.47793444424098 58.33455411096869 60.83958981871452 62.487639626442046 65.08057132393334 66.3111151803699 68.26680095220655 69.98077275224318 72.2880424830617 75.03479216260759 76.70481596777148 80.57223951657207 82.48397729353599 85.27467496795458 87.29628273210035 90.5923823475554 -268.04522981138985 -265.62809009338946 -263.25489837026186 -261.14539461637065 -258.59641091375204 -256.377037172679 -254.11371543673323 -252.31184764695115 -250.4660318622963 -248.59824208020507 -247.6753341878777 -246.5766343160593 -245.80754440578653 -245.4339864493682 -245.30214246475003 -245.30214246475003 -245.39003845449548 -245.98333638527743 -247.0600622596594 -248.7300860648233 -250.13642190075075 -251.67460172129648 -254.39937740340594 -255.58597326496977 -257.7174510162974 -259.6951107855704 -261.6947445522798 -263.5845083318074 -265.58414209851674 -267.935359824208 90.54843435268266 88.32906061160959 86.70298480131844 84.37374107306354 82.85753524995422 80.52829152169933 78.352865775499 76.0895440395532 72.88134041384362 71.05749862662516 68.81615088811573 66.59677714704267 64.00384544955136 61.6526277238601 59.23548800585973 56.26899835195019 54.42318256729537 51.78630287493133 50.226149056949275 48.73191723127633 46.820179454312395 44.86449368247574 42.842885918329976 41.15088811572972 39.26112433620216 37.261490569492764 35.76725874381981 34.16315693096502 32.60300311298297 31.614173228346456 30.383629371909905 29.658487456509796 28.999267533418788 28.515839589818714 28.25215162058231 27.90056766160044 27.527009705182202 26.867789782091194 26.164621864127447 25.461453946163708 24.758286028199965 24.56052005127266 24.384728071781726 24.208936092290788 24.033144112799853 23.945248123054384 23.92327412561802 23.92327412561802 23.92327412561802 23.92327412561802 23.92327412561802 23.92327412561802 23.879326130745284 23.76945614356345 23.681560153817983 23.57169016663615 23.505768174327045 23.461820179454314 23.439846182017945 23.461820179454314 23.439846182017945 23.439846182017945 23.439846182017945 23.461820179454314 23.461820179454314 23.439846182017945 23.461820179454314 23.461820179454314 23.439846182017945 23.461820179454314 23.439846182017945 23.439846182017945 23.439846182017945 23.439846182017945 23.439846182017945 23.439846182017945 23.439846182017945 23.439846182017945 23.439846182017945 23.439846182017945 23.439846182017945 23.439846182017945 23.439846182017945 23.439846182017945 23.439846182017945 23.439846182017945 23.439846182017945 23.439846182017945 23.439846182017945 23.439846182017945 23.41787218458158 23.41787218458158 23.39589818714521 23.41787218458158 23.41787218458158 23.41787218458158 23.41787218458158 23.39589818714521 23.41787218458158 23.41787218458158 23.39589818714521 23.41787218458158 23.41787218458158 23.41787218458158 23.39589818714521 23.39589818714521 23.39589818714521 23.41787218458158 23.41787218458158 23.41787218458158 23.41787218458158 23.39589818714521 23.39589818714521 23.39589818714521 23.39589818714521 23.39589818714521 23.41787218458158 23.41787218458158 23.41787218458158 23.39589818714521 23.39589818714521 23.39589818714521 23.39589818714521 23.373924189708845 23.39589818714521 23.373924189708845 23.39589818714521 23.39589818714521 23.373924189708845 23.39589818714521 23.373924189708845 23.373924189708845 23.39589818714521 23.373924189708845 23.39589818714521 23.39589818714521 23.39589818714521 23.39589818714521 23.373924189708845 23.39589818714521 23.39589818714521 23.39589818714521 23.48379417689068 24.428676066654457 25.043947994872735 26.626075810291155 28.076359641091376 29.834279436000735 31.57022523347372 33.438015015564915 36.09686870536532 38.62387841054752 42.00787401574803 44.64475370811206 47.30360739791247 50.95129097234938 53.478300677531585 57.125984251968504 59.960629921259844 62.971067570042116 65.49807727522432 68.13495696758835 70.17853872917048 72.2880424830617 74.52939022157113 77.03442592931697 79.69327961911739 81.84673136788135 84.28584508331807 86.19758286028201 88.30708661417323 90.15290239882806 -267.51785387291704 -265.2325581395349 -262.99121040102546 -261.38710858817063 -259.3435268265886 -257.14612708295186 -254.99267533418788 -253.2567295367149 -251.5207837392419 -249.56509796740522 -248.40047610327775 -247.23585423915034 -246.33492034425933 -245.8295184032229 -245.36806445705912 -245.23622047244095 -245.2142464750046 -245.34609045962276 -246.13715436733196 -246.9941402673503 -247.76323017762314 -248.94982603918692 -249.9386559238235 -251.30104376487822 -252.8611975828603 -254.7729353598242 -256.9263871085882 -259.05786485991575 -261.6947445522798 -264.7491301959348 -267.67167185497163 89.33986449368247 86.57114081670024 84.65940303973632 82.06647134224502 79.49551364219008 77.23219190624428 74.11188427028017 72.04632851126168 68.39864493682475 65.89360922907892 62.487639626442046 59.54312396996887 56.554660318622965 53.720014649331624 51.39077092107672 48.64402124153085 46.73228346456693 44.5568577183666 43.040651895257284 40.77733015931148 38.79967039003846 36.294634682292624 34.03131294634682 31.89983519501923 29.966123420618935 28.09833363852774 26.38436183849112 25.50540194103644 25.50540194103644 25.50540194103644 25.50540194103644 25.50540194103644 25.50540194103644 25.50540194103644 25.50540194103644 25.50540194103644 25.241713971800035 25.1318439846182 24.824208020509065 24.71433803332723 24.670390038454496 24.62644204358176 24.538546053836292 24.34078007690899 24.318806079472623 24.27485808459989 24.186962094854422 24.011170115363488 23.63761215894525 23.000366233290606 22.82457425379967 22.802600256363302 22.802600256363302 22.758652261490568 22.736678264054202 22.736678264054202 22.714704266617836 22.714704266617836 22.714704266617836 22.692730269181467 22.692730269181467 22.670756271745102 22.670756271745102 22.648782274308736 22.670756271745102 22.648782274308736 22.670756271745102 22.670756271745102 22.670756271745102 22.670756271745102 22.670756271745102 22.670756271745102 22.670756271745102 22.648782274308736 22.648782274308736 22.670756271745102 22.648782274308736 22.648782274308736 22.648782274308736 22.626808276872367 22.626808276872367 22.626808276872367 22.604834279436 22.604834279436 22.582860281999633 22.604834279436 22.582860281999633 22.582860281999633 22.604834279436 22.604834279436 22.582860281999633 22.604834279436 22.604834279436 22.604834279436 22.604834279436 22.604834279436 22.604834279436 22.604834279436 22.604834279436 22.604834279436 22.604834279436 22.604834279436 22.604834279436 22.582860281999633 22.582860281999633 22.582860281999633 22.582860281999633 22.560886284563267 22.560886284563267 22.560886284563267 22.560886284563267 22.560886284563267 22.560886284563267 22.560886284563267 22.560886284563267 22.582860281999633 22.560886284563267 22.560886284563267 22.582860281999633 22.582860281999633 22.582860281999633 22.582860281999633 22.582860281999633 22.582860281999633 22.560886284563267 22.560886284563267 22.560886284563267 22.560886284563267 22.560886284563267 22.538912287126898 22.538912287126898 22.538912287126898 22.538912287126898 22.538912287126898 22.538912287126898 22.538912287126898 22.538912287126898 22.538912287126898 22.538912287126898 22.538912287126898 22.538912287126898 22.538912287126898 22.560886284563267 22.560886284563267 22.560886284563267 22.560886284563267 22.560886284563267 22.560886284563267 22.560886284563267 22.538912287126898 22.538912287126898 22.538912287126898 22.538912287126898 22.538912287126898 22.516938289690533 22.516938289690533 22.538912287126898 22.516938289690533 22.516938289690533 22.516938289690533 22.516938289690533 22.516938289690533 22.516938289690533 22.516938289690533 22.516938289690533 22.538912287126898 22.538912287126898 22.538912287126898 22.538912287126898 22.538912287126898 22.538912287126898 22.538912287126898 22.538912287126898 22.538912287126898 22.538912287126898 22.516938289690533 22.516938289690533 22.516938289690533 22.516938289690533 22.516938289690533 22.494964292254167 22.516938289690533 22.494964292254167 22.516938289690533 22.494964292254167 22.516938289690533 22.494964292254167 22.516938289690533 22.516938289690533 22.516938289690533 22.516938289690533 22.516938289690533 22.516938289690533 22.516938289690533 22.516938289690533 22.516938289690533 22.516938289690533 22.516938289690533 22.516938289690533 22.516938289690533 22.516938289690533 22.494964292254167 22.494964292254167 22.494964292254167 22.494964292254167 22.494964292254167 22.494964292254167 22.494964292254167 22.494964292254167 22.494964292254167 22.494964292254167 22.494964292254167 22.494964292254167 22.516938289690533 22.516938289690533 22.516938289690533 22.516938289690533 22.516938289690533 22.516938289690533 22.516938289690533 22.516938289690533 22.516938289690533 22.494964292254167 22.494964292254167 22.494964292254167 22.494964292254167 22.494964292254167 22.494964292254167 22.494964292254167 22.494964292254167 22.472990294817798 22.494964292254167 22.494964292254167 22.494964292254167 22.494964292254167 22.494964292254167 22.494964292254167 22.494964292254167 22.494964292254167 22.494964292254167 22.494964292254167 22.494964292254167 22.494964292254167 22.494964292254167 22.494964292254167 22.494964292254167 22.494964292254167 22.494964292254167 22.494964292254167 22.472990294817798 22.472990294817798 22.472990294817798 22.472990294817798 22.472990294817798 22.472990294817798 22.472990294817798 22.472990294817798 22.472990294817798 