25.0 25.021973997436366 25.021973997436366 25.0 25.021973997436366 25.0 25.0 25.0 25.0 25.021973997436366 25.0 25.0 25.021973997436366 25.021973997436366 25.0 25.021973997436366 25.021973997436366 25.021973997436366 25.021973997436366 25.021973997436366 25.021973997436366 25.0 25.0 25.0 25.0 25.021973997436366 25.0 25.0 25.0 25.021973997436366 25.0 25.0 25.0 25.021973997436366 25.0 25.021973997436366 25.0 25.0 25.0 25.021973997436366 25.021973997436366 25.021973997436366 25.021973997436366 25.021973997436366 25.0 25.0 25.021973997436366 25.0 25.021973997436366 25.0 25.0 25.021973997436366 25.021973997436366 25.0 25.0 25.0 25.0 25.0 25.0 25.021973997436366 25.0 25.0 25.0 25.0 25.0 25.0 25.0 25.0 25.0 25.021973997436366 25.021973997436366 25.0 25.0 25.021973997436366 25.021973997436366 25.021973997436366 25.0 25.0 25.021973997436366 25.0 25.0 25.0 25.0 25.0 25.0 25.0 25.0 25.0 25.021973997436366 25.0 25.0 25.021973997436366 25.0 25.0 25.0 25.021973997436366 25.0 25.0 25.0 25.0 25.021973997436366 25.0 25.0 25.0 25.0 25.0 25.0 25.0 25.0 25.0 25.0 25.0 25.0 25.0 25.0 25.021973997436366 25.0 25.0 25.0 25.021973997436366 25.0 25.0 25.021973997436366 25.0 25.0 25.021973997436366 25.0 25.0 25.021973997436366 25.021973997436366 25.021973997436366 25.021973997436366 25.021973997436366 25.021973997436366 25.021973997436366 25.021973997436366 25.021973997436366 25.0 25.021973997436366 25.0 25.021973997436366 25.021973997436366 25.021973997436366 25.021973997436366 25.021973997436366 25.021973997436366 25.021973997436366 25.021973997436366 25.021973997436366 25.021973997436366 25.021973997436366 25.021973997436366 25.021973997436366 25.021973997436366 25.021973997436366 25.021973997436366 25.021973997436366 25.021973997436366 25.021973997436366 25.021973997436366 25.021973997436366 25.021973997436366 25.021973997436366 25.021973997436366 25.021973997436366 25.021973997436366 25.021973997436366 25.021973997436366 25.021973997436366 25.0 25.021973997436366 25.021973997436366 25.021973997436366 25.021973997436366 25.021973997436366 25.021973997436366 25.021973997436366 25.021973997436366 25.021973997436366 25.021973997436366 25.021973997436366 25.021973997436366 25.021973997436366 25.021973997436366 25.021973997436366 25.021973997436366 25.021973997436366 25.021973997436366 25.021973997436366 25.021973997436366 25.021973997436366 25.021973997436366 25.021973997436366 25.021973997436366 25.021973997436366 25.021973997436366 25.021973997436366 25.021973997436366 25.021973997436366 25.021973997436366 25.021973997436366 25.021973997436366 25.021973997436366 25.021973997436366 25.021973997436366 25.021973997436366 25.021973997436366 25.0 25.021973997436366 25.021973997436366 25.021973997436366 25.021973997436366 25.021973997436366 25.021973997436366 25.0 25.021973997436366 25.021973997436366 25.021973997436366 25.021973997436366 25.021973997436366 25.021973997436366 25.0 25.021973997436366 25.021973997436366 25.0 25.0 25.0 25.021973997436366 25.021973997436366 25.0 25.021973997436366 25.021973997436366 25.0 25.021973997436366 25.021973997436366 25.021973997436366 25.0 25.021973997436366 25.021973997436366 25.0 25.021973997436366 25.0 25.0 25.021973997436366 25.0 25.021973997436366 25.021973997436366 25.0 25.021973997436366 25.0 25.0 25.021973997436366 25.0 25.021973997436366 25.021973997436366 25.021973997436366 25.021973997436366 25.0 25.0 25.0 25.021973997436366 25.0 25.021973997436366 25.021973997436366 25.021973997436366 25.021973997436366 25.0 25.021973997436366 25.021973997436366 25.021973997436366 25.021973997436366 25.021973997436366 25.0 25.021973997436366 25.021973997436366 25.021973997436366 25.021973997436366 25.021973997436366 25.021973997436366 25.0 25.0 25.0 25.021973997436366 25.0 25.021973997436366 25.0 25.021973997436366 25.021973997436366 25.021973997436366 25.021973997436366 25.021973997436366 25.021973997436366 25.021973997436366 25.021973997436366 25.021973997436366 25.021973997436366 25.0 25.021973997436366 25.021973997436366 25.021973997436366 25.021973997436366 25.021973997436366 25.021973997436366 25.021973997436366 25.021973997436366 25.021973997436366 25.021973997436366 25.021973997436366 25.021973997436366 25.021973997436366 25.021973997436366 25.021973997436366 25.021973997436366 25.021973997436366 25.021973997436366 25.021973997436366 25.021973997436366 25.021973997436366 25.021973997436366 25.021973997436366 25.021973997436366 25.021973997436366 25.021973997436366 25.021973997436366 25.021973997436366 25.021973997436366 25.021973997436366 25.021973997436366 25.021973997436366 25.021973997436366 25.021973997436366 25.021973997436366 25.021973997436366 25.021973997436366 25.021973997436366 25.021973997436366 25.021973997436366 25.021973997436366 25.021973997436366 25.021973997436366 25.021973997436366 25.021973997436366 25.021973997436366 25.021973997436366 25.021973997436366 25.021973997436366 25.021973997436366 25.021973997436366 25.021973997436366 25.021973997436366 25.021973997436366 25.021973997436366 25.021973997436366 25.021973997436366 25.021973997436366 25.021973997436366 25.021973997436366 25.021973997436366 25.021973997436366 25.021973997436366 25.021973997436366 25.021973997436366 25.021973997436366 25.021973997436366 25.021973997436366 25.021973997436366 25.021973997436366 25.021973997436366 25.021973997436366 25.021973997436366 25.021973997436366 25.021973997436366 25.021973997436366 25.021973997436366 25.021973997436366 25.021973997436366 25.021973997436366 25.021973997436366 25.021973997436366 25.021973997436366 25.021973997436366 25.021973997436366 25.021973997436366 25.021973997436366 25.021973997436366 25.021973997436366 25.021973997436366 25.021973997436366 25.021973997436366 25.021973997436366 25.021973997436366 25.021973997436366 25.021973997436366 25.021973997436366 25.021973997436366 25.021973997436366 25.021973997436366 25.021973997436366 25.021973997436366 25.021973997436366 25.021973997436366 25.021973997436366 25.021973997436366 25.021973997436366 25.021973997436366 25.021973997436366 25.021973997436366 25.021973997436366 25.021973997436366 25.021973997436366 25.021973997436366 25.021973997436366 25.021973997436366 25.021973997436366 25.021973997436366 25.021973997436366 25.021973997436366 25.021973997436366 25.021973997436366 25.021973997436366 25.021973997436366 25.021973997436366 25.021973997436366 25.021973997436366 25.021973997436366 25.021973997436366 25.021973997436366 25.021973997436366 25.021973997436366 25.021973997436366 25.021973997436366 25.021973997436366 25.021973997436366 25.021973997436366 25.021973997436366 25.021973997436366 25.021973997436366 25.021973997436366 25.021973997436366 25.021973997436366 25.0 25.021973997436366 25.021973997436366 25.021973997436366 25.021973997436366 25.021973997436366 25.021973997436366 25.021973997436366 25.021973997436366 25.021973997436366 25.021973997436366 25.021973997436366 25.021973997436366 25.021973997436366 25.021973997436366 25.021973997436366 25.021973997436366 25.021973997436366 25.021973997436366 25.021973997436366 25.021973997436366 25.021973997436366 25.021973997436366 25.021973997436366 25.021973997436366 25.021973997436366 25.021973997436366 25.021973997436366 25.021973997436366 25.021973997436366 25.021973997436366 25.021973997436366 25.021973997436366 25.021973997436366 25.021973997436366 25.021973997436366 25.021973997436366 25.021973997436366 25.021973997436366 25.021973997436366 25.021973997436366 25.021973997436366 25.0 25.021973997436366 25.021973997436366 25.021973997436366 25.021973997436366 25.021973997436366 25.021973997436366 25.021973997436366 25.021973997436366 25.021973997436366 25.021973997436366 25.021973997436366 25.021973997436366 25.021973997436366 25.021973997436366 25.021973997436366 25.021973997436366 25.021973997436366 25.021973997436366 25.021973997436366 25.021973997436366 25.021973997436366 25.043947994872735 25.021973997436366 25.021973997436366 25.021973997436366 25.021973997436366 25.021973997436366 25.043947994872735 25.021973997436366 25.021973997436366 25.021973997436366 25.021973997436366 25.021973997436366 25.021973997436366 25.043947994872735 25.021973997436366 25.021973997436366 25.021973997436366 25.021973997436366 25.021973997436366 25.021973997436366 25.021973997436366 25.021973997436366 25.021973997436366 25.021973997436366 25.021973997436366 25.021973997436366 25.021973997436366 25.021973997436366 25.021973997436366 25.021973997436366 25.021973997436366 25.021973997436366 25.021973997436366 25.021973997436366 25.021973997436366 25.021973997436366 25.021973997436366 25.021973997436366 25.021973997436366 25.021973997436366 25.021973997436366 25.021973997436366 25.021973997436366 25.021973997436366 25.021973997436366 25.021973997436366 25.021973997436366 25.021973997436366 25.021973997436366 25.021973997436366 25.021973997436366 25.021973997436366 25.021973997436366 25.021973997436366 25.021973997436366 25.021973997436366 25.021973997436366 25.043947994872735 25.021973997436366 25.021973997436366 25.043947994872735 25.021973997436366 25.021973997436366 25.021973997436366 25.021973997436366 25.021973997436366 25.021973997436366 25.021973997436366 25.043947994872735 25.021973997436366 25.021973997436366 25.021973997436366 25.021973997436366 25.021973997436366 25.021973997436366 25.021973997436366 25.021973997436366 25.021973997436366 25.021973997436366 25.021973997436366 25.021973997436366 25.021973997436366 25.021973997436366 25.021973997436366 25.021973997436366 25.021973997436366 25.021973997436366 25.021973997436366 25.021973997436366 25.021973997436366 25.021973997436366 25.021973997436366 25.021973997436366 25.021973997436366 25.021973997436366 25.021973997436366 25.021973997436366 25.021973997436366 25.021973997436366 25.021973997436366 25.021973997436366 25.021973997436366 25.021973997436366 25.021973997436366 25.021973997436366 25.021973997436366 25.021973997436366 25.021973997436366 25.021973997436366 25.021973997436366 25.021973997436366 25.021973997436366 25.021973997436366 25.021973997436366 25.021973997436366 25.021973997436366 25.021973997436366 25.021973997436366 25.021973997436366 25.021973997436366 25.021973997436366 25.021973997436366 25.021973997436366 25.021973997436366 25.021973997436366 25.021973997436366 25.021973997436366 25.021973997436366 25.021973997436366 25.021973997436366 25.021973997436366 25.021973997436366 25.021973997436366 25.021973997436366 25.021973997436366 25.021973997436366 25.021973997436366 25.0659219923091 25.08789598974547 25.109869987181835 25.1318439846182 25.175791979490935 25.197765976927304 25.21973997436367 25.241713971800035 25.241713971800035 25.241713971800035 25.21973997436367 25.197765976927304 25.175791979490935 25.197765976927304 25.21973997436367 25.21973997436367 25.21973997436367 25.21973997436367 25.21973997436367 25.21973997436367 25.21973997436367 25.21973997436367 25.21973997436367 25.21973997436367 25.21973997436367 25.21973997436367 25.21973997436367 25.241713971800035 25.28566196667277 25.329609961545504 25.395531953854604 25.527375938472808 25.791063907709212 26.14264786669108 26.626075810291155 27.219373741073063 27.90056766160044 28.62570957700055 29.41677348470976 30.273759384728073 31.174693279619117 32.0536531770738 32.88866507965574 33.789598974546784 34.62461087712873 35.45962277971068 36.22871268998352 36.997802600256364 37.7009705182201 38.42611243362022 39.107306354147596 39.788500274674966 40.447720197765975 40.99707013367515 41.70023805163889 42.51327595678447 43.040651895257284 43.85368980040286 44.57883171580296 45.32594762863944 45.78740157480315 46.248855520966856 46.93004944149423 47.67716535433071 48.20454129280351 48.92968320820363 49.676799121040105 50.182201062076544 50.86339498260392 51.36879692364036 52.11591283647684 53.08276872367698 53.588170664713424 54.29133858267717 55.08240249038637 55.63175242629555 56.20307635964109 56.752426295550265 57.91704815967771 58.81798205456876 59.4552279802234 60.378135872550814 61.25709577000549 61.89434169566014 62.79527559055118 63.432521516205824 64.28950741622413 65.1684673136788 65.73979124702436 66.59677714704267 67.51968503937007 68.37667093938839 68.94799487273393 69.58524079838858 70.53012268815235 71.71671854971618 72.33199047793445 73.1010803882073 73.65043032411646 74.44149423182567 75.23255813953489 75.86980406518953 76.46310199597144 77.1442959164988 77.67167185497162 78.2869437831899 78.81431972166271 79.38564365500824 80.24262955502655 80.59421351400843 81.0776414576085 81.69291338582677 82.11041933711775 82.68174327046329 83.25306720380883 83.802417139718 84.3297930781908 84.72532503204542 85.07690899102728 85.51638893975462 86.02179088079106 86.46127082951841 86.7908807910639 87.20838674235489 87.62589269364585 87.80168467313679 88.32906061160959 88.68064457059147 88.87841054751877 89.16407251419155 89.38381248855521 89.60355246291888 89.80131843984618 89.95513642190075 90.02105841420986 90.08698040651895 90.10895440395532 90.10895440395532 90.10895440395532 90.10895440395532 89.97711041933712 89.88921442959166 89.73539644753708 89.53763047060978 89.20802050906427 88.9882805347006 88.61472257828237 88.21919062442777 87.82365867057317 87.47207471159129 87.03259476286395 86.68101080388207 85.97784288591834 85.58231093206373 85.27467496795458 84.72532503204542 84.15400109869987 83.71452114997254 83.09924922175426 82.59384728071782 81.93462735762681 81.25343343709943 80.46236952939023 79.73722761399011 78.96813770371728 78.39681377037172 77.84746383446256 77.16626991393517 76.44112799853508 75.78190807544406 75.32045412928035 74.59531221388025 73.91411829335286 73.32082036257097 72.74949642922542 72.2880424830617 71.60684856253434 70.88170664713422 70.44222669840688 69.65116279069767 69.05786485991577 68.64035890862479 68.17890496246109 67.54165903680644 67.14612708295184 66.5748031496063 65.93755722395166 65.36623329060612 64.5751693828969 64.3774034059696 63.93792345724226 63.52041750595129 62.79527559055118 62.22395165720564 61.82841970335103 61.27906976744186 60.729719831532684 60.33418787767808 59.740889946896175 59.367331990477936 58.79600805713239 58.24665812122322 57.82915216993224 57.125984251968504 56.57663431605933 56.13715436733199 55.54385643655009 55.34609045962278 54.70884453396813 53.895806628822555 53.478300677531585 52.906976744186046 52.48947079289508 51.8741988646768 51.28090093389489 51.01721296465848 50.511811023622045 49.76469511078557 49.39113715436733 48.84178721845816 48.49020325947629 47.98480131843985 47.2816334004761 47.061893426112434 46.57846548251236 46.051089544039556 45.69950558505768 45.23805163889398 44.8864676799121 44.271195751693824 43.787767808093754 43.633949826039185 43.216443874748215 42.82091192089361 42.46932796191174 42.00787401574803 41.72221204907526 41.21681010803882 40.86522614905695 40.68943416956601 40.184032228529574 39.8324482695477 39.546786302874935 39.19520234389306 38.95348837209302 38.60190441311115 38.22834645669291 37.92071049258378 37.5032045412928 37.041750595129095 36.602270646401756 36.316608679728986 36.00897271561985 35.59146676432888 35.08606482329244 34.86632484892877 34.62461087712873 34.18513092840139 33.96539095403772 33.701702984801315 33.503937007874015 33.218275041201245 32.95458707196484 32.778795092473906 32.49313312580114 32.185497161692 31.94378318989196 31.59219923091009 31.37245925654642 30.845083318073613 30.51547335652811 30.273759384728073 30.032045412928035 29.76835744369163 29.48269547701886 28.999267533418788 28.71360556674602 28.47189159494598 28.230177623145945 27.90056766160044 27.724775682109502 27.395165720564 27.153451748763963 26.845815784654825 26.58212781541842 26.318439846182017 26.01080388207288 25.835011902581943 25.791063907709212 25.791063907709212 25.813037905145578 25.813037905145578 25.813037905145578 25.813037905145578 25.813037905145578 25.813037905145578 25.813037905145578 25.813037905145578 25.813037905145578 25.813037905145578 25.813037905145578 25.813037905145578 25.813037905145578 25.813037905145578 25.813037905145578 25.813037905145578 25.813037905145578 25.813037905145578 25.813037905145578 25.813037905145578 25.791063907709212 25.813037905145578 25.813037905145578 25.813037905145578 25.813037905145578 25.813037905145578 25.813037905145578 25.813037905145578 25.813037905145578 25.813037905145578 25.813037905145578 25.813037905145578 25.813037905145578 25.813037905145578 25.813037905145578 25.813037905145578 25.813037905145578 25.813037905145578 25.813037905145578 25.813037905145578 25.813037905145578 25.813037905145578 25.813037905145578 25.813037905145578 25.813037905145578 25.813037905145578 25.813037905145578 25.813037905145578 25.813037905145578 25.813037905145578 25.813037905145578 25.813037905145578 25.813037905145578 25.813037905145578 25.813037905145578 25.813037905145578 25.813037905145578 25.813037905145578 25.813037905145578 25.813037905145578 25.813037905145578 25.813037905145578 25.813037905145578 25.813037905145578 25.835011902581943 25.813037905145578 25.813037905145578 25.813037905145578 25.813037905145578 25.813037905145578 25.813037905145578 25.813037905145578 25.813037905145578 25.813037905145578 25.813037905145578 25.813037905145578 25.813037905145578 25.813037905145578 25.813037905145578 25.813037905145578 25.813037905145578 25.813037905145578 25.813037905145578 25.813037905145578 25.813037905145578 25.813037905145578 25.813037905145578 25.813037905145578 25.813037905145578 25.813037905145578 25.813037905145578 25.813037905145578 25.835011902581943 25.813037905145578 25.813037905145578 25.813037905145578 25.813037905145578 25.835011902581943 25.813037905145578 25.813037905145578 25.813037905145578 25.813037905145578 25.835011902581943 25.813037905145578 25.835011902581943 25.835011902581943 25.813037905145578 25.813037905145578 25.813037905145578 25.835011902581943 25.835011902581943 25.835011902581943 25.835011902581943 25.813037905145578 25.813037905145578 25.835011902581943 25.835011902581943 25.835011902581943 25.813037905145578 25.835011902581943 25.813037905145578 25.835011902581943 25.835011902581943 25.813037905145578 25.835011902581943 25.835011902581943 25.813037905145578 25.835011902581943 25.813037905145578 25.813037905145578 25.813037905145578 25.813037905145578 25.835011902581943 25.813037905145578 25.835011902581943 25.835011902581943 25.813037905145578 25.835011902581943 25.835011902581943 25.835011902581943 25.813037905145578 25.835011902581943 25.835011902581943 25.813037905145578 25.813037905145578 25.813037905145578 25.813037905145578 25.835011902581943 25.813037905145578 25.835011902581943 25.835011902581943 25.813037905145578 25.835011902581943 25.813037905145578 25.813037905145578 25.835011902581943 25.813037905145578 25.813037905145578 25.813037905145578 25.813037905145578 25.835011902581943 25.835011902581943 25.813037905145578 25.813037905145578 25.813037905145578 25.813037905145578 25.813037905145578 25.813037905145578 25.813037905145578 25.813037905145578 25.813037905145578 25.813037905145578 25.813037905145578 25.835011902581943 25.835011902581943 25.813037905145578 25.835011902581943 25.835011902581943 25.813037905145578 25.813037905145578 25.835011902581943 25.813037905145578 25.813037905145578 25.813037905145578 25.835011902581943 25.813037905145578 25.813037905145578 25.813037905145578 25.835011902581943 25.835011902581943 25.835011902581943 25.835011902581943 25.900933894891047 25.966855887200147 26.07672587438198 26.208569859000182 26.494231825672955 26.80186778978209 27.087529756454863 27.461087712873102 27.90056766160044 28.12030763596411 28.933345541109688 29.306903497527927 29.724409448818896 30.36165537447354 30.911005310382713 31.482329243728255 32.2514191540011 32.69089910272844 33.39406702069218 34.11920893609229 34.60263687969236 35.52554477201978 35.986998718183486 36.668192638710856 37.3054385643655 37.7668925105292 38.29426844900202 39.15125434902033 39.678630287493135 40.42574620032961 40.99707013367515 41.70023805163889 42.44735396447537 42.97472990294818 43.74381981322102 44.22724775682109 44.90844167734847 45.58963559787585 46.117011536348656 46.71030946713056 47.54532136971251 48.00677531587621 48.38033327229445 48.84178721845816 49.4131111518037 50.028383080021975 50.643655008240245 51.23695293902216 51.8082768723677 52.2697308185314 52.68723676982238 53.126716718549716 53.654092657022524 54.68687053653177 54.92858450833181 55.56583043398645 56.22505035707746 56.752426295550265 57.235854239150335 57.69730818531404 58.35652810840505 59.01574803149606 59.56509796740524 60.61984984435085 60.97143380333272 61.49880974180553 61.96026368796924 62.35579564182384 63.058963559787585 63.784105475187694 64.39937740340596 64.97070133675152 65.91558322651528 66.48690715986083 67.21204907526095 67.65152902398827 68.46456692913387 69.12378685222487 69.58524079838858 70.26643471891595 70.92565464200696 71.4969785753525 72.09027650613442 72.52975645486175 73.40871635231643 73.8262223036074 74.26570225233473 74.85900018311665 75.45229811389855 75.84783006775316 76.46310199597144 76.72678996520784 77.23219190624428 77.91338582677164 78.2869437831899 78.83629371909907 79.01208569859 79.73722761399011 80.24262955502655 80.48434352682659 81.16553744735396 81.67093938839041 82.02252334737227 82.52792528840871 82.90148324482695 83.3409631935543 83.7364951474089 84.0001831166453 84.37374107306354 84.70335103460906 84.90111701153634 85.14283098333638 85.3405969602637 85.51638893975462 85.6042849295001 85.6702069218092 85.75810291155466 85.8020509064274 85.8020509064274 85.8020509064274 85.8020509064274 85.7361289141183 85.49441494231826 85.27467496795458 84.96703900384546 84.59348104742722 84.3297930781908 83.95623512177258 83.53872917048159 83.18714521149973 82.8135872550815 82.65976927302691 82.33015931148142 81.97857535249955 81.69291338582677 81.36330342428127 80.98974546786303 80.63816150888115 80.28657754989928 80.04486357809925 79.82512360373559 79.47353964475371 79.16590368064458 78.83629371909907 78.57260574986266 78.24299578831716 77.93535982420804 77.71561984984436 77.42995788317158 77.10034792162608 76.90258194469877 76.59494598058964 76.37520600622597 76.02362204724409 75.58414209851676 75.34242812671673 75.14466214978941 74.90294817798939 74.55136421900751 74.15583226515291 73.87017029848013 73.18897637795277 72.74949642922542 72.4198864676799 72.06830250869804 71.71671854971618 71.01355063175242 70.53012268815235 70.17853872917048 69.60721479582494 69.1018128547885 68.50851492400659 68.09100897271563 67.67350302142464 67.23402307269731 66.68467313678813 66.3111151803699 65.80571323933346 65.34425929316976 64.97070133675152 64.48727339315144 64.13568943416956 63.630287493133125 63.10291155466032 62.68540560336935 62.09210767258744 61.03735579564182 60.55392785204175 60.136421900750776 59.652993957150706 58.97180003662333 58.26863211865959 57.78520417505951 56.9941402673503 56.115180369895626 55.43398644936825 54.44515656473173 53.588170664713424 52.863028749313315 52.04999084416774 51.50064090825856 50.48983702618568 50.072331074894706 49.4131111518037 49.06152719282183 48.66599523896723 48.09467130562168 47.523347372276135 46.93004944149423 46.380699505585056 45.87529756454862 45.52371360556674 45.12818165171214 44.86449368247574 44.5568577183666 44.2931697491302 44.139351767075624 43.941585790148324 43.80974180553012 43.633949826039185 43.48013184398462 43.326313861930046 43.172495879875484 42.842885918329976 42.62314594396631 42.33748397729354 42.07379600805713 41.52444607214796 41.19483611060245 40.88720014649331 40.535616187511444 39.876396264420436 39.41494231825673 38.97546236952939 38.60190441311115 38.07452847463834 37.5691265336019 37.15162058231093 36.668192638710856 36.16279069767442 35.83318073612892 35.34975279252884 35.0421168284197 34.60263687969236 34.09723493865592 33.92144295916499 33.67972898736495 33.438015015564915 33.284197033510345 32.97656106940121 32.800769089910276 32.5151071232375 32.29536714887384 32.16352316425563 31.96575718732833 31.614173228346456 31.196667277055482 30.713239333455412 30.603369346273574 30.251785387291704 29.944149423182566 29.680461453946165 29.41677348470976 29.19703351034609 29.087163523164257 28.933345541109688 28.84544955136422 28.735579564182384 28.603735579564184 28.47189159494598 28.34004761032778 28.27412561801868 28.142281633400476 28.03241164621864 27.90056766160044 27.74674967954587 27.636879692364037 27.570957700054933 27.548983702618568 27.483061710309467 27.417139718000367 27.373191723127633 27.329243728254898 27.219373741073063 27.10950375389123 27.02160776414576 26.867789782091194 26.73594579747299 26.538179820545686 26.318439846182017 26.186595861563816 26.098699871818347 26.07672587438198 26.07672587438198 26.098699871818347 26.098699871818347 26.098699871818347 26.098699871818347 26.098699871818347 26.098699871818347 26.07672587438198 26.098699871818347 26.07672587438198 26.098699871818347 26.07672587438198 26.098699871818347 26.098699871818347 26.098699871818347 26.098699871818347 26.07672587438198 26.098699871818347 26.07672587438198 26.098699871818347 26.098699871818347 26.098699871818347 26.098699871818347 26.098699871818347 26.098699871818347 26.098699871818347 26.098699871818347 26.098699871818347 26.098699871818347 26.098699871818347 26.098699871818347 26.098699871818347 26.098699871818347 26.098699871818347 26.098699871818347 26.098699871818347 26.07672587438198 26.098699871818347 26.098699871818347 26.07672587438198 26.098699871818347 26.098699871818347 26.098699871818347 26.07672587438198 26.098699871818347 26.07672587438198 26.098699871818347 26.098699871818347 26.07672587438198 26.098699871818347 26.07672587438198 26.098699871818347 26.07672587438198 26.098699871818347 26.098699871818347 26.098699871818347 26.098699871818347 26.098699871818347 26.07672587438198 26.098699871818347 26.098699871818347 26.07672587438198 26.098699871818347 26.098699871818347 26.098699871818347 26.07672587438198 26.098699871818347 26.098699871818347 26.098699871818347 26.098699871818347 26.098699871818347 26.098699871818347 26.098699871818347 26.098699871818347 26.07672587438198 26.098699871818347 26.098699871818347 26.098699871818347 26.07672587438198 26.098699871818347 26.07672587438198 26.098699871818347 26.07672587438198 26.098699871818347 26.098699871818347 26.098699871818347 26.098699871818347 26.098699871818347 26.07672587438198 26.098699871818347 26.098699871818347 26.098699871818347 26.098699871818347 26.098699871818347 26.098699871818347 26.098699871818347 26.098699871818347 26.098699871818347 26.098699871818347 26.07672587438198 26.098699871818347 26.098699871818347 26.098699871818347 26.098699871818347 26.098699871818347 26.098699871818347 26.098699871818347 26.098699871818347 26.07672587438198 26.098699871818347 26.07672587438198 26.07672587438198 26.07672587438198 26.07672587438198 26.07672587438198 26.07672587438198 26.07672587438198 26.07672587438198 26.07672587438198 26.07672587438198 26.07672587438198 26.07672587438198 26.07672587438198 26.07672587438198 26.07672587438198 26.07672587438198 26.07672587438198 26.07672587438198 26.07672587438198 26.07672587438198 26.07672587438198 26.054751876945616 26.07672587438198 26.07672587438198 26.07672587438198 26.07672587438198 26.07672587438198 26.07672587438198 26.054751876945616 26.07672587438198 26.07672587438198 26.07672587438198 26.054751876945616 26.07672587438198 26.054751876945616 26.054751876945616 26.054751876945616 26.07672587438198 26.054751876945616 26.07672587438198 26.07672587438198 26.07672587438198 26.07672587438198 26.07672587438198 26.07672587438198 26.07672587438198 26.07672587438198 26.07672587438198 26.07672587438198 26.07672587438198 26.07672587438198 26.07672587438198 26.07672587438198 26.054751876945616 26.07672587438198 26.07672587438198 26.07672587438198 26.07672587438198 26.07672587438198 26.054751876945616 26.07672587438198 26.07672587438198 26.07672587438198 26.054751876945616 26.07672587438198 26.07672587438198 26.07672587438198 26.07672587438198 26.07672587438198 26.07672587438198 26.07672587438198 26.07672587438198 26.07672587438198 26.07672587438198 26.07672587438198 26.07672587438198 26.07672587438198 26.07672587438198 26.07672587438198 26.07672587438198 26.07672587438198 26.07672587438198 26.07672587438198 26.07672587438198 26.07672587438198 26.07672587438198 26.07672587438198 26.07672587438198 26.07672587438198 26.07672587438198 26.07672587438198 26.07672587438198 26.07672587438198 26.07672587438198 26.07672587438198 26.07672587438198 26.07672587438198 26.07672587438198 26.07672587438198 26.07672587438198 26.07672587438198 26.07672587438198 26.07672587438198 26.07672587438198 26.098699871818347 26.120673869254716 26.164621864127447 26.23054385643655 26.38436183849112 26.58212781541842 26.757919794909355 27.197399743636698 27.461087712873102 27.724775682109502 28.34004761032778 28.71360556674602 29.087163523164257 29.504669474455227 29.878227430873466 30.42757736678264 30.823109320637247 31.81193920527376 32.33931514374657 32.800769089910276 33.306171030946714 34.009338948910454 34.53671488738326 35.02014283098333 35.59146676432888 36.51437465665629 37.261490569492764 37.78886650796557 38.49203442592932 39.28309833363853 39.8324482695477 40.535616187511444 41.04101812854789 41.70023805163889 42.40340596960264 42.864859915766345 43.61197582860282 44.60080571323933 45.10620765427578 45.58963559787585 46.07306354147592 46.776231459439664 47.56729536714887 48.31441127998535 48.95165720563999 49.56692913385827 50.028383080021975 50.511811023622045 50.92931697491302 51.85222486724043 52.51144479033144 52.97289873649515 53.61014466214979 54.22541659036806 54.64292254165903 55.28016846731368 55.71964841604102 56.400842336568395 57.038088262223035 57.52151620582311 58.22468412378685 59.14759201611427 59.652993957150706 60.158395898187145 60.575901849478115 61.25709577000549 61.93828969053287 62.42171763413294 63.542391503387655 64.00384544955136 64.46529939571508 65.19044131111518 65.69584325215162 66.4429591649881 67.1681010803882 67.69547701886101 68.42061893426111 68.99194286760667 69.6951107855704 70.39827870353415 70.9036806445706 71.6288225599707 72.2880424830617 72.74949642922542 73.40871635231643 73.8921442959165 74.66123420618933 75.23255813953489 75.60611609595313 76.04559604468047 76.77073796008057 77.276139901117 77.80351583958982 78.00128181651712 78.77037172678996 79.12195568577184 79.47353964475371 79.86907159860831 80.28657754989928 80.57223951657207 80.98974546786303 81.31935542940855 81.73686138069951 82.15436733199049 82.44002929866325 82.87950924739059 83.29701519868156 83.6046511627907 84.04413111151804 84.48361106024538 84.76927302691814 85.16480498077274 85.49441494231826 85.88994689617286 86.50521882439114 86.9227247756821 87.45010071415491 87.82365867057317 88.37300860648233 88.7905145577733 89.03222852957333 89.25196850393701 89.36183849111885 89.38381248855521 89.38381248855521 89.38381248855521 89.31789049624611 89.12012451931881 89.01025453213697 88.76854056033693 88.48287859366417 88.26313861930049 87.91155466031863 87.51602270646401 87.12049075260941 86.72495879875481 86.41732283464567 86.1316608679729 85.75810291155466 85.09888298846366 84.54953305255447 84.15400109869987 83.56070316791798 82.92345724226331 82.44002929866325 81.80278337300861 81.34132942684491 80.63816150888115 79.93499359091741 79.42959164988098 78.63852774217176 77.64969785753524 77.0783739241897 76.52902398828054 76.04559604468047 75.25453213697125 74.48544222669841 73.93609229078925 73.01318439846182 72.09027650613442 71.84856253433438 71.38710858817066 70.63999267533418 69.98077275224318 69.32155282915217 68.8381248855521 68.13495696758835 67.49771104193371 67.01428309833364 66.377037172679 65.89360922907892 65.23438930598792 64.5751693828969 64.09174143929684 63.366599523896724 62.66343160593298 61.6526277238601 60.97143380333272 60.509979857169014 60.004577916132575 59.47720197765977 59.08167002380517 58.18073612891412 57.52151620582311 57.016114264786665 56.488738326313864 55.983336385277426 54.88463651345907 54.00567661600439 53.368430690349754 52.55539278520418 51.69840688518586 51.23695293902216 50.48983702618568 50.094305072331075 49.479033144112805 48.88573521333089 48.42428126716719 47.523347372276135 46.973997436366965 46.51254349020326 45.69950558505768 45.47976561069402 44.8864676799121 44.22724775682109 43.91961179271196 43.54605383629372 43.238417872184584 42.95275590551181 42.60117194652994 42.49130195934811 42.0298480131844 41.67826405420253 41.43655008240249 41.17286211316609 40.97509613623878 40.71140816700238 40.49166819263871 40.315876213147774 40.096136238784105 39.876396264420436 39.7006042849295 39.4369163156931 39.28309833363853 39.04138436183849 38.86559238234756 38.71177440029299 38.44808643105658 38.07452847463834 37.85478850027467 37.52517853872917 37.261490569492764 36.953854605383626 36.646218641274494 36.51437465665629 36.16279069767442 35.921076725874386 35.76725874381981 35.56949276689251 35.43764878227431 35.26185680278337 35.0421168284197 34.9102728438015 34.80040285661967 34.6465848745651 34.51474088994689 34.29500091558323 34.03131294634682 33.723676982237684 33.39406702069218 33.174327046328514 32.95458707196484 32.581029115546606 32.22944515656473 31.89983519501923 31.68009522065556 31.41640725141915 31.108771287310017 30.954953305255447 30.845083318073613 30.757187328328143 30.625343343709943 30.51547335652811 30.44955136421901 30.36165537447354 30.273759384728073 30.22981138985534 30.20783739241897 30.163889397546235 30.14191540010987 30.119941402673504 30.097967405237135 30.010071415491666 29.944149423182566 29.8562534334371 29.76835744369163 29.70243545138253 29.54861746932796 29.394799487273392 29.262955502655192 29.131111518036988 28.97729353598242 28.889397546236953 28.77952755905512 28.71360556674602 28.64768357443692 28.581761582127815 28.53781358725508 28.515839589818714 28.49386559238235 28.49386559238235 28.49386559238235 28.49386559238235 28.47189159494598 28.449917597509614 28.427943600073245 28.40596960263688 28.362021607764145 28.34004761032778 28.296099615455045 28.296099615455045 28.230177623145945 28.18622962827321 28.12030763596411 28.076359641091376 28.03241164621864 28.010437648782275 27.988463651345906 27.96648965390954 27.96648965390954 27.96648965390954 27.96648965390954 27.96648965390954 27.944515656473172 27.944515656473172 27.944515656473172 27.922541659036806 27.922541659036806 27.90056766160044 27.87859366416407 27.87859366416407 27.87859366416407 27.856619666727706 27.856619666727706 27.834645669291337 27.834645669291337 27.81267167185497 27.790697674418606 27.768723676982237 27.74674967954587 27.702801684673137 27.68082768723677 27.658853689800402 27.636879692364037 27.592931697491302 27.570957700054933 27.505035707745833 27.505035707745833 27.461087712873102 27.417139718000367 27.395165720564 27.351217725691264 27.285295733382164 27.241347738509432 27.219373741073063 27.197399743636698 27.197399743636698 27.17542574620033 27.17542574620033 27.17542574620033 27.17542574620033 27.17542574620033 27.17542574620033 27.197399743636698 27.197399743636698 27.197399743636698 27.197399743636698 27.197399743636698 27.197399743636698 27.197399743636698 27.197399743636698 27.17542574620033 27.17542574620033 27.131477751327594 27.131477751327594 27.10950375389123 27.10950375389123 27.10950375389123 27.087529756454863 27.087529756454863 27.087529756454863 27.087529756454863 27.065555759018494 27.065555759018494 27.065555759018494 27.065555759018494 27.065555759018494 27.065555759018494 27.087529756454863 27.065555759018494 27.065555759018494 27.065555759018494 27.04358176158213 27.02160776414576 26.999633766709394 26.97765976927303 26.97765976927303 26.911737776963925 26.88976377952756 26.867789782091194 26.845815784654825 26.80186778978209 26.779893792345725 26.757919794909355 26.713971800036624 26.691997802600255 26.67002380516389 26.67002380516389 26.67002380516389 26.648049807727524 26.67002380516389 26.67002380516389 26.67002380516389 26.67002380516389 26.67002380516389 26.67002380516389 26.67002380516389 26.648049807727524 26.626075810291155 26.626075810291155 26.58212781541842 26.560153817982055 26.538179820545686 26.538179820545686 26.51620582310932 26.472257828236586 26.472257828236586 26.45028383080022 26.42830983336385 26.406335835927486 26.406335835927486 26.36238784105475 26.36238784105475 26.340413843618386 26.340413843618386 26.340413843618386 26.318439846182017 26.318439846182017 26.318439846182017 26.29646584874565 26.29646584874565 26.29646584874565 26.274491851309286 26.29646584874565 26.29646584874565 26.29646584874565 26.29646584874565 26.29646584874565 26.29646584874565 26.29646584874565 26.29646584874565 26.29646584874565 26.29646584874565 26.29646584874565 26.274491851309286 26.274491851309286 26.252517853872916 26.23054385643655 26.208569859000182 26.208569859000182 26.186595861563816 26.164621864127447 26.164621864127447 26.164621864127447 26.164621864127447 26.164621864127447 26.164621864127447 26.164621864127447 26.14264786669108 26.14264786669108 26.14264786669108 26.120673869254716 26.120673869254716 26.120673869254716 26.120673869254716 26.120673869254716 26.120673869254716 26.098699871818347 26.098699871818347 26.098699871818347 26.120673869254716 26.120673869254716 26.14264786669108 26.14264786669108 26.164621864127447 26.186595861563816 26.208569859000182 26.252517853872916 26.274491851309286 26.318439846182017 26.38436183849112 26.42830983336385 26.494231825672955 26.538179820545686 26.60410181285479 26.648049807727524 26.691997802600255 26.73594579747299 26.757919794909355 26.779893792345725 26.82384178721846 26.867789782091194 26.95568577183666 27.065555759018494 27.17542574620033 27.395165720564 27.527009705182202 27.68082768723677 28.05438564365501 28.16425563083684 28.515839589818714 28.97729353598242 29.219007507782457 29.48269547701886 29.790331441127996 30.054019410364404 30.44955136421901 30.669291338582678 30.954953305255447 31.328511261673686 31.52627723860099 31.921809192455594 32.20747115912837 32.646951107855706 33.108405054019414 33.459989013001284 33.98736495147409 34.51474088994689 34.95422083867423 35.56949276689251 36.00897271561985 36.646218641274494 37.5691265336019 38.05255447720198 39.04138436183849 39.41494231825673 40.096136238784105 40.645486174693275 41.26075810291155 42.40340596960264 43.52407983885735 43.80974180553012 44.6227797106757 45.43581761582128 46.22688152353049 46.688335469694195 47.17176341329427 47.85295733382164 48.49020325947629 48.95165720563999 49.56692913385827 50.40194103644021 50.86339498260392 51.32484892876762 51.78630287493133 52.46749679545871 53.14869071598608 53.895806628822555 54.62094854422267 55.28016846731368 55.78557040835012 56.312946346822926 56.77440029298663 57.80717817249588 58.55429408533236 59.0596960263688 59.82878593664164 60.597875846914484 61.14722578282366 62.13605566746017 62.72935359824208 63.278703534151255 63.87200146493316 64.39937740340596 65.14649331624244 65.65189525727888 66.68467313678813 67.32191906244277 67.58560703167919 68.24482695477019 68.8381248855521 69.32155282915217 70.09064273942502 70.48617469327962 71.0355246291888 71.58487456509798 71.7606665445889 72.44186046511629 72.85936641640725 73.14502838308002 73.58450833180737 73.91411829335286 74.37557223951657 74.88097418055301 75.27650613440761 75.78190807544406 76.33125801135323 76.72678996520784 77.32008789598976 77.73759384728072 78.4847097601172 79.03405969602638 79.25379967039004 79.78117560886285 80.35249954220839 80.92382347555393 81.51712140633583 81.95660135506317 82.50595129097235 83.12122321919063 83.51675517304523 84.11005310382714 84.70335103460906 85.12085698590002 85.6702069218092 86.04376487822742 86.61508881157297 87.14246475004578 87.51602270646401 88.04339864493683 88.54880058597325 88.87841054751877 89.51565647317341 89.77934444240981 90.06500640908259 90.52646035524629 90.76817432704634 90.96594030397362 91.22962827321004 91.47134224501008 91.69108221937374 91.82292620399194 91.95477018861015 92.10858817066472 92.19648416041018 92.30635414759202 92.35030214246476 92.37227613990112 92.37227613990112 92.37227613990112 92.37227613990112 92.35030214246476 92.28438015015564 92.13056216810108 91.95477018861015 91.69108221937374 91.22962827321004 90.96594030397362 90.61435634499176 90.19685039370079 89.88921442959166 89.60355246291888 89.27394250137338 88.57077458340964 87.97747665262773 87.49404870902765 86.94469877311849 86.32942684490021 85.8679728987365 85.3405969602637 84.74729902948178 84.08807910639078 83.18714521149973 82.85753524995422 82.28621131660869 81.42922541659037 80.92382347555393 80.44039553195387 80.04486357809925 79.51748763962644 78.85826771653544 78.2210217908808 77.56180186778978 76.9465299395715 76.28731001648049 75.6940120856986 75.54019410364401 74.92492217542575 74.35359824208021 73.84819630104377 73.32082036257097 72.66160043947995 72.20014649331624 71.56290056766161 71.0355246291888 70.44222669840688 69.8269547701886 69.34352682658854 68.75022889580663 67.91521699322467 67.43178904962461 66.9044131111518 66.59677714704267 66.1133492034426 65.30031129829702 64.92675334187878 64.28950741622413 63.89397546236953 63.388573521333086 62.839223585423916 62.57553561618751 62.0481596777147 61.586705731551 61.08130379051456 60.795641823841784 60.46603186229628 60.026551913568944 59.587071964841606 59.2574620032961 58.79600805713239 58.35652810840505 58.02691814685955 57.54349020325947 57.21388024171397 56.664530305804796 56.049258377586526 55.82951840322285 55.39003845449551 54.90661051089544 54.37923457242263 53.895806628822555 53.456326680095216 53.01684673136788 52.55539278520418 52.22578282365867 51.78630287493133 51.28090093389489 50.86339498260392 50.445889031312944 50.116279069767444 49.654825123603736 49.237319172312766 48.90770921076726 48.42428126716719 47.96282732100348 47.65519135689434 46.995971433803334 46.66636147225783 46.16095953122139 45.69950558505768 45.34792162607581 44.99633766709394 44.46896172862113 43.941585790148324 43.436183849111885 43.106573887566384 42.64511994140267 42.18366599523897 41.85405603369347 41.43655008240249 41.019044131111514 40.71140816700238 40.162058231093205 39.8324482695477 39.370994323384 38.99743636696576 38.71177440029299 38.44808643105658 38.18439846182018 37.94268449002014 37.59110053103827 37.34938655923823 37.063724592565464 36.778062625892694 36.58029664896539 36.426478666910825 36.250686687419886 35.921076725874386 35.70133675151071 35.54751876945615 35.32777879509247 35.06409082585607 34.86632484892877 34.58066288225599 34.38289690532869 34.009338948910454 33.81157297198315 33.591832997619484 33.32814502838308 32.97656106940121 32.778795092473906 32.62497711041934 32.42721113349204 32.185497161692 31.96575718732833 31.78996520783739 31.43838124885552 31.28456326680095 31.130745284746382 30.954953305255447 30.779161325764512 30.405603369346274 30.14191540010987 29.9221754257462 29.61453946163706 29.328877494964292 29.153085515473357 28.889397546236953 28.735579564182384 28.449917597509614 28.34004761032778 28.230177623145945 28.076359641091376 27.96648965390954 27.81267167185497 27.702801684673137 27.614905694927668 27.395165720564 27.263321735945798 27.153451748763963 27.02160776414576 26.911737776963925 26.845815784654825 26.80186778978209 26.779893792345725 26.779893792345725 26.757919794909355 26.779893792345725 26.779893792345725 26.82384178721846 26.82384178721846 26.845815784654825 26.80186778978209 26.80186778978209 26.779893792345725 26.779893792345725 26.73594579747299 26.73594579747299 26.713971800036624 26.713971800036624 26.713971800036624 26.713971800036624 26.691997802600255 26.691997802600255 26.691997802600255 26.67002380516389 26.648049807727524 26.626075810291155 26.60410181285479 26.560153817982055 26.51620582310932 26.494231825672955 26.472257828236586 26.472257828236586 26.472257828236586 26.472257828236586 26.494231825672955 26.51620582310932 26.538179820545686 26.560153817982055 26.560153817982055 26.560153817982055 26.538179820545686 26.51620582310932 26.494231825672955 26.472257828236586 26.42830983336385 26.406335835927486 26.406335835927486 26.406335835927486 26.42830983336385 26.45028383080022 26.472257828236586 26.472257828236586 26.494231825672955 26.494231825672955 26.51620582310932 26.51620582310932 26.494231825672955 26.494231825672955 26.472257828236586 26.494231825672955 26.494231825672955 26.472257828236586 26.45028383080022 26.472257828236586 26.45028383080022 26.472257828236586 26.472257828236586 26.45028383080022 26.472257828236586 26.45028383080022 26.45028383080022 26.45028383080022 26.42830983336385 26.42830983336385 26.42830983336385 26.42830983336385 26.42830983336385 26.42830983336385 26.42830983336385 26.42830983336385 26.406335835927486 26.406335835927486 26.38436183849112 26.38436183849112 26.38436183849112 26.36238784105475 26.36238784105475 26.340413843618386 26.340413843618386 26.318439846182017 26.318439846182017 26.318439846182017 26.318439846182017 26.318439846182017 26.318439846182017 26.318439846182017 26.318439846182017 26.318439846182017 26.318439846182017 26.318439846182017 26.340413843618386 26.340413843618386 26.340413843618386 26.340413843618386 26.340413843618386 26.340413843618386 26.340413843618386 26.340413843618386 26.340413843618386 26.340413843618386 26.340413843618386 26.340413843618386 26.340413843618386 26.340413843618386 26.340413843618386 26.340413843618386 26.340413843618386 26.318439846182017 26.340413843618386 26.318439846182017 26.340413843618386 26.340413843618386 26.36238784105475 26.340413843618386 26.340413843618386 26.36238784105475 26.340413843618386 26.36238784105475 26.340413843618386 26.340413843618386 26.340413843618386 26.340413843618386 26.340413843618386 26.36238784105475 26.36238784105475 26.36238784105475 26.38436183849112 26.38436183849112 26.38436183849112 26.36238784105475 26.38436183849112 26.36238784105475 26.36238784105475 26.36238784105475 26.38436183849112 26.38436183849112 26.38436183849112 26.38436183849112 26.36238784105475 26.36238784105475 26.36238784105475 26.36238784105475 26.36238784105475 26.340413843618386 26.340413843618386 26.340413843618386 26.36238784105475 26.36238784105475 26.340413843618386 26.36238784105475 26.340413843618386 26.36238784105475 26.38436183849112 26.406335835927486 26.42830983336385 26.472257828236586 26.51620582310932 26.560153817982055 26.58212781541842 26.60410181285479 26.60410181285479 26.60410181285479 26.60410181285479 26.60410181285479 26.626075810291155 26.648049807727524 26.691997802600255 26.757919794909355 26.845815784654825 26.933711774400294 26.999633766709394 27.065555759018494 27.219373741073063 27.285295733382164 27.548983702618568 27.724775682109502 28.03241164621864 28.40596960263688 28.669657571873284 29.065189525727888 29.438747482146127 29.944149423182566 30.251785387291704 30.58139534883721 31.064823292437282 31.52627723860099 31.87786119758286 32.36128914118294 32.69089910272844 33.196301043764876 33.92144295916499 34.38289690532869 34.80040285661967 35.52554477201978 35.986998718183486 36.44845266434719 36.953854605383626 37.89873649514741 38.55795641823842 38.99743636696576 39.7006042849295 40.249954220838674 40.645486174693275 41.19483611060245 41.63431605932979 42.0957700054935 42.60117194652994 43.040651895257284 43.74381981322102 44.139351767075624 44.57883171580296 45.19410364402124 45.65555759018495 46.292803515839594 47.23768540560337 47.85295733382164 48.53415125434902 49.25929316974913 49.786669108221936 50.379967039003844 50.86339498260392 51.9401208569859 52.70921076725874 53.302508698040654 54.04962461087713 54.92858450833181 55.56583043398645 56.466764328877495 57.257828236586704 57.98297015198681 58.8619300494415 59.47720197765977 60.663797839223584 61.5207837392419 62.22395165720564 62.773301593114816 63.322651529023986 63.87200146493316 64.81688335469694 65.36623329060612 65.9815052188244 66.66269913935176 67.08020509064274 67.73942501373375 68.15693096502471 68.86009888298847 69.4973448086431 70.02472074711591 70.55209668558872 71.0355246291888 71.95843252151622 72.61765244460722 72.9692364035891 73.51858633949826 74.13385826771653 74.79307819080753 75.21058414209853 75.78190807544406 76.3532320087896 76.90258194469877 77.23219190624428 77.69364585240798 78.2869437831899 78.6824757370445 79.42959164988098 79.82512360373559 80.39644753708112 80.9457974729903 81.2754074345358 81.91265336019043 82.50595129097235 83.03332722944516 83.4728071781725 83.8683391320271 84.3957150704999 84.90111701153634 85.29664896539094 85.78007690899102 86.2635048525911 86.61508881157297 87.09851675517305 87.45010071415491 88.06537264237319 88.52682658853689 88.83446255264604 89.12012451931881 89.64750045779161 89.93316242446438 90.28474638344626 90.50448635780992 90.76817432704634 90.96594030397362 91.0538362937191 91.1197582860282 91.14173228346456 91.14173228346456 91.14173228346456 91.1197582860282 90.9219923091009 90.61435634499176 90.39461637062809 90.02105841420986 89.75737044497345 89.33986449368247 88.76854056033693 88.43893059879144 88.13129463468229 87.47207471159129 87.16443874748215 86.83482878593665 86.50521882439114 85.82402490386376 85.27467496795458 84.87914301409998 84.3297930781908 83.75846914484526 83.36293719099066 82.54989928584509 82.13239333455411 81.67093938839041 81.12158945248123 80.70408350119027 79.86907159860831 79.42959164988098 79.07800769089911 78.4187877678081 77.9573338216444 77.29811389855337 76.41915400109869 75.97967405237137 75.32045412928035 74.70518220106207 74.28767624977111 73.84819630104377 73.45266434718917 72.55173045229812 71.84856253433438 71.32118659586156 70.53012268815235 69.8269547701886 69.07983885735213 68.72825489837027 68.04706097784288 67.29994506500641 66.59677714704267 66.13532320087896 65.45412928035158 64.5751693828969 64.15766343160593 63.74015748031496 63.366599523896724 62.773301593114816 62.11408167002381 61.49880974180553 60.86156381615089 60.246291887932614 59.82878593664164 58.77403405969603 58.68613806995056 58.18073612891412 57.56546420069584 57.169932246841235 56.598608313495696 56.22505035707746 55.63175242629555 54.86266251602271 54.5330525544772 54.137520600622594 53.61014466214979 53.258560703167916 52.731184764695115 52.2697308185314 51.83025086980406 51.36879692364036 51.03918696209485 50.73155099798572 50.314045046694744 50.006409082585606 49.369163156930966 49.06152719282183 48.60007324665812 48.09467130562168 47.76506134407617 47.259659403039734 46.776231459439664 46.44662149789416 45.96319355429409 45.63358359274858 45.15015564914851 44.6887017029848 44.38106573887566 43.941585790148324 43.52407983885735 43.260391869620946 42.864859915766345 42.62314594396631 42.27156198498443 41.85405603369347 41.63431605932979 41.43655008240249 41.06299212598425 40.86522614905695 40.55759018494781 40.35982420802051 40.096136238784105 39.810474272111335 39.6346822926204 39.34902032594763 39.08533235671123 38.88756637978392 38.66782640542025 38.51400842336568 38.33821644387475 38.18439846182018 38.07452847463834 37.92071049258378 37.72294451565647 37.61307452847464 37.3713605566746 37.21754257462003 36.997802600256364 36.865958615638164 36.646218641274494 36.492400659219925 36.250686687419886 35.986998718183486 35.72331074894708 35.54751876945615 35.28383080021974 35.0421168284197 34.9102728438015 34.7125068668742 34.58066288225599 34.38289690532869 34.16315693096502 34.09723493865592 33.855520966855885 33.657754989928584 33.525911005310384 33.350119025819446 33.196301043764876 32.97656106940121 32.69089910272844 32.55905511811024 32.40523713605567 32.2514191540011 32.14154916681926 32.0536531770738 31.96575718732833 31.81193920527376 31.65812122321919 31.52627723860099 31.41640725141915 31.24061527192822 31.108771287310017 30.954953305255447 30.889031312946347 30.735213330891778 30.625343343709943 30.51547335652811 30.383629371909905 30.22981138985534 30.14191540010987 30.010071415491666 29.944149423182566 29.76835744369163 29.70243545138253 29.61453946163706 29.504669474455227 29.41677348470976 29.328877494964292 29.306903497527927 29.284929500091557 29.219007507782457 29.19703351034609 29.175059512909723 29.175059512909723 29.19703351034609 29.19703351034609 29.219007507782457 29.219007507782457 29.219007507782457 29.219007507782457 29.219007507782457 29.19703351034609 29.19703351034609 29.153085515473357 29.109137520600623 29.109137520600623 29.087163523164257 29.087163523164257 29.087163523164257 29.109137520600623 29.109137520600623 29.131111518036988 29.153085515473357 29.175059512909723 29.175059512909723 29.175059512909723 29.175059512909723 29.175059512909723 29.175059512909723 29.175059512909723 29.175059512909723 29.175059512909723 29.175059512909723 29.175059512909723 29.175059512909723 29.175059512909723 29.175059512909723 29.175059512909723 29.175059512909723 29.175059512909723 29.175059512909723 29.19703351034609 29.19703351034609 29.19703351034609 29.175059512909723 29.175059512909723 29.175059512909723 29.175059512909723 29.19703351034609 29.175059512909723 29.175059512909723 29.175059512909723 29.175059512909723 29.175059512909723 29.153085515473357 29.153085515473357 29.131111518036988 29.131111518036988 29.131111518036988 29.109137520600623 29.131111518036988 29.109137520600623 29.131111518036988 29.109137520600623 29.109137520600623 29.087163523164257 29.065189525727888 29.043215528291523 29.021241530855153 28.999267533418788 28.955319538546053 28.933345541109688 28.933345541109688 28.933345541109688 28.933345541109688 28.933345541109688 28.933345541109688 28.933345541109688 28.955319538546053 28.955319538546053 28.955319538546053 28.97729353598242 28.955319538546053 28.955319538546053 28.955319538546053 28.955319538546053 28.955319538546053 28.955319538546053 28.955319538546053 28.955319538546053 28.955319538546053 28.955319538546053 28.955319538546053 28.933345541109688 28.933345541109688 28.933345541109688 28.91137154367332 28.91137154367332 28.91137154367332 28.91137154367332 28.91137154367332 28.91137154367332 28.889397546236953 28.84544955136422 28.823475553927853 28.801501556491484 28.77952755905512 28.735579564182384 28.71360556674602 28.669657571873284 28.62570957700055 28.603735579564184 28.581761582127815 28.53781358725508 28.515839589818714 28.47189159494598 28.47189159494598 28.47189159494598 28.449917597509614 28.427943600073245 28.40596960263688 28.362021607764145 28.296099615455045 28.230177623145945 28.18622962827321 28.09833363852774 28.05438564365501 28.010437648782275 27.922541659036806 27.90056766160044 27.81267167185497 27.724775682109502 27.68082768723677 27.614905694927668 27.548983702618568 27.505035707745833 27.439113715436733 27.439113715436733 27.417139718000367 27.439113715436733 27.439113715436733 27.439113715436733 27.461087712873102 27.461087712873102 27.461087712873102 27.483061710309467 27.461087712873102 27.483061710309467 27.483061710309467 27.461087712873102 27.461087712873102 27.461087712873102 27.461087712873102 27.461087712873102 27.461087712873102 27.461087712873102 27.461087712873102 27.461087712873102 27.439113715436733 27.439113715436733 27.439113715436733 27.439113715436733 27.439113715436733 27.439113715436733 27.461087712873102 27.483061710309467 27.483061710309467 27.483061710309467 27.483061710309467 27.483061710309467 27.505035707745833 27.505035707745833 27.527009705182202 27.527009705182202 27.527009705182202 27.548983702618568 27.548983702618568 27.548983702618568 27.570957700054933 27.592931697491302 27.592931697491302 27.592931697491302 27.614905694927668 27.592931697491302 27.614905694927668 27.614905694927668 27.614905694927668 27.614905694927668 27.614905694927668 27.614905694927668 27.614905694927668 27.592931697491302 27.614905694927668 27.592931697491302 27.614905694927668 27.614905694927668 27.592931697491302 27.592931697491302 27.592931697491302 27.614905694927668 27.636879692364037 27.658853689800402 27.658853689800402 27.658853689800402 27.68082768723677 27.658853689800402 27.658853689800402 27.68082768723677 27.68082768723677 27.68082768723677 27.68082768723677 27.702801684673137 27.702801684673137 27.702801684673137 27.702801684673137 27.702801684673137 27.702801684673137 27.702801684673137 27.702801684673137 27.724775682109502 27.724775682109502 27.768723676982237 27.768723676982237 27.856619666727706 27.944515656473172 28.03241164621864 28.16425563083684 28.27412561801868 28.53781358725508 28.889397546236953 29.131111518036988 29.48269547701886 29.878227430873466 30.185863394982604 30.537447353964474 30.998901300128182 31.52627723860099 32.09760117194653 32.5151071232375 33.130379051455776 33.701702984801315 34.141182933528654 34.80040285661967 35.37172678996521 35.76725874381981 36.602270646401756 37.019776597692726 37.67899652078374 38.33821644387475 38.79967039003846 39.4369163156931 39.656656290056766 40.579564182384175 41.26075810291155 41.72221204907526 42.40340596960264 42.90880791063908 43.61197582860282 44.38106573887566 44.84251968503937 45.58963559787585 46.358725508148694 46.886101446621495 48.00677531587621 48.53415125434902 49.369163156930966 50.182201062076544 50.84142098516755 51.41274491851309 52.357626808276876 52.906976744186046 53.698040651895255 54.29133858267717 55.03845449551364 55.80754440578649 56.13715436733199 57.14795824940487 57.91704815967771 58.44442409815052 59.21351400842337 59.718915949459806 60.729719831532684 61.47683574436916 61.93828969053287 62.46566562900568 63.16883354696942 63.652261490569494 64.641091375206 65.1684673136788 65.89360922907892 66.72862113166087 67.25599707013367 67.82732100347921 68.46456692913387 69.2336568394067 69.98077275224318 70.46420069584326 71.1014466214979 71.69474455227981 72.13422450100714 72.66160043947995 73.2329243728255 73.58450833180737 74.08991027284381 74.46346822926205 74.94689617286213 75.65006409082585 76.00164804980773 76.5509979857169 76.92455594213514 77.32008789598976 77.93535982420804 78.57260574986266 79.18787767808094 79.82512360373559 80.30855154733565 80.9457974729903 81.40725141915401 82.02252334737227 82.68174327046329 83.31898919611793 83.71452114997254 84.28584508331807 84.68137703717268 85.2087529756455 85.56033693462736 86.06573887566381 86.5271928218275 86.83482878593665 87.25233473722761 87.69181468595497 87.93352865775499 88.30708661417323 88.54880058597325 88.8564365500824 89.20802050906427 89.33986449368247 89.42776048342795 89.49368247573705 89.49368247573705 89.49368247573705 89.49368247573705 89.47170847830067 89.44973448086431 89.38381248855521 89.16407251419155 89.03222852957333 88.87841054751877 88.61472257828237 88.43893059879144 88.15326863211865 87.84563266800953 87.58194469877311 87.14246475004578 86.87877678080937 86.61508881157297 86.21955685771837 85.9338948910456 85.51638893975462 84.94506500640908 84.63742904229994 84.02215711408166 83.69254715253618 83.36293719099066 82.96740523713606 82.61582127815419 82.04449734480863 81.51712140633583 81.16553744735396 80.63816150888115 80.11078557040835 79.58340963193555 79.20985167551731 78.83629371909907 78.2869437831899 77.67167185497162 77.21021790880792 76.39718000366233 75.957700054935 75.27650613440761 74.57333821644387 74.30965024720747 73.65043032411646 72.74949642922542 72.31001648049809 71.67277055484342 71.25526460355246 70.59604468046146 69.91485075993407 69.38747482146127 68.66233290606115 67.58560703167919 67.36586705731551 66.55282915216993 66.00347921626076 65.23438930598792 64.3774034059696 64.09174143929684 63.498443508514924 62.86119758286028 62.42171763413294 61.80644570591467 61.14722578282366 60.46603186229628 59.784837941768906 59.47720197765977 58.83995605200513 58.18073612891412 57.49954220838674 56.8622962827321 56.444790331441126 55.85149240065922 55.28016846731368 55.06042849295001 54.335286577549894 53.80791063907709 53.456326680095216 52.906976744186046 52.51144479033144 51.8741988646768 51.30287493133126 50.709577000549345 50.072331074894706 49.654825123603736 49.2153451748764 48.62204724409449 48.20454129280351 47.457425379967034 46.886101446621495 46.490569492766895 46.117011536348656 45.41384361838491 45.06225965940304 44.5568577183666 44.22724775682109 43.721845815784654 43.260391869620946 42.95275590551181 42.51327595678447 42.2276139901117 41.83208203625709 41.45852407983885 41.17286211316609 40.79930415674785 40.403772202893244 40.162058231093205 39.810474272111335 39.5687603003113 39.173228346456696 38.71177440029299 38.47006042849295 38.22834645669291 37.7668925105292 37.52517853872917 37.28346456692913 36.909906610510895 36.558322651529025 36.20673869254715 35.94305072331075 35.39370078740157 35.15198681560154 34.86632484892877 34.47079289507416 34.18513092840139 33.81157297198315 33.438015015564915 33.218275041201245 32.84471708478301 32.55905511811024 32.47115912836477 32.20747115912837 32.0536531770738 31.833913202710125 31.52627723860099 31.328511261673686 31.15271928218275 30.954953305255447 30.823109320637247 30.691265336019043 30.44955136421901 30.339681377037174 30.185863394982604 30.032045412928035 29.8562534334371 29.61453946163706 29.504669474455227 29.372825489837027 29.284929500091557 29.153085515473357 28.97729353598242 28.84544955136422 28.55978758469145 28.25215162058231 28.076359641091376 27.87859366416407 27.68082768723677 27.483061710309467 27.219373741073063 26.911737776963925 26.779893792345725 26.67002380516389 26.58212781541842 26.560153817982055 26.58212781541842 26.626075810291155 26.713971800036624 26.757919794909355 26.80186778978209 26.867789782091194 26.933711774400294 27.02160776414576 27.04358176158213 27.065555759018494 27.065555759018494 27.065555759018494 27.065555759018494 27.02160776414576 26.999633766709394 26.97765976927303 26.95568577183666 26.95568577183666 26.911737776963925 26.911737776963925 26.88976377952756 26.867789782091194 26.82384178721846 26.80186778978209 26.757919794909355 26.713971800036624 26.691997802600255 26.67002380516389 26.67002380516389 26.691997802600255 26.691997802600255 26.713971800036624 26.691997802600255 26.691997802600255 26.691997802600255 26.691997802600255 26.67002380516389 26.67002380516389 26.648049807727524 26.626075810291155 26.60410181285479 26.60410181285479 26.60410181285479 26.60410181285479 26.626075810291155 26.626075810291155 26.648049807727524 26.648049807727524 26.648049807727524 26.648049807727524 26.648049807727524 26.648049807727524 26.626075810291155 26.60410181285479 26.58212781541842 26.560153817982055 26.560153817982055 26.538179820545686 26.538179820545686 26.538179820545686 26.538179820545686 26.560153817982055 26.560153817982055 26.560153817982055 26.560153817982055 26.560153817982055 26.560153817982055 26.58212781541842 26.58212781541842 26.58212781541842 26.560153817982055 26.538179820545686 26.538179820545686 26.538179820545686 26.538179820545686 26.538179820545686 26.538179820545686 26.538179820545686 26.560153817982055 26.560153817982055 26.58212781541842 26.560153817982055 26.58212781541842 26.58212781541842 26.560153817982055 26.538179820545686 26.538179820545686 26.51620582310932 26.51620582310932 26.51620582310932 26.51620582310932 26.51620582310932 26.51620582310932 26.51620582310932 26.51620582310932 26.51620582310932 26.51620582310932 26.51620582310932 26.51620582310932 26.51620582310932 26.51620582310932 26.51620582310932 26.51620582310932 26.494231825672955 26.494231825672955 26.494231825672955 26.494231825672955 26.494231825672955 26.494231825672955 26.494231825672955 26.494231825672955 26.494231825672955 26.494231825672955 26.494231825672955 26.51620582310932 26.51620582310932 26.51620582310932 26.538179820545686 26.538179820545686 26.51620582310932 26.538179820545686 26.538179820545686 26.538179820545686 26.538179820545686 26.538179820545686 26.538179820545686 26.538179820545686 26.538179820545686 26.51620582310932 26.51620582310932 26.51620582310932 26.51620582310932 26.51620582310932 26.51620582310932 26.51620582310932 26.51620582310932 26.51620582310932 26.51620582310932 26.51620582310932 26.494231825672955 26.494231825672955 26.494231825672955 26.494231825672955 26.494231825672955 26.472257828236586 26.45028383080022 26.45028383080022 26.45028383080022 26.45028383080022 26.45028383080022 26.45028383080022 26.45028383080022 26.45028383080022 26.42830983336385 26.42830983336385 26.406335835927486 26.38436183849112 26.36238784105475 26.36238784105475 26.340413843618386 26.340413843618386 26.318439846182017 26.29646584874565 26.29646584874565 26.274491851309286 26.274491851309286 26.274491851309286 26.274491851309286 26.274491851309286 26.274491851309286 26.274491851309286 26.274491851309286 26.29646584874565 26.29646584874565 26.29646584874565 26.29646584874565 26.318439846182017 26.318439846182017 26.318439846182017 26.318439846182017 26.340413843618386 26.340413843618386 26.36238784105475 26.36238784105475 26.38436183849112 26.42830983336385 26.472257828236586 26.494231825672955 26.538179820545686 26.58212781541842 26.648049807727524 26.691997802600255 26.73594579747299 26.779893792345725 26.80186778978209 26.80186778978209 26.82384178721846 26.82384178721846 26.845815784654825 26.867789782091194 26.933711774400294 26.97765976927303 27.02160776414576 27.065555759018494 27.153451748763963 27.307269730818533 27.439113715436733 27.527009705182202 27.702801684673137 27.988463651345906 28.142281633400476 28.31807361289141 28.49386559238235 28.77952755905512 29.065189525727888 29.328877494964292 29.592565464200696 29.944149423182566 30.339681377037174 30.669291338582678 30.932979307819082 31.394433253982786 31.89983519501923 32.185497161692 32.91063907709211 33.503937007874015 33.98736495147409 34.42684490020143 34.93224684123787 35.52554477201978 36.16279069767442 36.668192638710856 37.261490569492764 37.96465848745651 38.47006042849295 39.19520234389306 39.7006042849295 40.447720197765975 41.17286211316609 41.76616004394799 42.35945797472991 42.842885918329976 43.568027833730085 44.51290972349386 44.79857169016664 45.54568760300312 46.842153451748764 47.083867423548796 47.96282732100348 48.55612525178539 49.369163156930966 50.182201062076544 51.03918696209485 51.58853689800403 52.48947079289508 53.060794726240616 53.763962644204355 54.269364585240794 55.03845449551364 55.78557040835012 56.29097234938656 56.972166269913934 57.65336019044131 58.22468412378685 59.0596960263688 59.521149972532506 60.180369895623514 60.729719831532684 61.14722578282366 61.80644570591467 62.72935359824208 63.23475553927852 64.20161142647866 64.75096136238784 65.27833730086064 65.89360922907892 66.26716718549716 67.12415308551547 67.78337300860647 68.24482695477019 68.92602087529757 69.431422816334 70.35433070866142 70.99157663431606 71.27723860098882 71.8925105292071 72.55173045229812 73.12305438564366 73.84819630104377 74.30965024720747 74.88097418055301 75.45229811389855 75.89177806262589 76.28731001648049 76.85863394982604 77.49587987548068 78.0891778062626 78.50668375755356 79.1439296832082 79.71525361655375 80.15473356528108 80.77000549349935 81.18751144479035 81.75883537813587 82.37410730635415 82.76963926020875 83.31898919611793 84.04413111151804 84.43966306537266 84.72532503204542 85.05493499359092 85.51638893975462 85.95586888848196 86.43929683208204 86.90075077824574 87.31825672953671 87.64786669108221 87.93352865775499 88.39498260391869 88.87841054751877 89.31789049624611 89.62552646035525 90.02105841420986 90.35066837575536 90.68027833730086 90.83409631935542 90.94396630653726 91.00988829884636 91.00988829884636 91.00988829884636 91.00988829884636 90.96594030397362 90.7901483244827 90.57040835011902 90.37264237319172 89.99908441677348 89.47170847830067 89.29591649880975 88.87841054751877 88.28511261673685 87.82365867057317 87.45010071415491 87.18641274491851 86.7908807910639 86.35140084233657 86.02179088079106 85.38454495513642 85.01098699871818 84.68137703717268 84.17597509613624 83.802417139718 83.29701519868156 82.74766526277239 82.35213330891779 81.60501739608131 81.18751144479035 80.74803149606299 79.89104559604468 79.47353964475371 79.01208569859 78.17707379600806 77.75956784471708 77.18824391137156 76.77073796008057 76.17744002929867 75.60611609595313 75.16663614722579 74.63926020875297 74.06793627540745 73.67240432155283 73.07910639077092 72.68357443691632 71.91448452664348 71.51895257278886 71.1014466214979 70.48617469327962 69.84892876762498 69.40944881889763 68.55246291887933 68.09100897271563 67.45376304706097 66.99230910089727 66.61875114447903 66.1133492034426 65.41018128547884 65.05859732649698 64.55319538546054 64.20161142647866 63.67423548800586 63.146859549533055 62.61948361106025 62.26789965207837 61.76249771104193 61.41091375206006 60.90551181102362 60.597875846914484 60.004577916132575 59.63101995971434 59.433253982787036 59.10364402124153 58.70811206738693 58.42245010071415 57.93902215711408 57.69730818531404 57.34572422633217 56.840322285295734 56.70847830067753 56.444790331441126 56.07123237502289 55.65372642373192 55.23622047244095 54.95055850576817 54.55502655191357 54.137520600622594 53.87383263138619 53.434352682658854 53.01684673136788 52.55539278520418 52.2697308185314 51.96209485442226 51.52261490569492 51.06116095953122 50.599707013367514 50.336019044131106 50.072331074894706 49.63285112616737 49.237319172312766 48.90770921076726 48.42428126716719 47.98480131843985 47.65519135689434 47.36952939022157 46.93004944149423 46.534517487639626 46.182933528657756 45.96319355429409 45.56766160043948 45.39186962094854 45.23805163889398 45.0183116645303 44.86449368247574 44.64475370811206 44.53488372093023 44.4250137337484 44.271195751693824 44.11737776963926 43.897637795275585 43.80974180553012 43.655923823475554 43.414209851675515 43.040651895257284 42.82091192089361 42.57919794909357 42.13971800036623 41.87603003112983 41.61234206189343 41.21681010803882 40.82127815418421 40.27192821827504 40.140084233656836 39.656656290056766 39.21717634132943 38.88756637978392 38.42611243362022 38.07452847463834 37.59110053103827 37.063724592565464 36.668192638710856 35.96502472074712 35.52554477201978 35.30580479765611 34.95422083867423 34.7125068668742 34.36092290789233 33.96539095403772 33.789598974546784 33.54788500274675 33.32814502838308 33.152353048892145 32.88866507965574 32.75682109503754 32.33931514374657 32.03167917963743 31.72404321552829 31.548251236037355 31.37245925654642 31.020875297564547 30.845083318073613 30.669291338582678 30.44955136421901 30.22981138985534 30.054019410364404 29.570591466764327 29.438747482146127 29.153085515473357 28.84544955136422 28.735579564182384 28.449917597509614 28.142281633400476 27.988463651345906 27.790697674418606 27.658853689800402 27.548983702618568 27.483061710309467 27.461087712873102 27.373191723127633 27.307269730818533 27.285295733382164 27.285295733382164 27.263321735945798 27.263321735945798 27.241347738509432 27.241347738509432 27.219373741073063 27.197399743636698 27.197399743636698 27.153451748763963 27.10950375389123 27.04358176158213 26.97765976927303 26.95568577183666 26.867789782091194 26.80186778978209 26.779893792345725 26.73594579747299 26.713971800036624 26.691997802600255 26.713971800036624 26.691997802600255 26.713971800036624 26.73594579747299 26.73594579747299 26.73594579747299 26.757919794909355 26.757919794909355 26.757919794909355 26.757919794909355 26.73594579747299 26.713971800036624 26.691997802600255 26.713971800036624 26.713971800036624 26.713971800036624 26.73594579747299 26.73594579747299 26.73594579747299 26.757919794909355 26.757919794909355 26.757919794909355 26.757919794909355 26.73594579747299 26.73594579747299 26.73594579747299 26.73594579747299 26.713971800036624 26.713971800036624 26.713971800036624 26.713971800036624 26.713971800036624 26.691997802600255 26.691997802600255 26.713971800036624 26.713971800036624 26.691997802600255 26.713971800036624 26.713971800036624 26.713971800036624 26.713971800036624 26.713971800036624 26.713971800036624 26.713971800036624 26.713971800036624 26.691997802600255 26.713971800036624 26.713971800036624 26.713971800036624 26.73594579747299 26.713971800036624 26.713971800036624 26.713971800036624 26.691997802600255 26.691997802600255 26.67002380516389 26.67002380516389 26.648049807727524 26.648049807727524 26.626075810291155 26.626075810291155 26.60410181285479 26.626075810291155 26.60410181285479 26.60410181285479 26.58212781541842 26.58212781541842 26.538179820545686 26.51620582310932 26.472257828236586 26.45028383080022 26.406335835927486 26.406335835927486 26.38436183849112 26.36238784105475 26.36238784105475 26.36238784105475 26.340413843618386 26.36238784105475 26.36238784105475 26.36238784105475 26.36238784105475 26.36238784105475 26.36238784105475 26.36238784105475 26.36238784105475 26.340413843618386 26.318439846182017 26.29646584874565 26.29646584874565 26.29646584874565 26.29646584874565 26.29646584874565 26.29646584874565 26.318439846182017 26.318439846182017 26.318439846182017 26.318439846182017 26.318439846182017 26.340413843618386 26.340413843618386 26.340413843618386 26.340413843618386 26.340413843618386 26.340413843618386 26.340413843618386 26.340413843618386 26.340413843618386 26.340413843618386 26.340413843618386 26.340413843618386 26.340413843618386 26.340413843618386 26.340413843618386 26.340413843618386 26.318439846182017 26.318439846182017 26.318439846182017 26.318439846182017 26.340413843618386 26.340413843618386 26.340413843618386 26.340413843618386 26.36238784105475 26.36238784105475 26.36238784105475 26.36238784105475 26.36238784105475 26.36238784105475 26.36238784105475 26.36238784105475 26.36238784105475 26.36238784105475 26.36238784105475 26.340413843618386 26.340413843618386 26.340413843618386 26.318439846182017 26.318439846182017 26.318439846182017 26.318439846182017 26.318439846182017 26.318439846182017 26.318439846182017 26.318439846182017 26.318439846182017 26.29646584874565 26.29646584874565 26.29646584874565 26.274491851309286 26.274491851309286 26.252517853872916 26.252517853872916 26.252517853872916 26.252517853872916 26.274491851309286 26.274491851309286 26.274491851309286 26.274491851309286 26.29646584874565 26.29646584874565 26.29646584874565 26.318439846182017 26.318439846182017 26.318439846182017 26.318439846182017 26.318439846182017 26.318439846182017 26.340413843618386 26.340413843618386 26.36238784105475 26.340413843618386 26.36238784105475 26.38436183849112 26.406335835927486 26.42830983336385 26.45028383080022 26.45028383080022 26.45028383080022 26.472257828236586 26.494231825672955 26.538179820545686 26.58212781541842 26.648049807727524 26.67002380516389 26.713971800036624 26.73594579747299 26.82384178721846 26.867789782091194 26.911737776963925 26.999633766709394 27.219373741073063 27.395165720564 27.570957700054933 27.944515656473172 28.208203625709576 28.64768357443692 28.97729353598242 29.306903497527927 29.746383446255265 30.119941402673504 30.86705731550998 31.262589269364586 31.855887200146494 32.36128914118294 32.82274308734664 33.240249038637614 33.74565097967405 34.09723493865592 34.60263687969236 35.02014283098333 35.65738875663798 36.16279069767442 36.602270646401756 36.997802600256364 37.635048525911 38.07452847463834 38.68980040285662 39.08533235671123 39.942318256729536 40.55759018494781 41.019044131111514 41.52444607214796 42.38143197216627 42.90880791063908 43.633949826039185 44.139351767075624 44.8864676799121 45.58963559787585 46.16095953122139 46.820179454312395 47.50137337483977 48.02874931331258 48.77586522614906 49.43508514924007 50.050357077458344 50.79747299029482 51.34682292620399 52.04999084416774 52.731184764695115 53.214612708295185 54.071598608313494 54.51107855704083 54.99450650064091 55.96136238784105 56.51071232375023 57.125984251968504 58.31258011353232 59.03772202893243 59.69694195202344 60.246291887932614 61.03735579564182 61.7844717084783 62.37776963926021 63.212781541842155 63.652261490569494 64.1137154367332 65.01464933162424 65.30031129829702 66.1133492034426 66.70664713422451 67.08020509064274 67.49771104193371 67.93719099066105 68.53048892144295 69.32155282915217 69.7610327778795 70.35433070866142 71.01355063175242 71.34316059329794 71.69474455227981 72.26606848562534 72.74949642922542 73.25489837026186 73.58450833180737 74.08991027284381 74.55136421900751 75.10071415491669 75.40835011902581 75.78190807544406 76.28731001648049 76.8146859549533 77.18824391137156 77.69364585240798 78.4187877678081 78.79234572422632 79.1439296832082 79.5394616370628 80.11078557040835 80.66013550631753 81.2754074345358 81.86870536531771 82.48397729353599 82.92345724226331 83.38491118842703 83.97820911920894 84.48361106024538 85.3405969602637 85.8020509064274 86.41732283464567 87.03259476286395 87.49404870902765 88.08734663980957 88.52682658853689 89.14209851675518 89.69144845266435 90.04303241164622 90.54843435268266 91.00988829884636 91.55923823475554 91.64713422450102 91.77897820911922 91.95477018861015 91.97674418604652 91.97674418604652 91.93279619117378 91.5812122321919 91.29555026551914 90.83409631935542 90.43856436550082 89.93316242446438 89.38381248855521 88.9882805347006 88.39498260391869 87.99945065006409 87.47207471159129 86.94469877311849 86.59311481413661 86.08771287310017 85.6042849295001 85.27467496795458 84.63742904229994 84.2638710858817 83.89031312946346 83.40688518586339 83.23109320637246 82.70371726789965 82.00054934993591 81.60501739608131 81.03369346273576 80.61618751144479 80.00091558322652 79.4076176524446 78.94616370628091 78.24299578831716 77.60574986266252 77.10034792162608 76.37520600622597 75.86980406518953 75.14466214978941 74.46346822926205 73.95806628822561 73.25489837026186 72.52975645486175 72.0243545138253 70.9036806445706 70.61801867789782 69.98077275224318 69.5632668009522 69.1018128547885 68.48654092657023 67.58560703167919 67.08020509064274 66.39901117011536 65.89360922907892 65.1684673136788 64.53122138802416 63.981871452114994 63.322651529023986 62.64145760849661 62.13605566746017 61.38893975462369 60.86156381615089 59.872733931514375 59.14759201611427 58.46639809558689 58.02691814685955 57.47756821095037 56.9941402673503 56.29097234938656 55.30214246475005 54.5989745467863 53.895806628822555 53.346456692913385 52.88500274674968 52.31367881340414 51.63248489287676 50.88536898004028 50.094305072331075 49.610877128731005 48.92968320820363 48.44625526460355 47.76506134407617 47.325581395348834 46.73228346456693 46.182933528657756 45.80937557223952 45.32594762863944 44.71067570042116 44.38106573887566 44.02948177989379 43.61197582860282 43.326313861930046 42.90880791063908 42.42537996703901 41.94195202343893 41.50247207471159 41.21681010803882 40.90917414392968 40.469694195202344 40.074162241347736 39.7665262772386 39.5028383080022 39.21717634132943 38.88756637978392 38.64585240798389 38.27229445156565 38.03058047976561 37.7668925105292 37.327412561801864 37.041750595129095 36.646218641274494 36.22871268998352 35.70133675151071 35.26185680278337 34.95422083867423 34.53671488738326 33.855520966855885 33.459989013001284 33.064457059146676 32.4491851309284 32.14154916681926 31.855887200146494 31.46035524629189 31.08679728987365 30.757187328328143 30.493499359091743 30.22981138985534 29.966123420618935 29.812305438564366 29.592565464200696 29.460721479582496 29.284929500091557 29.131111518036988 29.021241530855153 28.801501556491484 28.669657571873284 28.55978758469145 28.38399560520051 28.27412561801868 28.05438564365501 27.768723676982237 27.592931697491302 27.439113715436733 27.307269730818533 27.10950375389123 26.933711774400294 26.845815784654825 26.779893792345725 26.73594579747299 26.73594579747299 26.757919794909355 26.779893792345725 26.80186778978209 26.82384178721846 26.82384178721846 26.82384178721846 26.82384178721846 26.82384178721846 26.82384178721846 26.80186778978209 26.80186778978209 26.80186778978209 26.82384178721846 26.82384178721846 26.845815784654825 26.82384178721846 26.845815784654825 26.845815784654825 26.82384178721846 26.82384178721846 26.80186778978209 26.80186778978209 26.80186778978209 26.779893792345725 26.779893792345725 26.779893792345725 26.757919794909355 26.73594579747299 26.691997802600255 26.691997802600255 26.67002380516389 26.67002380516389 26.648049807727524 26.648049807727524 26.648049807727524 26.626075810291155 26.626075810291155 26.626075810291155 26.648049807727524 26.648049807727524 26.67002380516389 26.691997802600255 26.713971800036624 26.713971800036624 26.713971800036624 26.73594579747299 26.73594579747299 26.73594579747299 26.73594579747299 26.73594579747299 26.713971800036624 26.713971800036624 26.691997802600255 26.713971800036624 26.713971800036624 26.713971800036624 26.713971800036624 26.713971800036624 26.73594579747299 26.73594579747299 26.73594579747299 26.73594579747299 26.73594579747299 26.713971800036624 26.713971800036624 26.713971800036624 26.713971800036624 26.713971800036624 26.713971800036624 26.713971800036624 26.713971800036624 26.713971800036624 26.713971800036624 26.713971800036624 26.713971800036624 26.713971800036624 26.713971800036624 26.713971800036624 26.713971800036624 26.713971800036624 26.713971800036624 26.713971800036624 26.713971800036624 26.713971800036624 26.713971800036624 26.713971800036624 26.713971800036624 26.713971800036624 26.713971800036624 26.713971800036624 26.713971800036624 26.713971800036624 26.713971800036624 26.713971800036624 26.713971800036624 26.713971800036624 26.713971800036624 26.713971800036624 26.691997802600255 26.691997802600255 26.713971800036624 26.691997802600255 26.691997802600255 26.691997802600255 26.691997802600255 26.691997802600255 26.691997802600255 26.691997802600255 26.691997802600255 26.691997802600255 26.713971800036624 26.713971800036624 26.691997802600255 26.691997802600255 26.691997802600255 26.691997802600255 26.691997802600255 26.691997802600255 26.691997802600255 26.691997802600255 26.691997802600255 26.67002380516389 26.648049807727524 26.648049807727524 26.626075810291155 26.626075810291155 26.626075810291155 26.626075810291155 26.626075810291155 26.626075810291155 26.626075810291155 26.626075810291155 26.648049807727524 26.626075810291155 26.626075810291155 26.60410181285479 26.626075810291155 26.626075810291155 26.60410181285479 26.626075810291155 26.626075810291155 26.626075810291155 26.626075810291155 26.626075810291155 26.60410181285479 26.60410181285479 26.626075810291155 26.626075810291155 26.626075810291155 26.626075810291155 26.626075810291155 26.626075810291155 26.626075810291155 26.626075810291155 26.60410181285479 26.626075810291155 26.626075810291155 26.626075810291155 26.60410181285479 26.60410181285479 26.60410181285479 26.60410181285479 26.58212781541842 26.560153817982055 26.560153817982055 26.538179820545686 26.538179820545686 26.538179820545686 26.538179820545686 26.538179820545686 26.538179820545686 26.538179820545686 26.538179820545686 26.538179820545686 26.538179820545686 26.51620582310932 26.494231825672955 26.494231825672955 26.472257828236586 26.45028383080022 26.406335835927486 26.38436183849112 26.38436183849112 26.38436183849112 26.36238784105475 26.38436183849112 26.406335835927486 26.406335835927486 26.406335835927486 26.406335835927486 26.38436183849112 26.38436183849112 26.38436183849112 26.38436183849112 26.38436183849112 26.38436183849112 26.38436183849112 26.406335835927486 26.38436183849112 26.406335835927486 26.42830983336385 26.472257828236586 26.472257828236586 26.494231825672955 26.538179820545686 26.60410181285479 26.626075810291155 26.691997802600255 26.713971800036624 26.779893792345725 26.845815784654825 26.88976377952756 26.97765976927303 27.02160776414576 27.065555759018494 27.10950375389123 27.153451748763963 27.219373741073063 27.329243728254898 27.395165720564 27.527009705182202 27.702801684673137 27.856619666727706 28.05438564365501 28.18622962827321 28.53781358725508 28.999267533418788 29.131111518036988 29.54861746932796 29.834279436000735 30.42757736678264 30.86705731550998 31.08679728987365 31.57022523347372 32.07562717451016 32.4491851309284 32.998535066837576 33.61380699505585 34.16315693096502 34.82237685405603 35.02014283098333 35.70133675151071 36.338582677165356 37.063724592565464 37.74491851309284 38.25032045412928 38.97546236952939 39.7006042849295 40.227980223402305 40.97509613623878 41.70023805163889 42.2276139901117 42.996703900384546 43.52407983885735 44.33711774400293 45.45779161325764 45.83134956967588 46.622413477385095 47.391503387657934 47.98480131843985 48.70994323383995 49.19337117744003 50.138253067203806 50.86339498260392 51.17103094671306 51.83025086980406 52.75315876213148 53.258560703167916 53.80791063907709 54.4671305621681 55.23622047244095 56.00531038271379 56.57663431605933 57.36769822376854 58.11481413660502 58.66416407251419 59.4552279802234 60.004577916132575 60.795641823841784 61.6526277238601 62.22395165720564 63.058963559787585 63.87200146493316 64.46529939571508 65.52005127266068 66.1792711957517 66.97033510346091 67.65152902398827 68.20087895989745 68.66233290606115 69.431422816334 70.15656473173412 70.85973264969786 71.32118659586156 72.00238051638894 72.63962644204358 73.1010803882073 73.7603003112983 74.33162424464385 74.88097418055301 75.80388207288043 76.28731001648049 76.9465299395715 77.58377586522616 78.06720380882624 78.52865775498992 78.92418970884452 79.58340963193555 80.37447353964475 80.81395348837209 81.38527742171763 81.97857535249955 82.39608130379051 82.79161325764511 83.40688518586339 84.0001831166453 84.76927302691814 85.05493499359092 85.69218091924556 86.2635048525911 86.6590368064457 87.05456876030031 87.45010071415491 87.91155466031863 88.4609045962278 88.87841054751877 89.55960446804615 90.10895440395532 90.52646035524629 90.9219923091009 91.33949826039188 91.80095220655558 92.32832814502838 92.8557040835012 93.33913202710126 93.84453396813771 94.13019593481047 94.43783189891961 94.81138985533785 95.22889580662883 95.5145577733016 95.71232375022889 95.9100897271562 96.0419337117744 96.08588170664714 96.08588170664714 96.08588170664714 96.08588170664714 95.9100897271562 95.71232375022889 95.33876579381067 94.83336385277421 94.34993590917415 93.7786119758286 93.383080021974 92.9875480681194 92.19648416041018 91.7130562168101 91.09778428859184 90.65830433986449 89.95513642190075 89.25196850393701 88.7245925654642 87.95550265519137 87.20838674235489 86.70298480131844 85.97784288591834 85.4724409448819 84.76927302691814 84.0661051089544 83.56070316791798 82.92345724226331 82.00054934993591 81.58304339864495 81.05566746017213 80.41842153451748 79.80314960629921 79.1439296832082 78.7483977293536 78.26496978575352 77.32008789598976 76.77073796008057 76.15546603186229 75.62809009338949 74.85900018311665 74.0239882805347 73.4306903497528 72.57370444973449 71.4310565830434 71.1014466214979 70.11261673686138 69.8269547701886 68.94799487273393 68.17890496246109 67.49771104193371 66.79454312396996 65.78373924189708 65.30031129829702 64.46529939571508 63.93792345724226 63.322651529023986 62.44369163156931 62.20197765976927 61.76249771104193 60.88353781358725 60.444057864859914 59.82878593664164 59.34535799304157 58.68613806995056 57.82915216993224 57.63138619300494 57.038088262223035 56.64255630836843 56.115180369895626 55.63175242629555 55.30214246475005 54.6648965390954 54.18146859549533 53.785936641640724 53.434352682658854 53.08276872367698 52.357626808276876 51.76432887749496 51.34682292620399 50.79747299029482 50.204175059512906 49.76469511078557 49.4131111518037 48.99560520051273 48.22651529023988 47.63321735945797 47.193737410730634 46.51254349020326 45.853323567112255 45.15015564914851 44.6887017029848 44.18329976194836 43.48013184398462 42.82091192089361 42.33748397729354 41.56839406702069 41.06299212598425 40.68943416956601 40.35982420802051 40.052188243911374 39.612708295184035 39.21717634132943 38.82164438747482 38.49203442592932 38.18439846182018 37.98663248489288 37.78886650796557 37.59110053103827 37.34938655923823 37.1076725874382 36.953854605383626 36.756088628456325 36.58029664896539 36.44845266434719 36.20673869254715 36.03094671305622 35.72331074894708 35.37172678996521 35.10803882072881 34.69053286943783 34.16315693096502 33.877494964292254 33.459989013001284 33.152353048892145 32.84471708478301 32.47115912836477 32.20747115912837 31.87786119758286 31.636147225782825 31.328511261673686 31.042849295000916 30.845083318073613 30.603369346273574 30.405603369346274 30.29573338216444 30.163889397546235 30.032045412928035 29.966123420618935 29.878227430873466 29.812305438564366 29.724409448818896 29.592565464200696 29.48269547701886 29.19703351034609 28.999267533418788 28.69163156930965 28.296099615455045 27.944515656473172 27.658853689800402 27.17542574620033 26.911737776963925 26.58212781541842 26.274491851309286 26.120673869254716 25.966855887200147 25.900933894891047 25.856985900018312 25.856985900018312 25.900933894891047 25.988829884636512 26.07672587438198 26.186595861563816 26.252517853872916 26.340413843618386 26.38436183849112 26.45028383080022 26.472257828236586 26.494231825672955 26.472257828236586 26.472257828236586 26.45028383080022 26.406335835927486 26.406335835927486 26.36238784105475 26.340413843618386 26.318439846182017 26.29646584874565 26.252517853872916 26.208569859000182 26.208569859000182 26.186595861563816 26.208569859000182 26.186595861563816 26.186595861563816 26.186595861563816 26.186595861563816 26.208569859000182 26.208569859000182 26.208569859000182 26.208569859000182 26.208569859000182 26.186595861563816 26.186595861563816 26.164621864127447 26.14264786669108 26.14264786669108 26.14264786669108 26.14264786669108 26.14264786669108 26.14264786669108 26.14264786669108 26.164621864127447 26.186595861563816 26.186595861563816 26.186595861563816 26.208569859000182 26.186595861563816 26.186595861563816 26.164621864127447 26.14264786669108 26.120673869254716 26.098699871818347 26.098699871818347 26.07672587438198 26.07672587438198 26.054751876945616 26.054751876945616 26.054751876945616 26.07672587438198 26.07672587438198 26.07672587438198 26.098699871818347 26.098699871818347 26.098699871818347 26.098699871818347 26.07672587438198 26.07672587438198 26.07672587438198 26.07672587438198 26.07672587438198 26.07672587438198 26.07672587438198 26.07672587438198 26.07672587438198 26.07672587438198 26.07672587438198 26.054751876945616 26.054751876945616 26.054751876945616 26.054751876945616 26.07672587438198 26.07672587438198 26.098699871818347 26.098699871818347 26.07672587438198 26.098699871818347 26.098699871818347 26.098699871818347 26.098699871818347 26.098699871818347 26.07672587438198 26.07672587438198 26.07672587438198 26.07672587438198 26.07672587438198 26.054751876945616 26.054751876945616 26.054751876945616 26.032777879509247 26.054751876945616 26.054751876945616 26.054751876945616 26.032777879509247 26.054751876945616 26.032777879509247 26.054751876945616 26.054751876945616 26.032777879509247 26.054751876945616 26.054751876945616 26.054751876945616 26.054751876945616 26.054751876945616 26.054751876945616 26.054751876945616 26.054751876945616 26.054751876945616 26.054751876945616 26.054751876945616 26.032777879509247 26.054751876945616 26.032777879509247 26.054751876945616 26.054751876945616 26.032777879509247 26.032777879509247 26.032777879509247 26.032777879509247 26.01080388207288 26.01080388207288 25.988829884636512 25.988829884636512 25.966855887200147 25.966855887200147 25.966855887200147 25.966855887200147 25.966855887200147 25.966855887200147 25.966855887200147 25.966855887200147 25.966855887200147 25.966855887200147 25.966855887200147 25.966855887200147 25.966855887200147 25.944881889763778 25.944881889763778 25.922907892327412 25.944881889763778 25.922907892327412 25.944881889763778 25.922907892327412 25.944881889763778 25.944881889763778 25.944881889763778 25.944881889763778 25.944881889763778 25.944881889763778 25.944881889763778 25.944881889763778 25.944881889763778 25.944881889763778 25.944881889763778 25.944881889763778 25.966855887200147 25.966855887200147 25.966855887200147 25.966855887200147 25.966855887200147 25.966855887200147 25.966855887200147 25.944881889763778 25.944881889763778 25.944881889763778 25.922907892327412 25.900933894891047 25.900933894891047 25.878959897454678 25.878959897454678 25.856985900018312 25.856985900018312 25.856985900018312 25.878959897454678 25.878959897454678 25.878959897454678 25.900933894891047 25.900933894891047 25.900933894891047 25.922907892327412 25.922907892327412 25.922907892327412 25.922907892327412 25.922907892327412 25.944881889763778 25.944881889763778 25.944881889763778 25.944881889763778 25.944881889763778 25.966855887200147 25.966855887200147 25.988829884636512 26.01080388207288 26.032777879509247 26.07672587438198 26.14264786669108 26.186595861563816 26.23054385643655 26.274491851309286 26.340413843618386 26.406335835927486 26.472257828236586 26.560153817982055 26.58212781541842 26.648049807727524 26.713971800036624 26.757919794909355 26.80186778978209 26.867789782091194 26.911737776963925 26.95568577183666 26.97765976927303 27.04358176158213 27.10950375389123 27.17542574620033 27.329243728254898 27.548983702618568 27.768723676982237 28.16425563083684 28.49386559238235 29.175059512909723 29.746383446255265 30.010071415491666 30.625343343709943 31.614173228346456 32.03167917963743 32.778795092473906 33.262223036073976 33.92144295916499 34.6465848745651 35.06409082585607 35.61344076176525 36.624244643838125 37.3054385643655 38.07452847463834 38.68980040285662 39.524812305438566 40.403772202893244 41.084966123420614 41.94195202343893 42.75498992858451 43.370261856802784 44.18329976194836 44.7546236952939 45.63358359274858 46.71030946713056 47.30360739791247 47.83098333638527 48.64402124153085 49.19337117744003 49.940487090276505 50.73155099798572 51.43471891594946 52.1378868339132 52.64328877494964 53.08276872367698 54.15949459805896 54.42318256729537 55.06042849295001 55.49990844167735 56.20307635964109 56.884270280168465 57.34572422633217 58.04889214429592 58.55429408533236 59.2574620032961 60.290239882805345 60.597875846914484 61.38893975462369 62.22395165720564 63.388573521333086 64.09174143929684 64.61911737776964 65.21241530855156 66.20124519318806 66.75059512909723 67.40981505218824 68.42061893426111 69.01391686504303 69.60721479582494 70.50814869071598 71.3651345907343 72.17817249587988 72.77147042666178 73.54056033693463 74.28767624977111 74.83702618568029 75.5621681010804 76.0895440395532 76.79271195751694 77.49587987548068 78.02325581395348 79.20985167551731 79.49551364219008 80.00091558322652 80.57223951657207 81.03369346273576 81.69291338582677 82.52792528840871 82.9454312396997 83.56070316791798 84.17597509613624 84.57150704999086 85.05493499359092 85.58231093206373 86.19758286028201 86.76890679362754 87.16443874748215 87.71378868339133 88.48287859366417 88.87841054751877 89.31789049624611 89.66947445522798 90.21882439113715 90.7242263321736 91.0538362937191 91.66910822193738 92.06464017579198 92.35030214246476 92.70188610144663 92.83373008606483 93.16334004761033 93.47097601171946 93.73466398095587 93.95440395531953 94.13019593481047 94.32796191173779 94.52572788866507 94.65757187328327 94.83336385277421 95.00915583226515 95.14099981688335 95.27284380150155 95.36073979124703 95.49258377586523 95.62442776048343 95.66837575535617 95.66837575535617 95.66837575535617 95.66837575535617 95.62442776048343 95.5145577733016 95.31679179637429 95.07507782457425 94.78941585790149 94.61362387841055 94.30598791430141 93.97637795275591 93.58084599890131 93.27321003479217 92.9216260758103 92.48214612708296 92.17451016297382 91.7130562168101 91.22962827321004 90.87804431422816 90.39461637062809 90.04303241164622 89.53763047060978 88.8564365500824 88.48287859366417 88.04339864493683 87.51602270646401 87.09851675517305 86.48324482695477 86.10968687053654 85.27467496795458 84.65940303973632 84.15400109869987 83.78044314228164 83.0772752243179 82.63779527559055 82.02252334737227 81.51712140633583 80.98974546786303 80.39644753708112 79.97894158579015 79.42959164988098 78.83629371909907 78.4847097601172 77.69364585240798 77.36403589086248 76.8806079472624 76.06757004211683 75.5621681010804 75.12268815235305 74.66123420618933 74.13385826771653 73.32082036257097 72.88134041384362 72.22212049075262 71.38710858817066 71.0355246291888 70.57407068302508 70.04669474455227 69.38747482146127 68.7062809009339 68.22285295733383 67.62955502655191 66.83849111884271 66.42098516755172 66.00347921626076 65.65189525727888 65.05859732649698 64.55319538546054 64.06976744186046 63.278703534151255 62.905145577733016 62.53158762131478 62.15802966489654 61.7844717084783 61.14722578282366 60.597875846914484 60.246291887932614 59.740889946896175 59.2574620032961 58.83995605200513 58.37850210584142 58.02691814685955 57.47756821095037 56.884270280168465 56.378868339132026 55.74162241347739 54.81871452114997 54.35726057498627 53.698040651895255 53.52224867240432 52.88500274674968 52.3356528108405 51.89617286211316 51.45669291338582 50.81944698773118 50.511811023622045 50.204175059512906 49.940487090276505 49.50100714154917 49.01757919794909 48.51217725691265 48.02874931331258 47.56729536714887 47.17176341329427 46.908075444057864 46.622413477385095 46.248855520966856 45.919245559421356 45.69950558505768 45.39186962094854 45.15015564914851 44.79857169016664 44.2931697491302 44.16132576451199 43.74381981322102 43.304339864493684 42.97472990294818 42.55722395165721 42.24958798754807 41.65629005676616 41.23878410547519 41.084966123420614 40.645486174693275 40.074162241347736 39.810474272111335 39.4369163156931 39.173228346456696 38.79967039003846 38.44808643105658 38.20637245925654 37.85478850027467 37.52517853872917 37.3054385643655 37.019776597692726 36.822010620765425 36.58029664896539 36.338582677165356 36.14081670023805 35.65738875663798 35.56949276689251 35.34975279252884 34.9761948361106 34.8443508514924 34.44881889763779 34.11920893609229 33.96539095403772 33.635780992492215 33.130379051455776 32.866691082219376 32.47115912836477 32.22944515656473 31.87786119758286 31.57022523347372 31.37245925654642 31.064823292437282 30.735213330891778 30.537447353964474 30.20783739241897 29.966123420618935 29.460721479582496 29.131111518036988 29.043215528291523 28.75755356161875 28.515839589818714 28.362021607764145 28.16425563083684 28.09833363852774 28.03241164621864 27.988463651345906 27.96648965390954 27.944515656473172 27.922541659036806 27.922541659036806 27.944515656473172 27.944515656473172 27.944515656473172 27.988463651345906 28.010437648782275 28.05438564365501 28.076359641091376 28.09833363852774 28.09833363852774 28.09833363852774 28.076359641091376 28.05438564365501 28.03241164621864 28.010437648782275 27.96648965390954 27.922541659036806 27.856619666727706 27.81267167185497 27.768723676982237 27.768723676982237 27.768723676982237 27.74674967954587 27.768723676982237 27.768723676982237 27.790697674418606 27.81267167185497 27.834645669291337 27.856619666727706 27.87859366416407 27.87859366416407 27.87859366416407 27.87859366416407 27.87859366416407 27.856619666727706 27.856619666727706 27.834645669291337 27.834645669291337 27.834645669291337 27.834645669291337 27.81267167185497 27.81267167185497 27.834645669291337 27.834645669291337 27.81267167185497 27.81267167185497 27.81267167185497 27.81267167185497 27.81267167185497 27.790697674418606 27.790697674418606 27.790697674418606 27.790697674418606 27.790697674418606 27.790697674418606 27.790697674418606 27.768723676982237 27.790697674418606 27.81267167185497 27.834645669291337 27.834645669291337 27.834645669291337 27.834645669291337 27.834645669291337 27.834645669291337 27.834645669291337 27.834645669291337 27.81267167185497 27.834645669291337 27.834645669291337 27.834645669291337 27.834645669291337 27.834645669291337 27.834645669291337 27.834645669291337 27.834645669291337 27.834645669291337 27.834645669291337 27.834645669291337 27.834645669291337 27.834645669291337 27.834645669291337 27.834645669291337 27.856619666727706 27.856619666727706 27.856619666727706 27.87859366416407 27.87859366416407 27.87859366416407 27.87859366416407 27.87859366416407 27.87859366416407 27.90056766160044 27.87859366416407 27.87859366416407 27.90056766160044 27.90056766160044 27.922541659036806 27.922541659036806 27.922541659036806 27.90056766160044 27.90056766160044 27.90056766160044 27.90056766160044 27.90056766160044 27.90056766160044 27.922541659036806 27.922541659036806 27.922541659036806 27.922541659036806 27.922541659036806 27.922541659036806 27.922541659036806 27.922541659036806 27.944515656473172 27.944515656473172 27.944515656473172 27.944515656473172 27.944515656473172 27.944515656473172 27.944515656473172 27.944515656473172 27.944515656473172 27.944515656473172 27.944515656473172 27.922541659036806 27.922541659036806 27.944515656473172 27.922541659036806 27.922541659036806 27.944515656473172 27.944515656473172 27.96648965390954 27.96648965390954 27.988463651345906 28.010437648782275 28.03241164621864 28.03241164621864 28.05438564365501 28.05438564365501 28.05438564365501 28.05438564365501 28.05438564365501 28.05438564365501 28.03241164621864 28.03241164621864 28.03241164621864 28.03241164621864 28.010437648782275 28.010437648782275 28.010437648782275 28.010437648782275 28.010437648782275 28.010437648782275 28.010437648782275 28.010437648782275 28.010437648782275 28.010437648782275 28.03241164621864 28.03241164621864 28.010437648782275 28.03241164621864 28.03241164621864 28.03241164621864 28.05438564365501 28.05438564365501 28.05438564365501 28.05438564365501 28.05438564365501 28.05438564365501 28.076359641091376 28.05438564365501 28.076359641091376 28.09833363852774 28.12030763596411 28.16425563083684 28.208203625709576 28.230177623145945 28.296099615455045 28.40596960263688 28.47189159494598 28.581761582127815 28.669657571873284 28.77952755905512 28.91137154367332 29.021241530855153 29.153085515473357 29.41677348470976 29.504669474455227 29.61453946163706 29.746383446255265 29.878227430873466 30.054019410364404 30.22981138985534 30.42757736678264 30.691265336019043 30.86705731550998 31.21864127449185 31.46035524629189 31.767991210401025 31.96575718732833 32.185497161692 32.47115912836477 32.866691082219376 33.064457059146676 33.39406702069218 33.657754989928584 33.96539095403772 34.49276689251053 34.86632484892877 35.19593481047427 35.76725874381981 36.22871268998352 36.953854605383626 37.48123054385644 38.51400842336568 39.32704632851126 40.030214246475005 40.601538179820544 41.28273210034792 41.87603003112983 42.95275590551181 43.74381981322102 44.4909357260575 45.04028566196667 45.56766160043948 46.117011536348656 47.10584142098517 47.65519135689434 48.16059329793078 48.62204724409449 49.14942318256729 49.76469511078557 50.40194103644021 50.81944698773118 51.39077092107672 51.8082768723677 52.40157480314961 52.81908075444058 53.54422266984069 54.137520600622594 54.5989745467863 55.01648049807727 55.47793444424098 56.02728438015016 56.664530305804796 57.34572422633217 57.96099615455045 58.59824208020509 59.1256180186779 59.82878593664164 60.356161875114445 61.16919978026002 61.9822376854056 62.72935359824208 63.432521516205824 64.33345541109688 64.97070133675152 65.8496612342062 66.5748031496063 67.45376304706097 68.35469694195203 69.03589086247939 69.91485075993407 70.81578465482514 71.71671854971618 72.4198864676799 73.03515839589818 73.71635231642557 74.77110419337117 75.34242812671673 76.0895440395532 76.83665995238968 77.34206189342612 77.89141182933528 78.52865775498992 79.23182567295368 79.93499359091741 80.52829152169933 81.03369346273576 81.67093938839041 82.11041933711775 82.72569126533602 83.40688518586339 83.7364951474089 84.28584508331807 84.63742904229994 85.4065189525728 85.78007690899102 86.08771287310017 86.61508881157297 87.01062076542757 87.38417872184581 88.04339864493683 88.37300860648233 88.81248855520967 89.25196850393701 89.62552646035525 90.06500640908259 90.41659036806446 90.87804431422816 91.36147225782824 91.75700421168284 92.26240615271928 92.61399011170116 93.27321003479217 93.53689800402857 93.80058597326497 94.17414392968321 94.50375389122871 94.70151986815601 94.94323383995605 95.03112982970153 95.05310382713789 95.05310382713789 95.03112982970153 95.00915583226515 94.63559787584691 94.32796191173779 93.86650796557407 93.5149240065922 92.96557407068303 92.41622413477386 92.02069218091924 91.51529023988282 90.98791430141 90.52646035524629 90.06500640908259 89.66947445522798 89.01025453213697 88.48287859366417 88.26313861930049 87.77971067570043 87.25233473722761 86.90075077824574 86.41732283464567 85.91192089360922 85.38454495513642 84.87914301409998 84.61545504486358 83.95623512177258 83.56070316791798 83.01135323200879 82.39608130379051 81.95660135506317 81.34132942684491 80.50631752426295 80.26460355246292 79.58340963193555 78.8802417139718 78.4187877678081 77.71561984984436 77.18824391137156 76.44112799853508 75.49624610877129 75.01281816517121 74.52939022157113 73.80424830617103 73.14502838308002 72.57370444973449 72.09027650613442 71.27723860098882 70.35433070866142 69.7610327778795 69.03589086247939 68.50851492400659 67.82732100347921 67.12415308551547 66.66269913935176 66.02545321369712 65.43215528291522 65.01464933162424 64.5092473905878 64.13568943416956 63.630287493133125 63.190807544405786 62.707379600805716 62.35579564182384 62.0481596777147 61.63065372642373 61.36696575718733 61.10327778795092 60.729719831532684 60.180369895623514 59.872733931514375 59.4552279802234 59.03772202893243 58.75206006225966 58.35652810840505 58.07086614173228 57.65336019044131 57.235854239150335 56.950192272477565 56.554660318622965 56.13715436733199 55.89544039553195 55.52188243911371 55.23622047244095 54.79674052371361 54.335286577549894 54.00567661600439 53.324482695477016 52.863028749313315 52.66526277238601 52.18183482878594 51.85222486724043 51.41274491851309 50.81944698773118 50.511811023622045 50.028383080021975 49.610877128731005 49.32521516205823 48.88573521333089 48.46822926203992 48.18256729536715 47.74308734663981 47.43545138253067 46.995971433803334 46.424647500457795 46.117011536348656 45.74345357993042 45.47976561069402 45.21607764145761 44.8864676799121 44.64475370811206 44.22724775682109 44.007507782457424 43.67789782091192 43.348287859366415 43.106573887566384 42.864859915766345 42.49130195934811 42.27156198498443 41.94195202343893 41.70023805163889 41.45852407983885 41.17286211316609 40.953122138802414 40.71140816700238 40.447720197765975 40.227980223402305 39.942318256729536 39.744552279802235 39.48086431056583 39.06335835927486 38.86559238234756 38.64585240798389 38.31624244643838 38.09650247207471 37.7668925105292 37.48123054385644 37.195568577183664 36.909906610510895 36.712140633583594 36.558322651529025 36.272660684856255 36.16279069767442 35.921076725874386 35.78923274125618 35.65738875663798 35.48159677714705 35.37172678996521 35.17396081303791 34.93224684123787 34.73448086431057 34.44881889763779 34.207104925837754 33.92144295916499 33.61380699505585 33.284197033510345 33.086431056583045 32.778795092473906 32.53708112067387 32.09760117194653 31.767991210401025 31.394433253982786 31.064823292437282 30.845083318073613 30.44955136421901 30.22981138985534 30.07599340780077 29.878227430873466 29.724409448818896 29.54861746932796 29.372825489837027 29.284929500091557 29.240981505218826 29.219007507782457 29.19703351034609 29.19703351034609 29.19703351034609 29.19703351034609 29.19703351034609 29.19703351034609 29.175059512909723 29.153085515473357 29.109137520600623 28.999267533418788 28.933345541109688 28.84544955136422 28.75755356161875 28.64768357443692 28.53781358725508 28.47189159494598 28.38399560520051 28.296099615455045 28.230177623145945 28.18622962827321 28.12030763596411 28.09833363852774 28.03241164621864 28.03241164621864 27.96648965390954 27.922541659036806 27.90056766160044 27.87859366416407 27.834645669291337 27.834645669291337 27.834645669291337 27.834645669291337 27.834645669291337 27.856619666727706 27.834645669291337 27.856619666727706 27.856619666727706 27.856619666727706 27.834645669291337 27.81267167185497 27.81267167185497 27.81267167185497 27.790697674418606 27.790697674418606 27.790697674418606 27.768723676982237 27.768723676982237 27.768723676982237 27.768723676982237 27.768723676982237 27.768723676982237 27.768723676982237 27.768723676982237 27.768723676982237 27.790697674418606 27.81267167185497 27.81267167185497 27.834645669291337 27.834645669291337 27.856619666727706 27.856619666727706 27.856619666727706 27.856619666727706 27.856619666727706 27.856619666727706 27.856619666727706 27.834645669291337 27.834645669291337 27.834645669291337 27.834645669291337 27.834645669291337 27.834645669291337 27.856619666727706 27.856619666727706 27.856619666727706 27.856619666727706 27.856619666727706 27.856619666727706 27.856619666727706 27.856619666727706 27.856619666727706 27.856619666727706 27.856619666727706 27.856619666727706 27.856619666727706 27.856619666727706 27.856619666727706 27.856619666727706 27.856619666727706 27.856619666727706 27.856619666727706 27.856619666727706 27.856619666727706 27.856619666727706 27.856619666727706 27.856619666727706 27.856619666727706 27.856619666727706 27.856619666727706 27.87859366416407 27.856619666727706 27.87859366416407 27.87859366416407 27.90056766160044 27.87859366416407 27.87859366416407 27.87859366416407 27.87859366416407 27.87859366416407 27.856619666727706 27.856619666727706 27.856619666727706 27.856619666727706 27.87859366416407 27.856619666727706 27.856619666727706 27.856619666727706 27.856619666727706 27.87859366416407 27.87859366416407 27.87859366416407 27.87859366416407 27.90056766160044 27.90056766160044 27.90056766160044 27.922541659036806 27.922541659036806 27.922541659036806 27.922541659036806 27.922541659036806 27.922541659036806 27.922541659036806 27.922541659036806 27.944515656473172 27.922541659036806 27.944515656473172 27.944515656473172 27.944515656473172 27.922541659036806 27.922541659036806 27.922541659036806 27.944515656473172 27.944515656473172 27.922541659036806 27.922541659036806 27.922541659036806 27.944515656473172 27.944515656473172 27.944515656473172 27.944515656473172 27.944515656473172 27.944515656473172 27.96648965390954 27.96648965390954 27.96648965390954 27.988463651345906 27.988463651345906 27.96648965390954 27.96648965390954 27.96648965390954 27.944515656473172 27.944515656473172 27.944515656473172 27.944515656473172 27.944515656473172 27.922541659036806 27.922541659036806 27.90056766160044 27.90056766160044 27.90056766160044 27.90056766160044 27.90056766160044 27.90056766160044 27.90056766160044 27.922541659036806 27.922541659036806 27.922541659036806 27.922541659036806 27.922541659036806 27.922541659036806 27.922541659036806 27.90056766160044 27.922541659036806 27.922541659036806 27.922541659036806 27.922541659036806 27.922541659036806 27.944515656473172 27.944515656473172 27.944515656473172 27.944515656473172 27.988463651345906 27.988463651345906 28.010437648782275 28.010437648782275 28.010437648782275 28.010437648782275 28.03241164621864 28.03241164621864 28.05438564365501 28.05438564365501 28.076359641091376 28.076359641091376 28.09833363852774 28.09833363852774 28.09833363852774 28.12030763596411 28.12030763596411 28.12030763596411 28.12030763596411 28.12030763596411 28.12030763596411 28.09833363852774 28.12030763596411 28.12030763596411 28.12030763596411 28.12030763596411 28.12030763596411 28.12030763596411 28.142281633400476 28.16425563083684 28.18622962827321 28.208203625709576 28.25215162058231 28.31807361289141 28.362021607764145 28.47189159494598 28.581761582127815 28.71360556674602 28.889397546236953 29.131111518036988 29.372825489837027 29.658487456509796 29.878227430873466 30.07599340780077 30.42757736678264 30.713239333455412 31.262589269364586 31.52627723860099 31.96575718732833 32.3832631386193 32.66892510529207 32.95458707196484 33.350119025819446 33.723676982237684 34.09723493865592 34.36092290789233 34.69053286943783 35.0421168284197 35.39370078740157 35.63541475920161 35.921076725874386 36.316608679728986 36.712140633583594 37.019776597692726 37.635048525911 38.29426844900202 38.75572239516572 39.173228346456696 39.5687603003113 40.030214246475005 40.75535616187511 41.21681010803882 41.91997802600257 42.60117194652994 43.062625892693646 43.54605383629372 44.24922175425746 44.9523896722212 45.63358359274858 46.07306354147592 46.688335469694195 47.3475553927852 47.72111334920344 48.33638527742171 48.73191723127633 49.3471891594946 49.89653909540377 50.314045046694744 50.90734297747665 51.50064090825856 52.006042849295 52.3356528108405 52.64328877494964 53.104742721113354 53.720014649331624 54.00567661600439 54.269364585240794 54.64292254165903 54.90661051089544 55.25819446987731 55.49990844167735 55.89544039553195 56.33492034425929 56.664530305804796 57.169932246841235 57.69730818531404 58.09284013916865 58.64219007507782 59.08167002380517 59.69694195202344 60.509979857169014 60.729719831532684 61.60867972898736 62.00421168284197 62.487639626442046 63.190807544405786 63.564365500824024 64.1796374290423 65.01464933162424 65.45412928035158 66.09137520600623 66.55282915216993 67.08020509064274 67.67350302142464 68.06903497527925 68.59641091375207 69.14576084966123 69.6951107855704 70.09064273942502 70.46420069584326 71.0355246291888 71.34316059329794 71.67277055484342 72.13422450100714 72.57370444973449 72.88134041384362 73.47463834462553 73.78227430873466 74.24372825489837 74.72715619849845 75.14466214978941 75.49624610877129 76.24336202160777 76.59494598058964 76.99047793444424 77.34206189342612 78.00128181651712 78.4847097601172 78.81431972166271 79.20985167551731 79.73722761399011 80.08881157297199 80.57223951657207 80.98974546786303 81.60501739608131 82.13239333455411 82.48397729353599 82.83556125251786 83.31898919611793 83.62662516022706 84.2638710858817 84.59348104742722 85.03296099615454 85.45046694744553 85.78007690899102 86.10968687053654 86.3953488372093 86.74693279619117 87.09851675517305 87.34023072697309 87.66984068851858 88.04339864493683 88.28511261673685 88.63669657571873 88.90038454495513 89.29591649880975 89.66947445522798 89.97711041933712 90.39461637062809 91.00988829884636 91.33949826039188 91.62516022706464 91.95477018861015 92.43819813221022 92.9216260758103 93.2512360373558 93.88848196301043 94.30598791430141 94.59164988097419 94.96520783739241 95.18494781175609 95.44863578099249 95.62442776048343 95.71232375022889 95.75627174510163 95.75627174510163 95.73429774766527 95.73429774766527 95.73429774766527 95.49258377586523 95.18494781175609 94.89928584508333 94.50375389122871 94.04229994506501 93.53689800402857 93.16334004761033 92.83373008606483 92.10858817066472 91.53726423731918 91.09778428859184 90.48251236037356 89.88921442959166 89.42776048342795 88.76854056033693 88.04339864493683 87.31825672953671 86.87877678080937 86.41732283464567 85.78007690899102 85.14283098333638 84.61545504486358 84.1320271012635 83.7364951474089 83.16517121406336 82.63779527559055 82.22028932429959 81.56106940120857 81.0117194652994 80.63816150888115 80.06683757553562 79.86907159860831 79.07800769089911 78.50668375755356 78.13312580113532 77.36403589086248 77.03442592931697 76.63889397546237 76.0895440395532 75.6940120856986 75.16663614722579 74.61728621131661 74.24372825489837 73.6943783189892 73.07910639077092 72.50778245742538 71.8925105292071 71.47500457791614 71.07947262406154 70.44222669840688 69.87090276506135 69.05786485991577 68.46456692913387 67.91521699322467 67.23402307269731 66.92638710858817 66.00347921626076 65.36623329060612 64.94872733931514 64.3114814136605 63.915949459805894 63.432521516205824 62.993041567478485 62.68540560336935 62.28987364951474 61.89434169566014 61.6526277238601 61.30104376487823 61.08130379051456 60.663797839223584 60.40010986998718 60.290239882805345 60.026551913568944 59.47720197765977 59.191540010987 58.90587804431423 58.62021607764146 58.24665812122322 57.80717817249588 57.47756821095037 56.906244277604834 56.13715436733199 56.07123237502289 55.34609045962278 54.95055850576817 54.37923457242263 53.829884636513455 53.456326680095216 52.97289873649515 52.46749679545871 52.1378868339132 51.63248489287676 51.28090093389489 50.81944698773118 50.226149056949275 49.852591100531036 49.544955136421905 49.19337117744003 48.60007324665812 48.16059329793078 47.74308734663981 47.3475553927852 46.842153451748764 46.534517487639626 46.16095953122139 45.69950558505768 45.21607764145761 44.64475370811206 44.271195751693824 43.831715802966485 43.282365867057315 42.90880791063908 42.38143197216627 41.98590001831167 41.54642006958433 41.019044131111514 40.68943416956601 40.184032228529574 39.788500274674966 39.370994323384 39.12928035158396 38.88756637978392 38.44808643105658 38.14045046694744 37.85478850027467 37.54715253616554 37.195568577183664 36.931880607947264 36.668192638710856 36.316608679728986 35.921076725874386 35.52554477201978 35.26185680278337 34.82237685405603 34.31697491301959 34.009338948910454 33.723676982237684 33.438015015564915 33.086431056583045 32.60300311298297 32.36128914118294 32.00970518220106 31.65812122321919 31.30653726423732 31.042849295000916 30.801135323200878 30.44955136421901 30.163889397546235 29.8562534334371 29.680461453946165 29.41677348470976 29.262955502655192 28.999267533418788 28.933345541109688 28.71360556674602 28.49386559238235 28.362021607764145 28.16425563083684 28.03241164621864 27.768723676982237 27.570957700054933 27.483061710309467 27.351217725691264 27.17542574620033 27.04358176158213 26.845815784654825 26.757919794909355 26.648049807727524 26.58212781541842 26.538179820545686 26.494231825672955 26.406335835927486 26.36238784105475 26.29646584874565 26.23054385643655 26.164621864127447 26.07672587438198 26.054751876945616 25.966855887200147 25.900933894891047 25.900933894891047 25.922907892327412 25.922907892327412 25.944881889763778 25.922907892327412 25.922907892327412 25.900933894891047 25.900933894891047 25.922907892327412 25.922907892327412 25.922907892327412 25.922907892327412 25.922907892327412 25.900933894891047 25.900933894891047 25.900933894891047 25.900933894891047 25.900933894891047 25.900933894891047 25.900933894891047 25.900933894891047 25.900933894891047 25.900933894891047 25.900933894891047 25.900933894891047 25.900933894891047 25.900933894891047 25.900933894891047 25.900933894891047 25.900933894891047 25.900933894891047 25.900933894891047 25.900933894891047 25.900933894891047 25.900933894891047 25.900933894891047 25.900933894891047 25.900933894891047 25.900933894891047 25.900933894891047 25.900933894891047 25.900933894891047 25.900933894891047 25.878959897454678 25.900933894891047 25.900933894891047 25.900933894891047 25.900933894891047 25.900933894891047 25.900933894891047 25.900933894891047 25.900933894891047 25.900933894891047 25.900933894891047 25.900933894891047 25.900933894891047 25.900933894891047 25.878959897454678 25.900933894891047 25.900933894891047 25.878959897454678 25.900933894891047 25.900933894891047 25.878959897454678 25.900933894891047 25.900933894891047 25.900933894891047 25.878959897454678 25.900933894891047 25.900933894891047 25.900933894891047 25.878959897454678 25.878959897454678 25.878959897454678 25.878959897454678 25.878959897454678 25.878959897454678 25.878959897454678 25.900933894891047 25.878959897454678 25.878959897454678 25.900933894891047 25.878959897454678 25.900933894891047 25.878959897454678 25.878959897454678 25.900933894891047 25.900933894891047 25.878959897454678 25.878959897454678 25.878959897454678 25.878959897454678 25.878959897454678 25.878959897454678 25.878959897454678 25.878959897454678 25.878959897454678 25.878959897454678 25.878959897454678 25.878959897454678 25.878959897454678 25.878959897454678 25.878959897454678 25.878959897454678 25.878959897454678 25.878959897454678 25.878959897454678 25.878959897454678 25.878959897454678 25.878959897454678 25.878959897454678 25.900933894891047 25.900933894891047 25.878959897454678 25.900933894891047 25.878959897454678 25.900933894891047 25.900933894891047 25.878959897454678 25.900933894891047 25.878959897454678 25.900933894891047 