25.0 25.0 25.0 25.0 24.978026002563634 25.0 24.978026002563634 25.0 25.0 24.978026002563634 24.978026002563634 24.978026002563634 24.978026002563634 24.978026002563634 24.978026002563634 24.978026002563634 25.0 24.978026002563634 25.0 24.978026002563634 24.978026002563634 24.978026002563634 24.978026002563634 25.0 25.0 24.978026002563634 25.0 25.0 25.0 25.0 25.0 25.0 25.0 24.978026002563634 25.0 25.0 25.0 24.978026002563634 24.978026002563634 24.978026002563634 24.978026002563634 24.978026002563634 24.978026002563634 24.978026002563634 24.978026002563634 24.978026002563634 24.978026002563634 24.978026002563634 24.978026002563634 24.978026002563634 24.978026002563634 24.978026002563634 24.978026002563634 24.956052005127265 24.978026002563634 24.978026002563634 24.956052005127265 24.956052005127265 24.956052005127265 24.978026002563634 24.956052005127265 24.978026002563634 24.956052005127265 24.978026002563634 24.956052005127265 24.956052005127265 24.978026002563634 24.956052005127265 24.978026002563634 24.956052005127265 24.956052005127265 24.956052005127265 24.956052005127265 24.956052005127265 24.956052005127265 24.956052005127265 24.956052005127265 24.956052005127265 24.956052005127265 24.956052005127265 24.956052005127265 24.9340780076909 24.956052005127265 24.956052005127265 24.956052005127265 24.956052005127265 24.9340780076909 24.956052005127265 24.9340780076909 24.956052005127265 24.956052005127265 24.956052005127265 24.956052005127265 24.9340780076909 24.9340780076909 24.9340780076909 24.9340780076909 24.9340780076909 24.9340780076909 24.9340780076909 24.9340780076909 24.9340780076909 24.9340780076909 24.9340780076909 24.9340780076909 24.91210401025453 24.9340780076909 24.9340780076909 24.9340780076909 24.9340780076909 24.91210401025453 24.91210401025453 24.91210401025453 24.91210401025453 24.91210401025453 24.91210401025453 24.91210401025453 24.91210401025453 24.91210401025453 24.91210401025453 24.91210401025453 24.91210401025453 24.91210401025453 24.91210401025453 24.91210401025453 24.91210401025453 24.91210401025453 24.91210401025453 24.91210401025453 24.91210401025453 24.91210401025453 24.91210401025453 24.91210401025453 24.91210401025453 24.91210401025453 24.890130012818165 24.91210401025453 24.890130012818165 24.890130012818165 24.890130012818165 24.890130012818165 24.890130012818165 24.890130012818165 24.890130012818165 24.890130012818165 24.890130012818165 24.890130012818165 24.890130012818165 24.890130012818165 24.890130012818165 24.890130012818165 24.890130012818165 24.890130012818165 24.890130012818165 24.890130012818165 24.8681560153818 24.890130012818165 24.890130012818165 24.890130012818165 24.890130012818165 24.890130012818165 24.890130012818165 24.890130012818165 24.890130012818165 24.890130012818165 24.890130012818165 24.890130012818165 24.890130012818165 24.890130012818165 24.8681560153818 24.890130012818165 24.890130012818165 24.890130012818165 24.890130012818165 24.890130012818165 24.890130012818165 24.890130012818165 24.890130012818165 24.890130012818165 24.890130012818165 24.890130012818165 24.890130012818165 24.890130012818165 24.890130012818165 24.8681560153818 24.890130012818165 24.8681560153818 24.890130012818165 24.8681560153818 24.8681560153818 24.8681560153818 24.8681560153818 24.8681560153818 24.8681560153818 24.8681560153818 24.8681560153818 24.8681560153818 24.8681560153818 24.8681560153818 24.8681560153818 24.8681560153818 24.8681560153818 24.8681560153818 24.8681560153818 24.8681560153818 24.8681560153818 24.84618201794543 24.84618201794543 24.8681560153818 24.84618201794543 24.84618201794543 24.84618201794543 24.84618201794543 24.84618201794543 24.8681560153818 24.84618201794543 24.8681560153818 24.84618201794543 24.84618201794543 24.8681560153818 24.84618201794543 24.84618201794543 24.84618201794543 24.84618201794543 24.84618201794543 24.84618201794543 24.84618201794543 24.84618201794543 24.84618201794543 24.84618201794543 24.8681560153818 24.84618201794543 24.84618201794543 24.84618201794543 24.8681560153818 24.84618201794543 24.84618201794543 24.84618201794543 24.84618201794543 24.84618201794543 24.84618201794543 24.84618201794543 24.84618201794543 24.84618201794543 24.84618201794543 24.84618201794543 24.84618201794543 24.84618201794543 24.84618201794543 24.84618201794543 24.84618201794543 24.84618201794543 24.84618201794543 24.84618201794543 24.84618201794543 24.84618201794543 24.84618201794543 24.84618201794543 24.84618201794543 24.84618201794543 24.84618201794543 24.84618201794543 24.84618201794543 24.84618201794543 24.84618201794543 24.84618201794543 24.84618201794543 24.84618201794543 24.84618201794543 24.84618201794543 24.84618201794543 24.84618201794543 24.84618201794543 24.84618201794543 24.84618201794543 24.824208020509065 24.84618201794543 24.824208020509065 24.824208020509065 24.84618201794543 24.84618201794543 24.84618201794543 24.824208020509065 24.84618201794543 24.824208020509065 24.824208020509065 24.84618201794543 24.824208020509065 24.824208020509065 24.824208020509065 24.824208020509065 24.824208020509065 24.824208020509065 24.824208020509065 24.824208020509065 24.824208020509065 24.824208020509065 24.824208020509065 24.824208020509065 24.824208020509065 24.84618201794543 24.824208020509065 24.84618201794543 24.824208020509065 24.84618201794543 24.824208020509065 24.824208020509065 24.84618201794543 24.824208020509065 24.824208020509065 24.824208020509065 24.824208020509065 24.824208020509065 24.84618201794543 24.824208020509065 24.824208020509065 24.824208020509065 24.824208020509065 24.824208020509065 24.824208020509065 24.84618201794543 24.824208020509065 24.824208020509065 24.824208020509065 24.824208020509065 24.824208020509065 24.824208020509065 24.84618201794543 24.824208020509065 24.824208020509065 24.824208020509065 24.824208020509065 24.824208020509065 24.824208020509065 24.824208020509065 24.824208020509065 24.824208020509065 24.824208020509065 24.824208020509065 24.824208020509065 24.824208020509065 24.824208020509065 24.824208020509065 24.84618201794543 24.84618201794543 24.824208020509065 24.824208020509065 24.824208020509065 24.824208020509065 24.824208020509065 24.824208020509065 24.824208020509065 24.824208020509065 24.824208020509065 24.824208020509065 24.824208020509065 24.824208020509065 24.824208020509065 24.824208020509065 24.824208020509065 24.824208020509065 24.824208020509065 24.824208020509065 24.824208020509065 24.824208020509065 24.824208020509065 24.824208020509065 24.824208020509065 24.824208020509065 24.824208020509065 24.824208020509065 24.824208020509065 24.824208020509065 24.824208020509065 24.824208020509065 24.824208020509065 24.824208020509065 24.824208020509065 24.824208020509065 24.824208020509065 24.824208020509065 24.824208020509065 24.824208020509065 24.824208020509065 24.824208020509065 24.824208020509065 24.824208020509065 24.824208020509065 24.824208020509065 24.824208020509065 24.824208020509065 24.824208020509065 24.824208020509065 24.824208020509065 24.824208020509065 24.824208020509065 24.824208020509065 24.824208020509065 24.84618201794543 24.824208020509065 24.824208020509065 24.824208020509065 24.824208020509065 24.824208020509065 24.824208020509065 24.824208020509065 24.824208020509065 24.824208020509065 24.824208020509065 24.824208020509065 24.824208020509065 24.824208020509065 24.824208020509065 24.824208020509065 24.824208020509065 24.824208020509065 24.824208020509065 24.824208020509065 24.824208020509065 24.824208020509065 24.824208020509065 24.824208020509065 24.824208020509065 24.824208020509065 24.824208020509065 24.824208020509065 24.824208020509065 24.824208020509065 24.824208020509065 24.824208020509065 24.824208020509065 24.824208020509065 24.824208020509065 24.824208020509065 24.824208020509065 24.824208020509065 24.824208020509065 24.824208020509065 24.824208020509065 24.824208020509065 24.824208020509065 24.824208020509065 24.824208020509065 24.824208020509065 24.824208020509065 24.824208020509065 24.824208020509065 24.824208020509065 24.824208020509065 24.824208020509065 24.824208020509065 24.824208020509065 24.824208020509065 24.824208020509065 24.824208020509065 24.824208020509065 24.824208020509065 24.824208020509065 24.824208020509065 24.824208020509065 24.824208020509065 24.824208020509065 24.824208020509065 24.824208020509065 24.824208020509065 24.824208020509065 24.824208020509065 24.824208020509065 24.824208020509065 24.824208020509065 24.824208020509065 24.824208020509065 24.824208020509065 24.824208020509065 24.824208020509065 24.824208020509065 24.824208020509065 24.824208020509065 24.824208020509065 24.802234023072696 24.824208020509065 24.824208020509065 24.824208020509065 24.824208020509065 24.824208020509065 24.802234023072696 24.802234023072696 24.802234023072696 24.824208020509065 24.824208020509065 24.802234023072696 24.824208020509065 24.824208020509065 24.802234023072696 24.802234023072696 24.802234023072696 24.802234023072696 24.802234023072696 24.802234023072696 24.824208020509065 24.802234023072696 24.802234023072696 24.802234023072696 24.802234023072696 24.802234023072696 24.824208020509065 24.802234023072696 24.802234023072696 24.802234023072696 24.802234023072696 24.802234023072696 24.802234023072696 24.802234023072696 24.802234023072696 24.824208020509065 24.824208020509065 24.802234023072696 24.802234023072696 24.802234023072696 24.802234023072696 24.802234023072696 24.802234023072696 24.802234023072696 24.802234023072696 24.802234023072696 24.802234023072696 24.824208020509065 24.802234023072696 24.802234023072696 24.802234023072696 24.802234023072696 24.802234023072696 24.802234023072696 24.802234023072696 24.802234023072696 24.802234023072696 24.802234023072696 24.802234023072696 24.802234023072696 24.802234023072696 24.802234023072696 24.802234023072696 24.802234023072696 24.802234023072696 24.802234023072696 24.802234023072696 24.802234023072696 24.802234023072696 24.802234023072696 24.802234023072696 24.802234023072696 24.802234023072696 24.802234023072696 24.802234023072696 24.802234023072696 24.802234023072696 24.802234023072696 24.802234023072696 24.802234023072696 24.802234023072696 24.802234023072696 24.802234023072696 24.802234023072696 24.802234023072696 24.802234023072696 24.802234023072696 24.802234023072696 24.802234023072696 24.802234023072696 24.802234023072696 24.802234023072696 24.802234023072696 24.802234023072696 24.802234023072696 24.802234023072696 24.802234023072696 24.802234023072696 24.802234023072696 24.802234023072696 24.802234023072696 24.802234023072696 24.802234023072696 24.802234023072696 24.802234023072696 24.802234023072696 24.802234023072696 24.802234023072696 24.802234023072696 24.802234023072696 24.802234023072696 24.802234023072696 24.802234023072696 24.802234023072696 24.802234023072696 24.802234023072696 24.802234023072696 24.802234023072696 24.802234023072696 24.802234023072696 24.802234023072696 24.802234023072696 24.802234023072696 24.802234023072696 24.802234023072696 24.802234023072696 24.802234023072696 24.802234023072696 24.802234023072696 24.802234023072696 24.802234023072696 24.802234023072696 24.802234023072696 24.802234023072696 24.802234023072696 24.802234023072696 24.802234023072696 24.802234023072696 24.802234023072696 24.802234023072696 24.802234023072696 24.802234023072696 24.802234023072696 24.802234023072696 24.802234023072696 24.802234023072696 24.802234023072696 24.802234023072696 24.802234023072696 24.802234023072696 24.802234023072696 24.802234023072696 24.802234023072696 24.802234023072696 24.802234023072696 24.802234023072696 24.802234023072696 24.802234023072696 24.802234023072696 24.802234023072696 24.802234023072696 24.802234023072696 24.802234023072696 24.802234023072696 24.802234023072696 24.802234023072696 24.802234023072696 24.802234023072696 24.802234023072696 24.802234023072696 24.802234023072696 24.802234023072696 24.802234023072696 24.802234023072696 24.802234023072696 24.802234023072696 24.802234023072696 24.802234023072696 24.802234023072696 24.802234023072696 24.802234023072696 24.802234023072696 24.802234023072696 24.802234023072696 24.802234023072696 24.802234023072696 24.802234023072696 24.802234023072696 24.802234023072696 24.802234023072696 24.802234023072696 24.802234023072696 24.802234023072696 24.802234023072696 24.802234023072696 24.802234023072696 24.802234023072696 24.802234023072696 24.802234023072696 24.802234023072696 24.802234023072696 24.802234023072696 24.802234023072696 24.802234023072696 24.802234023072696 24.802234023072696 24.802234023072696 24.802234023072696 24.802234023072696 24.802234023072696 24.802234023072696 24.802234023072696 24.802234023072696 24.802234023072696 24.802234023072696 24.802234023072696 24.802234023072696 24.802234023072696 24.802234023072696 24.802234023072696 24.802234023072696 24.802234023072696 24.802234023072696 24.802234023072696 24.802234023072696 24.802234023072696 24.802234023072696 24.802234023072696 24.802234023072696 24.802234023072696 24.802234023072696 24.802234023072696 24.802234023072696 24.802234023072696 24.802234023072696 24.802234023072696 24.802234023072696 24.802234023072696 24.802234023072696 24.802234023072696 24.802234023072696 24.802234023072696 24.802234023072696 24.802234023072696 24.802234023072696 24.802234023072696 24.802234023072696 24.802234023072696 24.802234023072696 24.802234023072696 24.802234023072696 24.802234023072696 24.802234023072696 24.802234023072696 24.802234023072696 24.802234023072696 24.802234023072696 24.802234023072696 24.802234023072696 24.802234023072696 24.802234023072696 24.802234023072696 24.802234023072696 24.802234023072696 24.802234023072696 24.802234023072696 24.802234023072696 24.802234023072696 24.802234023072696 24.802234023072696 24.802234023072696 24.802234023072696 24.802234023072696 24.802234023072696 24.802234023072696 24.802234023072696 24.802234023072696 24.802234023072696 24.802234023072696 24.802234023072696 24.802234023072696 24.802234023072696 24.802234023072696 24.78026002563633 24.802234023072696 24.802234023072696 24.802234023072696 24.802234023072696 24.802234023072696 24.802234023072696 24.802234023072696 24.802234023072696 24.802234023072696 24.802234023072696 24.802234023072696 24.802234023072696 24.802234023072696 24.802234023072696 24.802234023072696 24.802234023072696 24.802234023072696 24.802234023072696 24.802234023072696 24.802234023072696 24.802234023072696 24.802234023072696 24.802234023072696 24.802234023072696 24.802234023072696 24.802234023072696 24.802234023072696 24.802234023072696 24.802234023072696 24.802234023072696 24.802234023072696 24.802234023072696 24.802234023072696 24.802234023072696 24.78026002563633 24.802234023072696 24.802234023072696 24.802234023072696 24.802234023072696 24.802234023072696 24.802234023072696 24.802234023072696 24.802234023072696 24.802234023072696 24.802234023072696 24.802234023072696 24.802234023072696 24.802234023072696 24.802234023072696 24.802234023072696 24.802234023072696 24.802234023072696 24.802234023072696 24.802234023072696 24.802234023072696 24.802234023072696 24.802234023072696 24.78026002563633 24.802234023072696 24.802234023072696 24.802234023072696 24.802234023072696 24.802234023072696 24.802234023072696 24.802234023072696 24.802234023072696 24.802234023072696 24.78026002563633 24.78026002563633 24.802234023072696 24.78026002563633 24.802234023072696 24.78026002563633 24.802234023072696 24.78026002563633 24.802234023072696 24.802234023072696 24.802234023072696 24.78026002563633 24.802234023072696 24.802234023072696 24.802234023072696 24.78026002563633 24.78026002563633 24.802234023072696 24.802234023072696 24.802234023072696 24.78026002563633 24.78026002563633 24.802234023072696 24.802234023072696 24.802234023072696 24.78026002563633 24.802234023072696 24.78026002563633 24.802234023072696 24.78026002563633 24.78026002563633 24.802234023072696 24.802234023072696 24.802234023072696 24.78026002563633 24.802234023072696 24.78026002563633 24.802234023072696 24.802234023072696 24.78026002563633 24.802234023072696 24.78026002563633 24.78026002563633 24.78026002563633 24.78026002563633 24.78026002563633 24.802234023072696 24.78026002563633 24.802234023072696 24.78026002563633 24.78026002563633 24.802234023072696 24.78026002563633 24.78026002563633 24.802234023072696 24.78026002563633 24.802234023072696 24.78026002563633 24.802234023072696 24.78026002563633 24.78026002563633 24.802234023072696 24.802234023072696 24.78026002563633 24.78026002563633 24.802234023072696 24.802234023072696 24.78026002563633 24.78026002563633 24.78026002563633 24.78026002563633 24.78026002563633 24.802234023072696 24.78026002563633 24.78026002563633 24.78026002563633 24.78026002563633 24.78026002563633 24.802234023072696 24.802234023072696 24.78026002563633 24.802234023072696 24.78026002563633 24.78026002563633 24.78026002563633 24.78026002563633 24.78026002563633 24.802234023072696 24.78026002563633 24.802234023072696 24.78026002563633 24.802234023072696 24.78026002563633 24.78026002563633 24.78026002563633 24.802234023072696 24.78026002563633 24.802234023072696 24.802234023072696 24.78026002563633 24.78026002563633 24.78026002563633 24.78026002563633 24.78026002563633 24.78026002563633 24.78026002563633 24.78026002563633 24.78026002563633 24.78026002563633 24.78026002563633 24.802234023072696 24.78026002563633 24.78026002563633 24.78026002563633 24.78026002563633 24.802234023072696 24.78026002563633 24.78026002563633 24.78026002563633 24.78026002563633 24.78026002563633 24.78026002563633 24.78026002563633 24.78026002563633 24.78026002563633 24.78026002563633 24.78026002563633 24.802234023072696 24.802234023072696 24.78026002563633 24.78026002563633 24.78026002563633 24.78026002563633 24.78026002563633 24.78026002563633 24.78026002563633 24.78026002563633 24.78026002563633 24.78026002563633 24.802234023072696 24.78026002563633 24.78026002563633 24.78026002563633 24.78026002563633 24.78026002563633 24.78026002563633 24.78026002563633 24.78026002563633 24.78026002563633 24.78026002563633 24.78026002563633 24.802234023072696 24.78026002563633 24.78026002563633 24.78026002563633 24.78026002563633 24.802234023072696 24.78026002563633 24.78026002563633 24.802234023072696 24.78026002563633 24.78026002563633 24.78026002563633 24.78026002563633 24.78026002563633 24.802234023072696 24.802234023072696 24.78026002563633 24.802234023072696 24.78026002563633 24.802234023072696 24.78026002563633 24.78026002563633 24.78026002563633 24.78026002563633 24.78026002563633 24.78026002563633 24.78026002563633 24.78026002563633 24.78026002563633 24.802234023072696 24.78026002563633 24.802234023072696 24.78026002563633 24.78026002563633 24.78026002563633 24.78026002563633 24.802234023072696 24.78026002563633 24.78026002563633 24.802234023072696 24.802234023072696 24.78026002563633 24.78026002563633 24.78026002563633 24.78026002563633 24.78026002563633 24.78026002563633 24.78026002563633 24.78026002563633 24.78026002563633 24.802234023072696 24.78026002563633 24.78026002563633 24.78026002563633 24.78026002563633 24.802234023072696 24.802234023072696 24.802234023072696 24.802234023072696 24.802234023072696 24.802234023072696 24.824208020509065 24.84618201794543 24.8681560153818 24.890130012818165 24.91210401025453 24.9340780076909 24.9340780076909 24.956052005127265 24.956052005127265 24.956052005127265 24.956052005127265 24.978026002563634 25.0 25.0 25.043947994872735 25.0659219923091 25.0659219923091 25.109869987181835 25.1318439846182 25.15381798205457 25.197765976927304 25.30763596410914 25.461453946163708 25.65921992309101 25.769089910272843 25.900933894891047 25.944881889763778 26.054751876945616 26.208569859000182 26.29646584874565 26.340413843618386 26.42830983336385 26.51620582310932 26.757919794909355 26.97765976927303 27.351217725691264 27.834645669291337 27.988463651345906 27.87859366416407 27.81267167185497 28.05438564365501 28.40596960263688 28.84544955136422 29.438747482146127 30.29573338216444 30.998901300128182 32.185497161692 33.284197033510345 34.42684490020143 35.87712873100165 36.822010620765425 38.09650247207471 39.876396264420436 41.39260208752975 42.68906793627541 43.392235854239146 44.820545687603 46.556491485075995 47.85295733382164 49.50100714154917 51.9401208569859 53.368430690349754 54.42318256729537 55.36806445705915 56.26899835195019 57.52151620582311 58.75206006225966 59.894707928950744 60.97143380333272 61.7185497161692 62.905145577733016 63.93792345724226 64.86083134956968 65.95953122138803 66.75059512909723 67.84929500091559 69.12378685222487 69.8928767624977 71.07947262406154 72.13422450100714 73.2329243728255 74.0239882805347 74.90294817798939 76.04559604468047 77.0783739241897 77.80351583958982 79.16590368064458 79.91301959348105 80.57223951657207 81.67093938839041 82.68174327046329 83.31898919611793 84.65940303973632 85.4065189525728 86.35140084233657 87.03259476286395 87.86760666544589 88.7245925654642 89.27394250137338 90.10895440395532 90.81212232191906 91.36147225782824 92.15253616553744 92.67991210401026 93.42702801684673 94.13019593481047 94.63559787584691 95.47060977842887 96.2396996887017 96.74510162973814 97.49221754257462 98.12946346822926 98.48104742721114 98.9644753708112 99.36000732466582 99.64566929133859 99.75553927852042 99.79948727339315 99.79948727339315 99.79948727339315 99.71159128364768 99.51382530672038 99.33803332722945 98.9644753708112 98.61289141182934 98.08551547335652 97.44826954770188 96.85497161691998 96.26167368613807 95.58047976561069 95.03112982970153 94.30598791430141 93.55887200146493 92.7897820911921 91.97674418604652 91.36147225782824 90.70225233473722 89.88921442959166 89.27394250137338 88.13129463468229 87.42812671671855 86.41732283464567 85.51638893975462 84.79124702435452 83.64859915766343 82.72569126533602 82.04449734480863 81.03369346273576 80.17670756271745 78.92418970884452 77.32008789598976 76.44112799853508 75.51822010620765 74.06793627540745 72.9692364035891 71.65079655740706 70.37630470609778 69.07983885735213 67.95916498809743 67.25599707013367 66.377037172679 65.73979124702436 65.01464933162424 64.33345541109688 63.67423548800586 62.839223585423916 61.89434169566014 61.34499175975096 60.575901849478115 59.960629921259844 59.3893059879143 58.88390404687786 58.29060611609595 57.36769822376854 56.70847830067753 55.78557040835012 54.90661051089544 54.51107855704083 53.67606665445889 52.68723676982238 51.91814685954954 50.270097051822006 49.69877311847647 49.14942318256729 48.20454129280351 47.83098333638527 46.754257462003295 45.89727156198498 45.43581761582128 44.84251968503937 44.139351767075624 43.633949826039185 43.08459989013001 42.798937923457245 42.24958798754807 41.72221204907526 41.52444607214796 40.97509613623878 40.42574620032961 39.876396264420436 38.75572239516572 38.36019044131112 38.03058047976561 37.59110053103827 36.975828602819995 36.602270646401756 35.67936275407435 35.0421168284197 34.31697491301959 33.767624977110415 33.064457059146676 32.47115912836477 32.1195751693829 31.50430324116462 30.86705731550998 30.339681377037174 29.680461453946165 29.350851492400658 28.77952755905512 28.40596960263688 28.03241164621864 27.527009705182202 26.88976377952756 26.648049807727524 26.560153817982055 26.472257828236586 26.45028383080022 26.42830983336385 26.67002380516389 27.153451748763963 27.834645669291337 28.449917597509614 29.592565464200696 30.42757736678264 31.174693279619117 32.2514191540011 33.130379051455776 34.11920893609229 34.99816883354697 35.70133675151071 36.975828602819995 37.7009705182201 38.44808643105658 39.4369163156931 40.29390221571141 41.50247207471159 42.44735396447537 43.91961179271196 44.93041567478484 45.919245559421356 47.017945431239696 47.91887932613075 49.2812671671855 51.17103094671306 51.83025086980406 53.060794726240616 54.22541659036806 55.03845449551364 56.20307635964109 57.21388024171397 58.04889214429592 59.191540010987 60.004577916132575 61.32301776231459 63.300677531587624 64.88280534700604 65.82768723676982 66.83849111884271 68.00311298297015 69.84892876762498 71.01355063175242 73.16700238051638 74.92492217542575 76.11151803698957 77.64969785753524 78.5506317524263 79.71525361655375 81.58304339864495 82.65976927302691 83.7364951474089 85.23072697308186 86.19758286028201 87.49404870902765 88.74656656290057 89.62552646035525 90.87804431422816 91.80095220655558 93.09741805530123 94.24006592199231 95.53653177073797 96.65720563999268 97.38234755539278 98.12946346822926 99.49185130928402 100.15107123237502 100.74436916315693 101.93096502472075 102.65610694012085 103.38124885552097 103.86467679912104 104.69968870170298 105.4248306171031 106.01812854788501 106.63340047610328 107.31459439663065 107.79802234023073 108.41329426844901 108.80882622230361 109.31422816334005 109.70976011719466 109.88555209668559 110.06134407617652 110.08331807361289 110.10529207104926 110.06134407617652 109.92950009155832 109.79765610694012 109.49002014283099 109.09448818897638 108.63303424281267 108.2814502838308 107.73210034792163 107.07288042483061 106.61142647866691 105.90825856070316 105.13916865043032 104.54587071964842 103.84270280168467 103.0296648965391 102.43636696575719 101.66727705548435 101.05200512726607 100.1730452298114 99.38198132210218 98.7007874015748 98.1074894707929 97.05273759384728 96.21772569126534 95.93206372459257 95.11902581944699 94.52572788866507 93.62479399377403 92.70188610144663 91.77897820911922 90.7242263321736 90.02105841420986 89.09815052188245 88.48287859366417 87.66984068851858 86.68101080388207 85.84599890130013 84.43966306537266 83.62662516022706 82.96740523713606 81.89067936275407 81.2754074345358 80.70408350119027 79.80314960629921 78.90221571140816 78.19904779344444 77.32008789598976 76.52902398828054 75.75993407800769 75.21058414209853 74.61728621131661 73.93609229078925 73.40871635231643 72.39791247024354 71.93645852407984 71.18934261124336 70.39827870353415 69.84892876762498 69.1018128547885 68.28877494964291 67.40981505218824 66.92638710858817 66.377037172679 65.60794726240616 64.83885735213332 63.981871452114994 63.344625526460355 62.55356161875115 61.69657571873283 60.97143380333272 60.33418787767808 58.73008606482329 58.00494414942318 57.257828236586704 56.13715436733199 55.23622047244095 54.5330525544772 53.456326680095216 52.68723676982238 51.5445889031313 50.42391503387658 49.479033144112805 48.70994323383995 47.50137337483977 47.061893426112434 46.16095953122139 45.45779161325764 44.38106573887566 43.54605383629372 42.864859915766345 41.94195202343893 41.41457608496612 40.79930415674785 40.052188243911374 39.15125434902033 38.66782640542025 37.7009705182201 37.1735945797473 36.316608679728986 35.56949276689251 34.95422083867423 34.16315693096502 33.438015015564915 33.064457059146676 32.47115912836477 32.00970518220106 31.394433253982786 30.976927302691813 30.317707379600805 29.724409448818896 29.284929500091557 28.603735579564184 27.724775682109502 27.548983702618568 26.45028383080022 26.186595861563816 25.988829884636512 25.681193920527377 25.35158395898187 25.109869987181835 25.0 25.175791979490935 25.417505951290973 25.417505951290973 25.43947994872734 25.747115912836477 25.769089910272843 25.65921992309101 25.549349935909174 25.43947994872734 25.35158395898187 25.30763596410914 25.28566196667277 25.241713971800035 25.197765976927304 25.175791979490935 25.175791979490935 25.15381798205457 25.15381798205457 25.15381798205457 25.15381798205457 25.15381798205457 25.1318439846182 25.1318439846182 25.1318439846182 25.1318439846182 25.1318439846182 25.109869987181835 25.109869987181835 25.08789598974547 25.08789598974547 25.0659219923091 25.0659219923091 25.0659219923091 25.043947994872735 25.043947994872735 25.043947994872735 25.043947994872735 25.043947994872735 25.043947994872735 25.043947994872735 25.043947994872735 25.043947994872735 25.043947994872735 25.043947994872735 25.043947994872735 25.043947994872735 25.043947994872735 25.043947994872735 25.043947994872735 25.043947994872735 25.043947994872735 25.043947994872735 25.043947994872735 25.043947994872735 25.043947994872735 25.043947994872735 25.043947994872735 25.043947994872735 25.043947994872735 25.043947994872735 25.043947994872735 25.043947994872735 25.043947994872735 25.043947994872735 25.043947994872735 25.021973997436366 25.043947994872735 25.021973997436366 25.021973997436366 25.043947994872735 25.021973997436366 25.021973997436366 25.021973997436366 25.021973997436366 25.021973997436366 25.043947994872735 25.021973997436366 25.021973997436366 25.021973997436366 25.021973997436366 25.021973997436366 25.043947994872735 25.043947994872735 25.021973997436366 25.021973997436366 25.021973997436366 25.021973997436366 25.021973997436366 25.021973997436366 25.021973997436366 25.021973997436366 25.021973997436366 25.043947994872735 25.043947994872735 25.021973997436366 25.021973997436366 25.021973997436366 25.021973997436366 25.021973997436366 25.021973997436366 25.021973997436366 25.021973997436366 25.021973997436366 25.021973997436366 25.021973997436366 25.021973997436366 25.021973997436366 25.021973997436366 25.021973997436366 25.043947994872735 25.021973997436366 25.043947994872735 25.021973997436366 25.021973997436366 25.043947994872735 25.021973997436366 25.021973997436366 25.021973997436366 25.021973997436366 25.021973997436366 25.021973997436366 25.021973997436366 25.021973997436366 25.021973997436366 25.021973997436366 25.021973997436366 25.021973997436366 25.021973997436366 25.021973997436366 25.021973997436366 25.021973997436366 25.021973997436366 25.021973997436366 25.021973997436366 25.021973997436366 25.021973997436366 25.021973997436366 25.021973997436366 25.021973997436366 25.021973997436366 25.021973997436366 25.021973997436366 25.021973997436366 25.021973997436366 25.021973997436366 25.021973997436366 25.021973997436366 25.021973997436366 25.021973997436366 25.021973997436366 25.021973997436366 25.021973997436366 25.021973997436366 25.021973997436366 25.0 25.021973997436366 25.021973997436366 25.021973997436366 25.021973997436366 25.021973997436366 25.021973997436366 25.021973997436366 25.021973997436366 25.021973997436366 25.021973997436366 25.021973997436366 25.021973997436366 25.0 25.021973997436366 25.021973997436366 25.021973997436366 25.021973997436366 25.0 25.021973997436366 25.021973997436366 25.021973997436366 25.0 25.021973997436366 25.021973997436366 25.021973997436366 25.021973997436366 25.021973997436366 25.021973997436366 25.021973997436366 25.021973997436366 25.021973997436366 25.0 25.021973997436366 25.0 25.0 25.0 25.0 25.0 25.021973997436366 25.0 25.0 25.0 25.0 25.0 25.0 25.0 25.0 25.0 25.0 25.0 25.021973997436366 25.0 25.0 25.0 25.0 25.0 25.0 25.0 25.0 25.0 25.0 25.0 25.0 25.0 25.0 25.0 25.0 25.0 25.0 25.0 25.0 25.0 25.0 25.0 25.0 25.0 25.0 25.0 25.0 25.0 25.0 25.0 25.0 25.0 25.0 25.0 25.0 25.0 25.0 24.978026002563634 24.978026002563634 25.0 25.0 24.978026002563634 25.0 25.0 25.0 24.978026002563634 25.0 25.0 25.0 24.978026002563634 25.0 25.0 24.978026002563634 25.0 25.0 25.0 24.978026002563634 24.978026002563634 25.0 25.0 24.978026002563634 24.978026002563634 25.0 24.978026002563634 24.978026002563634 25.0 24.978026002563634 24.978026002563634 25.0 25.0 24.978026002563634 25.0 25.0 25.0 24.978026002563634 25.0 24.978026002563634 24.978026002563634 24.978026002563634 24.978026002563634 25.0 24.978026002563634 24.978026002563634 25.0 25.0 24.978026002563634 25.0 24.978026002563634 25.0 24.978026002563634 24.978026002563634 24.978026002563634 24.978026002563634 24.978026002563634 24.978026002563634 24.978026002563634 25.0 24.978026002563634 24.978026002563634 24.978026002563634 24.978026002563634 24.978026002563634 24.978026002563634 24.978026002563634 24.978026002563634 24.978026002563634 24.978026002563634 25.0 24.978026002563634 24.978026002563634 24.978026002563634 24.978026002563634 25.0 24.978026002563634 24.978026002563634 24.978026002563634 24.978026002563634 25.0 24.978026002563634 24.978026002563634 24.978026002563634 24.978026002563634 24.978026002563634 24.978026002563634 24.978026002563634 24.978026002563634 24.978026002563634 24.978026002563634 24.978026002563634 24.978026002563634 24.978026002563634 24.978026002563634 24.978026002563634 24.978026002563634 24.978026002563634 24.978026002563634 24.978026002563634 24.978026002563634 24.978026002563634 24.978026002563634 24.978026002563634 24.978026002563634 24.978026002563634 24.978026002563634 24.978026002563634 24.978026002563634 24.978026002563634 24.978026002563634 24.978026002563634 24.978026002563634 24.978026002563634 24.978026002563634 24.978026002563634 24.978026002563634 24.978026002563634 24.978026002563634 24.978026002563634 24.978026002563634 24.978026002563634 24.978026002563634 24.978026002563634 24.978026002563634 24.978026002563634 24.978026002563634 24.978026002563634 24.978026002563634 24.978026002563634 24.978026002563634 24.978026002563634 24.978026002563634 24.978026002563634 24.978026002563634 24.978026002563634 24.978026002563634 24.978026002563634 24.978026002563634 24.978026002563634 24.978026002563634 24.978026002563634 24.978026002563634 24.978026002563634 24.978026002563634 24.978026002563634 24.956052005127265 24.956052005127265 24.956052005127265 24.956052005127265 24.956052005127265 24.956052005127265 24.956052005127265 24.956052005127265 24.956052005127265 24.956052005127265 24.956052005127265 24.956052005127265 24.956052005127265 24.956052005127265 24.956052005127265 24.956052005127265 24.956052005127265 24.956052005127265 24.956052005127265 24.956052005127265 24.956052005127265 24.956052005127265 24.956052005127265 24.956052005127265 24.956052005127265 24.956052005127265 24.956052005127265 24.956052005127265 24.956052005127265 24.956052005127265 24.956052005127265 24.956052005127265 24.956052005127265 
