29.0 29.0 29.0 29.0 29.0 29.0 29.0 29.0 29.0 29.0 29.0 29.0 29.0 29.0 29.030763596410914 29.0 29.0 29.0 29.0 29.0 29.0 29.0 29.0 29.0 29.0 29.0 29.0 29.0 29.0 29.0 29.0 29.0 29.0 29.0 29.0 29.0 29.0 29.0 29.0 29.0 29.0 29.0 29.0 29.0 29.0 29.0 29.0 29.0 29.0 29.0 29.0 29.0 29.0 29.0 29.0 29.0 29.0 29.0 29.0 29.0 29.0 29.0 29.0 29.0 29.0 29.0 29.0 29.0 29.0 29.0 29.0 29.0 29.0 29.0 29.0 29.0 29.0 29.0 29.0 29.0 29.0 29.0 29.0 29.0 29.0 29.0 29.0 29.0 29.0 29.0 29.0 29.0 29.0 29.0 29.0 29.0 29.0 29.0 29.0 29.0 29.0 29.0 29.0 29.0 29.0 29.0 29.0 29.0 29.0 29.0 29.0 29.0 29.0 29.0 29.030763596410914 29.0 29.0 29.0 29.0 29.0 29.0 29.0 29.0 29.0 29.0 29.0 29.0 29.0 29.0 29.0 29.0 29.0 29.0 29.0 29.0 29.0 29.0 29.0 29.0 29.0 29.0 29.0 29.0 29.0 29.0 29.0 29.0 29.0 29.0 29.0 29.0 29.0 29.0 29.0 29.0 29.0 29.0 29.0 29.0 29.0 29.030763596410914 29.0 29.0 29.0 29.0 29.0 29.0 29.0 29.0 29.0 29.0 29.0 29.0 29.0 29.0 29.0 29.0 29.0 29.0 29.0 29.0 29.0 29.0 29.0 29.0 29.0 29.0 29.0 29.0 29.0 29.0 29.0 29.0 29.0 29.0 29.0 29.0 29.0 29.0 29.0 29.0 29.0 29.0 29.0 29.0 29.0 29.0 29.0 29.0 29.0 29.0 29.0 29.0 29.0 29.0 29.0 29.0 29.0 29.0 29.0 29.0 29.0 29.0 29.0 29.0 29.0 29.0 29.0 29.0 29.0 29.030763596410914 29.0 29.0 29.0 29.0 29.0 29.0 29.0 29.0 29.0 29.0 29.0 29.0 29.0 29.0 29.0 29.0 29.0 29.030763596410914 29.0 29.0 29.0 29.0 29.0 29.0 29.0 29.0 29.0 29.0 29.0 29.0 29.0 29.0 29.0 29.0 29.0 29.0 29.0 29.0 29.0 29.0 29.0 29.0 29.0 29.0 29.0 29.0 29.0 29.0 29.0 29.0 29.0 29.0 29.0 29.0 29.0 29.0 29.0 29.0 29.0 29.0 29.0 29.0 29.0 29.0 29.0 29.0 29.0 29.0 29.0 29.0 29.0 29.0 29.0 29.0 29.0 29.0 29.0 29.0 29.0 29.0 29.0 29.030763596410914 29.0 29.030763596410914 29.0 29.0 29.0 29.0 29.0 29.0 29.030763596410914 29.0 29.0 29.0 29.0 29.0 29.0 29.0 29.0 29.030763596410914 29.0 29.0 29.0 29.0 29.0 29.0 29.0 29.0 29.0 29.0 29.0 29.0 29.0 29.0 29.0 29.0 29.0 29.0 29.0 29.0 29.0 29.0 29.0 29.0 29.0 29.0 29.0 29.0 29.0 29.0 29.0 29.0 29.0 29.0 29.0 29.0 29.0 29.030763596410914 29.0 29.0 29.0 29.0 29.0 29.0 29.0 29.0 29.0 29.0 29.0 29.030763596410914 29.0 29.0 29.0 29.0 29.0 29.0 29.0 29.0 29.0 29.0 29.0 29.0 29.0 29.0 29.0 29.0 29.0 29.0 29.0 29.0 29.0 29.0 29.0 29.0 29.0 29.0 29.0 29.0 29.0 29.0 29.0 29.0 29.0 29.0 29.0 29.0 29.0 29.0 29.0 29.0 29.0 29.0 29.0 29.0 29.0 29.0 29.0 29.0 29.0 29.0 29.0 29.0 29.0 29.0 29.0 29.0 29.0 29.0 29.0 29.0 29.0 29.0 29.0 29.0 29.0 29.0 29.0 29.0 29.0 29.0 29.030763596410914 29.0 29.0 29.0 29.0 29.0 29.0 29.0 29.0 29.0 29.0 29.0 29.0 29.0 29.0 29.0 29.0 29.0 29.0 29.0 29.0 29.0 29.030763596410914 29.0 29.0 29.0 29.0 29.0 29.0 29.0 29.0 29.0 29.0 29.0 29.0 29.0 29.0 29.0 29.0 29.0 29.0 29.0 29.0 29.0 29.0 29.0 29.0 29.0 29.0 29.0 29.0 29.0 29.0 29.0 29.0 29.0 29.0 29.0 29.0 29.0 29.0 29.0 29.0 29.0 29.0 29.0 29.0 29.0 29.030763596410914 29.0 29.0 29.0 29.0 29.0 29.0 29.0 29.0 29.0 29.0 29.0 29.0 29.0 29.0 29.0 29.0 29.0 29.0 29.0 29.0 29.0 29.0 29.0 29.0 29.0 29.0 29.0 29.0 29.0 29.0 29.0 29.0 29.0 29.0 29.0 29.0 29.0 29.0 29.0 29.0 29.0 29.0 29.0 29.0 29.0 29.0 29.0 29.0 29.030763596410914 29.0 29.0 29.0 29.0 29.0 29.0 29.0 29.0 29.0 29.0 29.0 29.0 29.0 29.0 29.0 29.0 29.0 29.030763596410914 29.061527192821828 29.061527192821828 29.09229078923274 29.123054385643655 29.123054385643655 29.15381798205457 29.15381798205457 29.184581578465483 29.184581578465483 29.184581578465483 29.215345174876397 29.215345174876397 29.24610877128731 29.24610877128731 29.24610877128731 29.276872367698225 29.276872367698225 29.30763596410914 29.30763596410914 29.338399560520052 29.369163156930966 29.39992675334188 29.430690349752794 29.461453946163708 29.522981138985532 29.58450833180736 29.615271928218274 29.6767991210401 29.707562717451015 29.769089910272843 29.799853506683757 29.83061710309467 29.8921442959165 29.953671488738326 30.015198681560154 30.107489470792896 30.169016663614723 30.261307452847465 30.38436183849112 30.47665262772386 30.5689434169566 30.630470609778428 30.72276139901117 30.784288591832997 30.87657938106574 30.96887017029848 31.06116095953122 31.153451748763963 31.245742537996705 31.307269730818533 31.430324116462188 31.522614905694926 31.614905694927668 31.70719648416041 31.830250869804065 31.95330525544772 32.07635964109137 32.19941402673503 32.32246841237868 32.47628639443325 32.63010437648782 32.75315876213148 32.84544955136422 32.99926753341879 32.99926753341879 33.214612708295185 33.460721479582496 33.7068302508698 34.01446621497894 34.075993407800766 34.41439296832082 34.783556125251785 35.12195568577184 35.46035524629189 35.79875480681194 36.1679179637429 36.53708112067387 36.87548068119392 37.18311664530306 37.521516205823104 37.82915216993224 38.13678813404138 38.44442409815052 38.75206006225966 39.028932429957884 39.30580479765611 39.582677165354326 39.85954953305256 40.136421900750776 40.444057864859914 40.75169382896905 41.05932979307819 41.336202160776416 41.64383812488555 41.88994689617286 42.197582860282 42.505218824391136 42.84361838491119 43.0897271561985 43.39736312030763 43.73576268082768 44.04339864493682 44.32027101263505 44.627906976744185 44.935542940853324 45.24317890496246 45.48928767624977 45.735396447537084 46.13532320087896 46.53524995422084 46.81212232191906 47.212049075260936 47.5812122321919 47.85808459989013 48.19648416041018 48.50412012451932 48.84251968503936 49.21168284197033 49.45779161325764 49.82695477018861 50.22688152353049 50.56528108405054 50.87291704815968 51.149789415857896 51.51895257278886 51.76506134407617 51.98040651895257 52.411096868705364 52.718732832814496 52.96484160410181 53.27247756821095 53.48782274308734 53.79545870719648 54.13385826771653 54.34920344259293 54.65683940670207 54.99523896722212 55.24134773850943 55.57974729902948 56.01043764878227 56.25654642006958 56.68723676982238 57.02563633034242 57.48709027650613 57.82548983702618 58.47152536165537 58.96374290422999 59.30214246475004 59.79436000732467 60.28657754989928 60.62497711041934 61.11719465299395 61.45559421351401 61.947811756088626 62.47079289507416 62.83995605200513 63.27064640175792 63.79362754074345 64.16279069767441 64.5627174510163 64.87035341512544 65.27028016846731 65.67020692180918 66.07013367515107 66.47006042849296 66.80845998901299 67.02380516388939 67.2391503387658 67.45449551364219 67.7006042849295 68.03900384544954 68.22358542391504 68.46969419520234 68.71580296648965 68.86962094854422 69.08496612342061 69.33107489470792 69.57718366599524 69.82329243728255 69.97711041933712 70.19245559421351 70.4078007690899 70.59238234755539 70.71543673319906 70.86925471525362 71.11536348654093 71.33070866141732 71.45376304706097 71.7306354147592 71.88445339681377 72.00750778245742 72.13056216810108 72.22285295733383 72.31514374656656 72.49972532503205 72.5920161142648 72.74583409631936 72.86888848196301 72.93041567478483 73.05347006042848 73.17652444607214 73.26881523530488 73.33034242812671 73.36110602453763 73.45339681377037 73.5149240065922 73.60721479582494 73.66874198864676 73.69950558505768 73.79179637429041 73.85332356711226 73.91485075993407 73.94561435634498 74.00714154916682 74.06866874198865 74.13019593481047 74.16095953122138 74.22248672404322 74.25325032045413 74.28401391686504 74.31477751327596 74.34554110968686 74.40706830250869 74.46859549533052 74.49935909174144 74.56088628456325 74.6224134773851 74.6224134773851 74.653177073796 74.68394067020691 74.68394067020691 74.68394067020691 74.68394067020691 74.68394067020691 74.68394067020691 74.71470426661784 74.68394067020691 74.68394067020691 74.71470426661784 74.68394067020691 74.68394067020691 74.68394067020691 74.68394067020691 74.68394067020691 74.68394067020691 74.68394067020691 74.68394067020691 74.68394067020691 74.68394067020691 74.68394067020691 74.653177073796 74.68394067020691 74.653177073796 74.653177073796 74.653177073796 74.6224134773851 74.6224134773851 74.6224134773851 74.6224134773851 74.59164988097417 74.59164988097417 74.59164988097417 74.59164988097417 74.59164988097417 74.59164988097417 74.6224134773851 74.59164988097417 74.59164988097417 74.59164988097417 74.59164988097417 74.59164988097417 74.59164988097417 74.59164988097417 74.56088628456325 74.56088628456325 74.56088628456325 74.56088628456325 74.56088628456325 74.56088628456325 74.53012268815235 74.53012268815235 74.53012268815235 74.53012268815235 74.53012268815235 74.53012268815235 74.53012268815235 74.53012268815235 74.56088628456325 74.53012268815235 74.53012268815235 74.53012268815235 74.53012268815235 74.53012268815235 74.53012268815235 74.53012268815235 74.53012268815235 74.53012268815235 74.53012268815235 74.53012268815235 74.49935909174144 74.49935909174144 74.49935909174144 74.49935909174144 74.49935909174144 74.46859549533052 74.46859549533052 74.43783189891961 74.43783189891961 74.43783189891961 74.43783189891961 74.43783189891961 74.43783189891961 74.43783189891961 74.43783189891961 74.43783189891961 74.43783189891961 74.43783189891961 74.40706830250869 74.40706830250869 74.43783189891961 74.43783189891961 74.40706830250869 74.43783189891961 74.43783189891961 74.43783189891961 74.43783189891961 74.43783189891961 74.43783189891961 74.43783189891961 74.43783189891961 74.43783189891961 74.40706830250869 74.40706830250869 74.43783189891961 74.43783189891961 74.40706830250869 74.40706830250869 74.43783189891961 74.40706830250869 74.43783189891961 74.40706830250869 74.43783189891961 74.43783189891961 74.40706830250869 74.43783189891961 74.43783189891961 74.40706830250869 74.43783189891961 74.43783189891961 74.40706830250869 74.40706830250869 74.40706830250869 74.40706830250869 74.43783189891961 74.40706830250869 74.40706830250869 74.40706830250869 74.40706830250869 74.40706830250869 74.40706830250869 74.40706830250869 74.40706830250869 74.40706830250869 74.40706830250869 74.40706830250869 74.40706830250869 74.40706830250869 74.40706830250869 74.40706830250869 74.40706830250869 74.40706830250869 74.40706830250869 74.40706830250869 74.40706830250869 74.40706830250869 74.40706830250869 74.40706830250869 74.40706830250869 74.40706830250869 74.40706830250869 74.40706830250869 74.40706830250869 74.40706830250869 74.40706830250869 74.40706830250869 74.40706830250869 74.40706830250869 74.40706830250869 74.40706830250869 74.40706830250869 74.40706830250869 74.40706830250869 74.40706830250869 74.40706830250869 74.40706830250869 74.40706830250869 74.37630470609778 74.37630470609778 74.37630470609778 74.34554110968686 74.34554110968686 74.34554110968686 74.34554110968686 74.31477751327596 74.28401391686504 74.28401391686504 74.28401391686504 74.28401391686504 74.25325032045413 74.28401391686504 74.28401391686504 74.28401391686504 74.25325032045413 74.25325032045413 74.25325032045413 74.22248672404322 74.22248672404322 74.1917231276323 74.1917231276323 74.1917231276323 74.1917231276323 74.16095953122138 74.16095953122138 74.16095953122138 74.16095953122138 74.16095953122138 74.16095953122138 74.16095953122138 74.16095953122138 74.16095953122138 74.16095953122138 74.16095953122138 74.16095953122138 74.16095953122138 74.16095953122138 74.16095953122138 74.13019593481047 74.13019593481047 74.13019593481047 74.13019593481047 74.13019593481047 74.13019593481047 74.13019593481047 74.09943233839957 74.13019593481047 74.09943233839957 74.06866874198865 74.03790514557772 74.00714154916682 74.00714154916682 74.00714154916682 74.00714154916682 74.00714154916682 74.00714154916682 74.00714154916682 74.00714154916682 74.00714154916682 74.00714154916682 74.00714154916682 74.00714154916682 73.97637795275591 74.00714154916682 74.00714154916682 74.00714154916682 74.00714154916682 74.00714154916682 74.00714154916682 74.00714154916682 74.00714154916682 74.00714154916682 74.00714154916682 74.00714154916682 74.00714154916682 74.00714154916682 74.00714154916682 74.00714154916682 74.00714154916682 74.00714154916682 73.97637795275591 73.97637795275591 73.97637795275591 73.97637795275591 73.97637795275591 73.97637795275591 73.94561435634498 73.94561435634498 73.88408716352316 73.88408716352316 73.85332356711226 73.85332356711226 73.82255997070132 73.79179637429041 73.79179637429041 73.7610327778795 73.7610327778795 73.7610327778795 73.7610327778795 73.7610327778795 73.7610327778795 73.7610327778795 73.7610327778795 73.7610327778795 73.7610327778795 73.7610327778795 73.7302691814686 73.7302691814686 73.66874198864676 73.60721479582494 73.57645119941402 73.5456876030031 73.48416041018129 73.45339681377037 73.36110602453763 73.29957883171579 73.17652444607214 73.11499725325032 73.05347006042848 73.05347006042848 73.05347006042848 72.99194286760667 72.93041567478483 72.93041567478483 72.86888848196301 72.83812488555209 72.83812488555209 72.80736128914117 72.80736128914117 72.80736128914117 72.77659769273026 72.77659769273026 72.74583409631936 72.71507049990844 72.68430690349753 72.6227797106757 72.56125251785386 72.46896172862114 72.4074345357993 72.34590734297747 72.19208936092289 72.13056216810108 72.03827137886833 71.85368980040286 71.69987181834829 71.5152902398828 71.36147225782824 71.14612708295184 70.80772752243178 70.43856436550081 70.16169199780259 69.76176524446072 69.4848928767625 69.11572971983153 68.77733015931148 68.46969419520234 68.19282182750412 68.00824024903864 67.82365867057315 67.51602270646401 67.30067753158761 66.90075077824574 66.5931148141366 66.37776963926021 66.03937007874015 65.57791613257645 65.45486174693279 65.08569859000184 64.83958981871451 64.47042666178355 64.07049990844168 63.79362754074345 63.39370078740157 62.96301043764878 62.62461087712873 62.37850210584142 62.13239333455411 61.76323017762314 61.39406702069218 61.02490386376122 60.655740706830244 60.40963193554294 60.040468778611974 59.79436000732467 59.51748763962644 58.96374290422999 58.47152536165537 58.19465299395715 57.73319904779344 57.39479948727339 56.964109137520595 56.502655191356894 56.13349203442593 55.67203808826222 55.179820545687605 54.841420985167545 54.31843984618202 53.88774949642922 53.33400476103277 53.026368796923634 52.74949642922542 52.257278886650795 51.76506134407617 51.42666178355613 50.934444240981506 50.442226698406884 49.980772752243176 49.673136788134045 49.39626442043581 48.719465299395715 48.565647317341146 48.13495696758835 47.70426661783556 47.42739425013734 47.05823109320637 46.62754074345358 46.38143197216627 45.91997802600257 45.735396447537084 45.58157846548251 45.30470609778429 45.089360922907886 44.84325215162058 44.474088994689616 44.28950741622413 44.074162241347736 43.7665262772386 43.42812671671855 43.15125434902033 42.905145577733016 42.566746017212964 42.22834645669291 41.9822376854056 41.7668925105292 41.58231093206372 41.36696575718733 41.12085698590002 40.96703900384545 40.75169382896905 40.56711225050357 40.38253067203809 40.1979490935726 40.01336751510712 39.7364951474089 39.49038637612159 39.18275041201245 38.99816883354697 38.75206006225966 38.567478483794176 38.35213330891778 38.19831532686321 37.921442959164985 37.73686138069951 37.58304339864493 37.398461820179456 37.18311664530306 37.02929866324849 36.78318989196118 36.598608313495696 36.29097234938656 35.952572788866505 35.706464017579194 35.27577366782641 35.06042849295001 34.84508331807361 34.537447353964474 34.32210217908808 34.01446621497894 33.76835744369163 33.58377586522615 33.460721479582496 33.33766709393884 33.27613990111701 33.214612708295185 33.18384911188427 33.12232191906244 33.060794726240616 32.99926753341879 32.93774034059696 32.84544955136422 32.814685954953305 32.75315876213148 32.72239516572056 32.69163156930965 32.63010437648782 32.568577183665994 32.47628639443325 32.38399560520051 32.32246841237868 32.32246841237868 32.32246841237868 32.29170481596777 32.29170481596777 32.260941219556855 32.19941402673503 32.19941402673503 32.1378868339132 32.107123237502286 32.07635964109137 32.014832448269544 31.984068851858634 31.95330525544772 31.891778062625892 31.830250869804065 31.737960080571323 31.614905694927668 31.584142098516754 31.491851309284012 31.399560520051274 31.338033327229446 31.245742537996705 31.184215345174877 31.12268815235305 31.091924555942136 31.06116095953122 30.999633766709394 30.938106573887566 30.907342977476652 30.845815784654825 30.753524995422083 30.66123420618934 30.538179820545686 30.47665262772386 30.29207104925838 30.13825306720381 30.107489470792896 30.07672587438198 30.045962277971068 30.045962277971068 30.015198681560154 30.015198681560154 30.015198681560154 29.98443508514924 29.98443508514924 29.953671488738326 29.922907892327412 29.922907892327412 29.8921442959165 29.861380699505585 29.83061710309467 29.799853506683757 29.799853506683757 29.769089910272843 29.769089910272843 29.769089910272843 29.73832631386193 29.73832631386193 29.73832631386193 29.707562717451015 29.73832631386193 29.707562717451015 29.6767991210401 29.707562717451015 29.6767991210401 29.6767991210401 29.646035524629188 29.646035524629188 29.615271928218274 29.615271928218274 29.615271928218274 29.615271928218274 29.58450833180736 29.58450833180736 29.58450833180736 29.58450833180736 29.553744735396446 29.58450833180736 29.58450833180736 29.553744735396446 29.553744735396446 29.553744735396446 29.553744735396446 29.553744735396446 29.553744735396446 29.553744735396446 29.553744735396446 29.553744735396446 29.553744735396446 29.553744735396446 29.553744735396446 29.553744735396446 29.522981138985532 29.522981138985532 29.522981138985532 29.522981138985532 29.522981138985532 29.49221754257462 29.49221754257462 29.461453946163708 29.430690349752794 29.39992675334188 29.39992675334188 29.369163156930966 29.338399560520052 29.338399560520052 29.30763596410914 29.30763596410914 29.276872367698225 29.24610877128731 29.24610877128731 29.24610877128731 29.215345174876397 29.215345174876397 29.24610877128731 29.215345174876397 29.215345174876397 29.215345174876397 29.215345174876397 29.215345174876397 29.215345174876397 29.215345174876397 29.215345174876397 29.215345174876397 29.215345174876397 29.215345174876397 29.215345174876397 29.215345174876397 29.215345174876397 29.215345174876397 29.215345174876397 29.215345174876397 29.215345174876397 29.215345174876397 29.215345174876397 29.215345174876397 29.215345174876397 29.215345174876397 29.215345174876397 29.215345174876397 29.215345174876397 29.215345174876397 29.215345174876397 29.215345174876397 29.215345174876397 29.215345174876397 29.215345174876397 29.215345174876397 29.215345174876397 29.215345174876397 29.215345174876397 29.215345174876397 29.215345174876397 29.215345174876397 29.215345174876397 29.215345174876397 29.215345174876397 29.215345174876397 29.215345174876397 29.215345174876397 29.215345174876397 29.215345174876397 29.215345174876397 29.215345174876397 29.215345174876397 29.215345174876397 29.215345174876397 29.215345174876397 29.215345174876397 29.215345174876397 29.215345174876397 29.215345174876397 29.215345174876397 29.215345174876397 29.215345174876397 29.215345174876397 29.215345174876397 29.215345174876397 29.215345174876397 29.215345174876397 29.215345174876397 29.215345174876397 29.215345174876397 29.215345174876397 29.215345174876397 29.215345174876397 29.184581578465483 29.215345174876397 29.215345174876397 29.215345174876397 29.215345174876397 29.215345174876397 29.215345174876397 29.215345174876397 29.215345174876397 29.215345174876397 29.215345174876397 29.184581578465483 29.184581578465483 29.184581578465483 29.184581578465483 29.215345174876397 29.215345174876397 29.184581578465483 29.184581578465483 29.184581578465483 29.215345174876397 29.215345174876397 29.215345174876397 29.184581578465483 29.184581578465483 29.215345174876397 29.215345174876397 29.184581578465483 29.184581578465483 29.215345174876397 29.184581578465483 29.215345174876397 29.184581578465483 29.215345174876397 29.184581578465483 29.215345174876397 29.184581578465483 29.184581578465483 29.184581578465483 29.184581578465483 29.215345174876397 29.215345174876397 29.215345174876397 29.215345174876397 29.215345174876397 29.215345174876397 29.184581578465483 29.215345174876397 29.184581578465483 29.184581578465483 29.215345174876397 29.184581578465483 29.215345174876397 29.215345174876397 29.215345174876397 29.215345174876397 29.215345174876397 29.215345174876397 29.184581578465483 29.184581578465483 29.215345174876397 29.184581578465483 29.184581578465483 29.215345174876397 29.215345174876397 29.215345174876397 29.184581578465483 29.215345174876397 29.184581578465483 29.184581578465483 29.215345174876397 29.184581578465483 29.184581578465483 29.215345174876397 29.215345174876397 29.215345174876397 29.184581578465483 29.184581578465483 29.184581578465483 29.184581578465483 29.215345174876397 29.215345174876397 29.184581578465483 29.184581578465483 29.184581578465483 29.184581578465483 29.184581578465483 29.184581578465483 29.184581578465483 29.184581578465483 29.184581578465483 29.184581578465483 29.184581578465483 29.184581578465483 29.184581578465483 29.184581578465483 29.184581578465483 29.184581578465483 29.184581578465483 29.184581578465483 29.184581578465483 29.184581578465483 29.184581578465483 29.184581578465483 29.184581578465483 29.184581578465483 29.184581578465483 29.184581578465483 29.184581578465483 29.184581578465483 29.184581578465483 29.184581578465483 29.184581578465483 29.184581578465483 29.184581578465483 29.184581578465483 29.184581578465483 29.184581578465483 29.184581578465483 29.184581578465483 29.184581578465483 29.184581578465483 29.184581578465483 29.184581578465483 29.184581578465483 29.184581578465483 29.184581578465483 29.184581578465483 29.184581578465483 29.184581578465483 29.184581578465483 29.184581578465483 29.184581578465483 29.184581578465483 29.184581578465483 29.184581578465483 29.184581578465483 29.184581578465483 29.184581578465483 29.184581578465483 29.184581578465483 29.184581578465483 29.184581578465483 29.184581578465483 29.184581578465483 29.184581578465483 29.184581578465483 29.184581578465483 29.184581578465483 29.184581578465483 29.184581578465483 29.184581578465483 29.184581578465483 29.15381798205457 29.15381798205457 29.15381798205457 29.15381798205457 29.15381798205457 29.15381798205457 29.15381798205457 29.15381798205457 29.15381798205457 29.123054385643655 29.123054385643655 29.123054385643655 29.123054385643655 29.123054385643655 29.123054385643655 29.123054385643655 29.123054385643655 29.123054385643655 29.123054385643655 29.123054385643655 29.123054385643655 29.123054385643655 29.123054385643655 29.123054385643655 29.123054385643655 29.123054385643655 29.09229078923274 29.09229078923274 29.123054385643655 29.123054385643655 29.123054385643655 29.09229078923274 29.123054385643655 29.123054385643655 29.09229078923274 29.09229078923274 29.09229078923274 29.09229078923274 29.09229078923274 29.09229078923274 29.09229078923274 29.09229078923274 29.09229078923274 29.09229078923274 29.09229078923274 29.09229078923274 29.09229078923274 29.09229078923274 29.09229078923274 29.09229078923274 29.09229078923274 29.09229078923274 29.09229078923274 29.09229078923274 29.09229078923274 29.09229078923274 29.09229078923274 29.09229078923274 29.09229078923274 29.09229078923274 29.09229078923274 29.09229078923274 29.09229078923274 29.09229078923274 29.09229078923274 29.09229078923274 29.09229078923274 29.09229078923274 29.09229078923274 29.09229078923274 29.09229078923274 29.09229078923274 29.09229078923274 29.09229078923274 29.09229078923274 29.09229078923274 29.09229078923274 29.09229078923274 29.09229078923274 29.09229078923274 29.09229078923274 29.09229078923274 29.09229078923274 29.09229078923274 29.09229078923274 29.09229078923274 29.09229078923274 29.09229078923274 29.09229078923274 29.09229078923274 29.09229078923274 29.09229078923274 29.09229078923274 29.09229078923274 29.09229078923274 29.09229078923274 29.09229078923274 29.09229078923274 29.09229078923274 29.09229078923274 29.09229078923274 29.09229078923274 29.09229078923274 29.09229078923274 29.09229078923274 29.09229078923274 29.09229078923274 29.09229078923274 29.09229078923274 29.09229078923274 29.09229078923274 29.09229078923274 29.09229078923274 29.09229078923274 29.09229078923274 29.09229078923274 29.09229078923274 29.09229078923274 29.09229078923274 29.09229078923274 29.09229078923274 29.09229078923274 29.09229078923274 29.09229078923274 29.09229078923274 29.09229078923274 29.09229078923274 29.09229078923274 29.09229078923274 29.09229078923274 29.09229078923274 29.09229078923274 29.09229078923274 29.09229078923274 29.09229078923274 29.09229078923274 29.09229078923274 29.09229078923274 29.09229078923274 29.09229078923274 29.09229078923274 29.09229078923274 29.09229078923274 29.09229078923274 29.09229078923274 29.09229078923274 29.09229078923274 29.09229078923274 29.09229078923274 29.09229078923274 29.09229078923274 29.09229078923274 29.09229078923274 29.061527192821828 29.09229078923274 29.09229078923274 29.061527192821828 29.09229078923274 29.09229078923274 29.061527192821828 29.09229078923274 29.09229078923274 29.09229078923274 29.09229078923274 29.09229078923274 29.09229078923274 29.09229078923274 29.09229078923274 29.09229078923274 29.09229078923274 29.09229078923274 29.09229078923274 29.09229078923274 29.09229078923274 29.09229078923274 29.09229078923274 29.09229078923274 29.09229078923274 29.09229078923274 29.09229078923274 29.09229078923274 29.09229078923274 29.09229078923274 29.09229078923274 29.09229078923274 29.09229078923274 29.09229078923274 29.09229078923274 29.09229078923274 29.09229078923274 29.09229078923274 29.09229078923274 29.061527192821828 29.09229078923274 29.09229078923274 29.09229078923274 29.09229078923274 29.061527192821828 29.09229078923274 29.09229078923274 29.09229078923274 29.09229078923274 29.09229078923274 29.09229078923274 29.09229078923274 29.09229078923274 29.09229078923274 29.09229078923274 29.09229078923274 29.09229078923274 29.09229078923274 29.09229078923274 29.09229078923274 29.09229078923274 29.09229078923274 29.09229078923274 29.09229078923274 29.09229078923274 29.09229078923274 29.09229078923274 29.09229078923274 29.09229078923274 29.09229078923274 29.09229078923274 29.09229078923274 29.09229078923274 29.09229078923274 29.09229078923274 29.09229078923274 29.09229078923274 29.09229078923274 29.09229078923274 29.09229078923274 29.09229078923274 29.09229078923274 29.09229078923274 29.09229078923274 29.09229078923274 29.09229078923274 29.09229078923274 29.09229078923274 29.09229078923274 29.09229078923274 29.09229078923274 29.061527192821828 29.09229078923274 29.09229078923274 29.09229078923274 29.09229078923274 29.09229078923274 29.061527192821828 29.09229078923274 29.09229078923274 29.09229078923274 29.09229078923274 29.09229078923274 29.09229078923274 29.09229078923274 29.09229078923274 29.09229078923274 29.09229078923274 29.09229078923274 29.09229078923274 29.061527192821828 29.09229078923274 29.09229078923274 29.09229078923274 29.09229078923274 29.09229078923274 29.09229078923274 29.09229078923274 29.09229078923274 29.09229078923274 29.09229078923274 29.09229078923274 29.09229078923274 29.09229078923274 29.09229078923274 29.09229078923274 29.09229078923274 29.061527192821828 29.09229078923274 29.09229078923274 29.09229078923274 29.09229078923274 29.09229078923274 29.09229078923274 29.09229078923274 29.09229078923274 29.09229078923274 29.061527192821828 29.09229078923274 29.09229078923274 29.09229078923274 29.09229078923274 29.061527192821828 29.09229078923274 29.09229078923274 29.09229078923274 29.09229078923274 29.09229078923274 29.09229078923274 29.09229078923274 29.09229078923274 29.09229078923274 29.09229078923274 29.061527192821828 29.09229078923274 29.09229078923274 29.09229078923274 29.09229078923274 29.09229078923274 29.061527192821828 29.09229078923274 29.09229078923274 29.09229078923274 29.09229078923274 29.09229078923274 29.09229078923274 29.09229078923274 29.09229078923274 29.09229078923274 29.09229078923274 29.061527192821828 29.061527192821828 29.09229078923274 29.09229078923274 29.09229078923274 29.09229078923274 29.09229078923274 29.09229078923274 29.09229078923274 29.09229078923274 29.061527192821828 29.09229078923274 29.09229078923274 29.09229078923274 29.09229078923274 29.09229078923274 29.09229078923274 29.09229078923274 29.09229078923274 29.09229078923274 29.09229078923274 29.061527192821828 29.09229078923274 29.09229078923274 29.09229078923274 29.09229078923274 29.061527192821828 29.09229078923274 29.09229078923274 29.09229078923274 29.09229078923274 29.09229078923274 29.09229078923274 29.09229078923274 29.09229078923274 29.09229078923274 29.09229078923274 29.09229078923274 29.09229078923274 29.09229078923274 29.09229078923274 29.09229078923274 29.09229078923274 29.061527192821828 29.09229078923274 29.09229078923274 29.09229078923274 29.09229078923274 29.09229078923274 29.061527192821828 29.09229078923274 29.09229078923274 29.09229078923274 29.09229078923274 29.09229078923274 29.09229078923274 29.09229078923274 29.09229078923274 29.09229078923274 29.09229078923274 29.09229078923274 29.09229078923274 29.061527192821828 29.09229078923274 29.09229078923274 29.09229078923274 29.09229078923274 29.09229078923274 29.09229078923274 29.09229078923274 29.09229078923274 29.09229078923274 29.09229078923274 29.09229078923274 29.09229078923274 29.09229078923274 29.09229078923274 29.09229078923274 29.09229078923274 29.09229078923274 29.09229078923274 29.09229078923274 29.09229078923274 29.09229078923274 29.061527192821828 29.09229078923274 29.09229078923274 29.09229078923274 29.061527192821828 29.061527192821828 29.09229078923274 29.09229078923274 29.09229078923274 29.061527192821828 29.09229078923274 29.09229078923274 29.09229078923274 29.061527192821828 29.061527192821828 29.09229078923274 29.09229078923274 29.061527192821828 29.061527192821828 29.061527192821828 29.061527192821828 29.09229078923274 29.061527192821828 29.09229078923274 29.09229078923274 29.061527192821828 29.061527192821828 29.061527192821828 29.061527192821828 29.061527192821828 29.061527192821828 29.061527192821828 29.09229078923274 29.061527192821828 29.061527192821828 29.061527192821828 29.061527192821828 29.061527192821828 29.09229078923274 29.09229078923274 29.061527192821828 29.061527192821828 29.09229078923274 29.061527192821828 29.061527192821828 29.061527192821828 29.061527192821828 29.09229078923274 29.061527192821828 29.09229078923274 29.09229078923274 29.061527192821828 29.061527192821828 29.061527192821828 29.061527192821828 29.061527192821828 29.061527192821828 29.09229078923274 29.061527192821828 29.09229078923274 29.061527192821828 29.061527192821828 29.09229078923274 29.09229078923274 29.09229078923274 29.061527192821828 29.09229078923274 29.09229078923274 29.061527192821828 29.061527192821828 29.09229078923274 29.09229078923274 29.09229078923274 29.09229078923274 29.09229078923274 29.09229078923274 29.09229078923274 29.09229078923274 29.09229078923274 29.09229078923274 29.09229078923274 29.09229078923274 29.09229078923274 29.09229078923274 29.09229078923274 29.09229078923274 29.09229078923274 29.09229078923274 29.123054385643655 29.123054385643655 29.123054385643655 29.123054385643655 29.123054385643655 29.123054385643655 29.123054385643655 29.15381798205457 29.15381798205457 29.184581578465483 29.184581578465483 29.215345174876397 29.215345174876397 29.24610877128731 29.24610877128731 29.30763596410914 29.338399560520052 29.369163156930966 29.430690349752794 29.49221754257462 29.522981138985532 29.58450833180736 29.6767991210401 29.769089910272843 29.799853506683757 29.8921442959165 29.953671488738326 30.07672587438198 30.23054385643655 30.322834645669293 30.507416224134772 30.691997802600255 30.784288591832997 30.907342977476652 30.938106573887566 31.030397363120308 31.12268815235305 31.184215345174877 31.27650613440762 31.36879692364036 31.461087712873102 31.55337850210584 31.584142098516754 31.737960080571323 31.891778062625892 32.04559604468046 32.3532320087896 32.568577183665994 32.69163156930965 32.968503937007874 33.12232191906244 33.49148507599341 33.89141182933528 34.19904779344442 34.69126533601904 35.183482878593665 35.491118842702804 35.952572788866505 36.47555392785204 36.93700787401575 37.24464383812489 37.552279802234025 38.013733748397726 38.44442409815052 38.90587804431423 39.30580479765611 39.61344076176525 40.044131111518034 40.35176707562717 40.6286394433254 41.15162058231093 41.55154733565281 41.82841970335103 42.22834645669291 42.505218824391136 42.905145577733016 43.52041750595129 43.73576268082768 44.32027101263505 44.6586705731551 45.02783373008606 45.45852407983885 45.950741622413474 46.41219556857718 46.93517670756272 47.15052188243911 47.519685039370074 47.82732100347921 48.25801135323201 48.84251968503936 49.1501556491485 49.580845998901296 50.01153634865409 50.2576451199414 50.842153451748764 50.87291704815968 51.33437099432338 51.73429774766526 51.98040651895257 52.34956967588353 52.718732832814496 53.026368796923634 53.303241164621866 53.580113532320084 53.918513092840136 54.25691265336019 54.59531221388024 55.026002563633035 55.425929316974916 55.67203808826222 55.97967405237136 56.25654642006958 56.87181834828786 57.39479948727339 57.67167185497162 58.13312580113532 58.563816150888115 58.90221571140816 59.332906061160955 59.64054202527009 60.07123237502289 60.50192272477568 60.778795092473906 61.17872184581578 61.547885002746746 61.855520966855885 62.13239333455411 62.37850210584142 62.68613806995056 63.11682841970335 63.239882805347 63.578282365867054 63.94744552279802 64.16279069767441 64.37813587255081 64.5627174510163 64.99340780076909 65.27028016846731 65.51638893975462 65.82402490386376 66.1316608679729 66.31624244643838 66.5931148141366 66.77769639260208 66.96227797106756 67.08533235671122 67.11609595312214 67.14685954953305 67.14685954953305 67.14685954953305 67.14685954953305 67.11609595312214 67.14685954953305 67.11609595312214 67.14685954953305 67.11609595312214 67.11609595312214 67.11609595312214 67.11609595312214 67.11609595312214 67.14685954953305 67.11609595312214 67.11609595312214 67.11609595312214 67.11609595312214 67.11609595312214 67.08533235671122 67.08533235671122 67.05456876030031 67.05456876030031 67.05456876030031 67.05456876030031 67.05456876030031 67.05456876030031 67.05456876030031 67.02380516388939 67.02380516388939 67.02380516388939 66.99304156747849 66.99304156747849 66.96227797106756 66.93151437465664 66.93151437465664 66.93151437465664 66.90075077824574 66.90075077824574 66.86998718183483 66.83922358542392 66.80845998901299 66.77769639260208 66.71616919978025 66.71616919978025 66.68540560336935 66.65464200695843 66.65464200695843 66.5931148141366 66.5931148141366 66.56235121772569 66.53158762131477 66.50082402490386 66.50082402490386 66.47006042849296 66.47006042849296 66.40853323567111 66.40853323567111 66.3470060428493 66.31624244643838 66.28547885002746 66.25471525361655 66.22395165720565 66.22395165720565 66.19318806079472 66.1624244643838 66.1316608679729 66.10089727156199 66.10089727156199 66.10089727156199 66.07013367515107 66.10089727156199 66.10089727156199 66.07013367515107 66.07013367515107 66.07013367515107 66.07013367515107 66.07013367515107 66.07013367515107 66.07013367515107 66.07013367515107 66.07013367515107 66.03937007874015 66.00860648232924 66.00860648232924 65.97784288591834 65.97784288591834 65.94707928950741 65.9163156930965 65.88555209668559 65.88555209668559 65.88555209668559 65.88555209668559 65.88555209668559 65.88555209668559 65.85478850027468 65.85478850027468 65.85478850027468 65.82402490386376 65.82402490386376 65.79326130745284 65.79326130745284 65.79326130745284 65.79326130745284 65.79326130745284 65.79326130745284 65.79326130745284 65.79326130745284 65.79326130745284 65.76249771104193 65.73173411463102 65.7009705182201 65.67020692180918 65.60867972898737 65.57791613257645 65.48562534334371 65.48562534334371 65.45486174693279 65.45486174693279 65.45486174693279 65.45486174693279 65.45486174693279 65.45486174693279 65.45486174693279 65.48562534334371 65.45486174693279 65.45486174693279 65.45486174693279 65.45486174693279 65.45486174693279 65.45486174693279 65.42409815052187 65.42409815052187 65.39333455411096 65.39333455411096 65.36257095770006 65.33180736128914 65.33180736128914 65.33180736128914 65.30104376487822 65.30104376487822 65.27028016846731 65.27028016846731 65.2395165720564 65.2395165720564 65.20875297564548 65.20875297564548 65.20875297564548 65.20875297564548 65.20875297564548 65.20875297564548 65.20875297564548 65.20875297564548 65.20875297564548 65.2395165720564 65.20875297564548 65.20875297564548 65.2395165720564 65.2395165720564 65.2395165720564 65.2395165720564 65.2395165720564 65.2395165720564 65.2395165720564 65.27028016846731 65.2395165720564 65.2395165720564 65.27028016846731 65.2395165720564 65.2395165720564 65.2395165720564 65.2395165720564 65.2395165720564 65.2395165720564 65.20875297564548 65.2395165720564 65.20875297564548 65.20875297564548 65.20875297564548 65.20875297564548 65.20875297564548 65.2395165720564 65.2395165720564 65.2395165720564 65.2395165720564 65.2395165720564 65.2395165720564 65.2395165720564 65.2395165720564 65.2395165720564 65.2395165720564 65.2395165720564 65.2395165720564 65.2395165720564 65.2395165720564 65.2395165720564 65.20875297564548 65.20875297564548 65.20875297564548 65.20875297564548 65.20875297564548 65.20875297564548 65.20875297564548 65.20875297564548 65.20875297564548 65.20875297564548 65.20875297564548 65.20875297564548 65.20875297564548 65.20875297564548 65.20875297564548 65.17798937923456 65.17798937923456 65.14722578282365 65.14722578282365 65.14722578282365 65.14722578282365 65.14722578282365 65.14722578282365 65.14722578282365 65.17798937923456 65.14722578282365 65.14722578282365 65.14722578282365 65.14722578282365 65.14722578282365 65.17798937923456 65.17798937923456 65.14722578282365 65.14722578282365 65.14722578282365 65.14722578282365 65.14722578282365 65.11646218641275 65.11646218641275 65.11646218641275 65.08569859000184 65.0549349935909 65.0549349935909 65.0549349935909 65.0549349935909 65.0549349935909 65.0549349935909 65.0549349935909 65.0549349935909 65.0549349935909 65.0549349935909 65.0549349935909 65.0549349935909 65.0549349935909 65.0549349935909 65.02417139718 65.02417139718 64.99340780076909 64.96264420435817 64.96264420435817 64.96264420435817 64.96264420435817 64.93188060794725 64.93188060794725 64.87035341512544 64.83958981871451 64.80882622230361 64.80882622230361 64.77806262589269 64.77806262589269 64.77806262589269 64.77806262589269 64.77806262589269 64.77806262589269 64.77806262589269 64.77806262589269 64.77806262589269 64.74729902948178 64.74729902948178 64.74729902948178 64.71653543307087 64.74729902948178 64.74729902948178 64.74729902948178 64.71653543307087 64.71653543307087 64.68577183665994 64.71653543307087 64.68577183665994 64.68577183665994 64.68577183665994 64.68577183665994 64.65500824024903 64.62424464383813 64.59348104742722 64.59348104742722 64.5627174510163 64.53195385460538 64.50119025819447 64.47042666178355 64.43966306537264 64.40889946896172 64.34737227613991 64.31660867972897 64.22431789049625 64.19355429408533 64.1320271012635 64.07049990844168 64.03973631203075 64.00897271561985 63.978209119208934 63.94744552279802 63.916681926387106 63.916681926387106 63.88591832997619 63.88591832997619 63.88591832997619 63.88591832997619 63.88591832997619 63.88591832997619 63.85515473356528 63.85515473356528 63.85515473356528 63.85515473356528 63.85515473356528 63.824391137154365 63.824391137154365 63.79362754074345 63.76286394433254 63.73210034792162 63.73210034792162 63.70133675151071 63.670573155099795 63.63980955868888 63.60904596227797 63.578282365867054 63.54751876945614 63.54751876945614 63.516755173045226 63.48599157663431 63.48599157663431 63.4552279802234 63.424464383812484 63.39370078740157 63.36293719099066 63.36293719099066 63.33217359457974 63.30140999816883 63.30140999816883 63.27064640175792 63.239882805347 63.20911920893609 63.14759201611426 63.11682841970335 63.08606482329243 63.055301226881525 63.024537630470604 63.024537630470604 62.99377403405969 62.93224684123786 62.93224684123786 62.901483244826956 62.901483244826956 62.901483244826956 62.901483244826956 62.901483244826956 62.901483244826956 62.901483244826956 62.901483244826956 62.901483244826956 62.901483244826956 62.870719648416035 62.901483244826956 62.870719648416035 62.83995605200513 62.74766526277239 62.68613806995056 62.59384728071782 62.409265702252334 62.31697491301959 62.19392052737594 62.101629738143195 62.009338948910454 61.82475737044497 61.6709393883904 61.547885002746746 61.42483061710309 61.30177623145944 61.14795824940487 60.994140267350296 60.84032228529573 60.655740706830244 60.378868339132026 60.19428676066654 60.040468778611974 59.886650796557404 59.67130562168101 59.45596044680461 59.24061527192821 58.99450650064091 58.62534334370994 58.37923457242263 58.19465299395715 58.04083501190259 57.73319904779344 57.517853872917044 57.33327229445156 56.93334554110969 56.656473173411456 56.441127998535066 56.10272843801501 55.91814685954953 55.61051089544039 55.33363852774217 55.11829335286578 54.90294817798937 54.65683940670207 54.44149423182567 54.072331074894706 53.88774949642922 53.67240432155283 53.364768357443694 53.18018677897821 52.87255081486907 52.47262406152719 52.22651529023988 52.011170115363484 51.826588536898 51.51895257278886 51.211316608679724 50.934444240981506 50.65757187328328 50.41146310199597 50.042299945065004 49.70390038454495 49.48855520966856 49.1501556491485 48.75022889580663 48.565647317341146 48.35030214246475 48.13495696758835 47.82732100347921 47.5812122321919 47.27357626808276 47.02746749679545 46.78135872550815 46.62754074345358 46.47372276139901 46.28914118293353 45.91997802600257 45.67386925471526 45.48928767624977 45.15088811572972 44.96630653726424 44.781724958798755 44.56637978392236 44.381798205456874 44.10492583775865 43.85881706647134 43.67423548800586 43.42812671671855 43.058963559787585 42.93590917414393 42.72056399926753 42.53598242080205 42.259110053103825 42.013001281816514 41.82841970335103 41.459256546420065 41.18238417872185 40.96703900384545 40.81322102179088 40.6286394433254 40.35176707562717 40.01336751510712 39.82878593664164 39.55191356894342 39.33656839406702 39.15198681560154 38.875114447903314 38.721296465848745 38.475187694561434 38.22907892327412 38.04449734480864 37.767624977110415 37.552279802234025 37.36769822376854 37.21388024171397 37.09082585607032 36.93700787401575 36.752426295550265 36.62937190990661 36.47555392785204 36.29097234938656 36.106390770921074 35.952572788866505 35.86028199963376 35.583409631935545 35.36806445705915 35.183482878593665 34.937374107306354 34.783556125251785 34.50668375755356 34.26057498626625 34.10675700421168 33.89141182933528 33.67606665445889 33.55301226881524 33.368430690349754 33.2453763047061 33.12232191906244 32.99926753341879 32.906976744186046 32.78392235854239 32.59934078007691 32.507049990844166 32.414759201611425 32.38399560520051 32.29170481596777 32.260941219556855 32.19941402673503 32.07635964109137 32.014832448269544 31.922541659036806 31.86101446621498 31.86101446621498 31.830250869804065 31.830250869804065 31.830250869804065 31.79948727339315 31.737960080571323 31.70719648416041 31.64566929133858 31.614905694927668 31.55337850210584 31.522614905694926 31.491851309284012 31.430324116462188 31.399560520051274 31.36879692364036 31.338033327229446 31.27650613440762 31.21497894158579 31.184215345174877 31.184215345174877 31.12268815235305 31.091924555942136 31.06116095953122 30.999633766709394 30.938106573887566 30.87657938106574 30.753524995422083 30.691997802600255 30.66123420618934 30.599707013367514 30.538179820545686 30.445889031312948 30.353598242080206 30.29207104925838 30.169016663614723 30.107489470792896 30.07672587438198 29.98443508514924 29.8921442959165 29.799853506683757 29.73832631386193 29.707562717451015 29.707562717451015 29.707562717451015 29.707562717451015 29.707562717451015 29.707562717451015 29.707562717451015 29.6767991210401 29.6767991210401 29.6767991210401 29.6767991210401 29.646035524629188 29.6767991210401 29.646035524629188 29.646035524629188 29.646035524629188 29.646035524629188 29.615271928218274 29.615271928218274 29.58450833180736 29.58450833180736 29.553744735396446 29.553744735396446 29.553744735396446 29.522981138985532 29.49221754257462 29.49221754257462 29.461453946163708 29.430690349752794 29.430690349752794 29.39992675334188 29.369163156930966 29.338399560520052 29.30763596410914 29.30763596410914 29.276872367698225 29.276872367698225 29.24610877128731 29.215345174876397 29.184581578465483 29.15381798205457 29.15381798205457 29.15381798205457 29.123054385643655 29.15381798205457 29.15381798205457 29.15381798205457 29.123054385643655 29.15381798205457 29.123054385643655 29.123054385643655 29.123054385643655 29.123054385643655 29.123054385643655 29.123054385643655 29.123054385643655 29.09229078923274 29.09229078923274 29.09229078923274 29.09229078923274 29.09229078923274 29.09229078923274 29.09229078923274 29.09229078923274 29.09229078923274 29.061527192821828 29.061527192821828 29.061527192821828 29.061527192821828 29.061527192821828 29.061527192821828 29.061527192821828 29.061527192821828 29.061527192821828 29.030763596410914 29.030763596410914 29.030763596410914 29.0 29.0 28.969236403589086 28.938472807178172 28.90770921076726 28.90770921076726 28.90770921076726 28.90770921076726 28.876945614356345 28.84618201794543 28.876945614356345 28.84618201794543 28.84618201794543 28.84618201794543 28.84618201794543 28.84618201794543 28.84618201794543 28.84618201794543 28.84618201794543 28.84618201794543 28.815418421534517 28.84618201794543 28.815418421534517 28.815418421534517 28.815418421534517 28.815418421534517 28.815418421534517 28.815418421534517 28.815418421534517 28.815418421534517 28.784654825123603 28.784654825123603 28.784654825123603 28.784654825123603 28.784654825123603 28.784654825123603 28.784654825123603 28.784654825123603 28.784654825123603 28.784654825123603 28.784654825123603 28.784654825123603 28.784654825123603 28.784654825123603 28.784654825123603 28.784654825123603 28.784654825123603 28.784654825123603 28.75389122871269 28.784654825123603 28.784654825123603 28.784654825123603 28.784654825123603 28.784654825123603 28.75389122871269 28.784654825123603 28.75389122871269 28.75389122871269 28.75389122871269 28.75389122871269 28.75389122871269 28.75389122871269 28.75389122871269 28.75389122871269 28.75389122871269 28.75389122871269 28.75389122871269 28.75389122871269 28.75389122871269 28.75389122871269 28.75389122871269 28.75389122871269 28.75389122871269 28.75389122871269 28.75389122871269 28.75389122871269 28.75389122871269 28.75389122871269 28.75389122871269 28.75389122871269 28.75389122871269 28.75389122871269 28.75389122871269 28.75389122871269 28.75389122871269 28.75389122871269 28.75389122871269 28.75389122871269 28.75389122871269 28.75389122871269 28.75389122871269 28.75389122871269 28.75389122871269 28.75389122871269 28.75389122871269 28.75389122871269 28.75389122871269 28.75389122871269 28.75389122871269 28.75389122871269 28.75389122871269 28.75389122871269 28.75389122871269 28.75389122871269 28.75389122871269 28.75389122871269 28.75389122871269 28.75389122871269 28.75389122871269 28.75389122871269 28.75389122871269 28.75389122871269 28.75389122871269 28.75389122871269 28.75389122871269 28.75389122871269 28.75389122871269 28.75389122871269 28.75389122871269 28.75389122871269 28.75389122871269 28.75389122871269 28.75389122871269 28.75389122871269 28.75389122871269 28.75389122871269 28.75389122871269 28.75389122871269 28.75389122871269 28.75389122871269 28.75389122871269 28.75389122871269 28.75389122871269 28.75389122871269 28.75389122871269 28.75389122871269 28.75389122871269 28.75389122871269 28.75389122871269 28.75389122871269 28.75389122871269 28.75389122871269 28.75389122871269 28.75389122871269 28.75389122871269 28.75389122871269 28.75389122871269 28.75389122871269 28.75389122871269 28.75389122871269 28.75389122871269 28.75389122871269 28.75389122871269 28.75389122871269 28.75389122871269 28.75389122871269 28.75389122871269 28.75389122871269 28.75389122871269 28.75389122871269 28.75389122871269 28.75389122871269 28.75389122871269 28.75389122871269 28.75389122871269 28.75389122871269 28.75389122871269 28.75389122871269 28.75389122871269 28.75389122871269 28.723127632301775 28.75389122871269 28.75389122871269 28.723127632301775 28.723127632301775 28.75389122871269 28.723127632301775 28.723127632301775 28.723127632301775 28.723127632301775 28.723127632301775 28.723127632301775 28.723127632301775 28.723127632301775 28.723127632301775 28.723127632301775 28.723127632301775 28.723127632301775 28.723127632301775 28.723127632301775 28.723127632301775 28.723127632301775 28.723127632301775 28.723127632301775 28.723127632301775 28.723127632301775 28.723127632301775 28.723127632301775 28.723127632301775 28.723127632301775 28.723127632301775 28.723127632301775 28.723127632301775 28.723127632301775 28.723127632301775 28.723127632301775 28.723127632301775 28.723127632301775 28.723127632301775 28.723127632301775 28.723127632301775 28.723127632301775 28.723127632301775 28.723127632301775 28.723127632301775 28.723127632301775 28.723127632301775 28.723127632301775 28.723127632301775 28.723127632301775 28.723127632301775 28.723127632301775 28.723127632301775 28.723127632301775 28.723127632301775 28.723127632301775 28.723127632301775 28.723127632301775 28.723127632301775 28.723127632301775 28.723127632301775 28.723127632301775 28.723127632301775 28.723127632301775 28.723127632301775 28.723127632301775 28.723127632301775 28.723127632301775 28.723127632301775 28.723127632301775 28.723127632301775 28.723127632301775 28.723127632301775 28.723127632301775 28.69236403589086 28.723127632301775 28.723127632301775 28.723127632301775 28.723127632301775 28.723127632301775 28.723127632301775 28.723127632301775 28.69236403589086 28.723127632301775 28.69236403589086 28.69236403589086 28.723127632301775 28.723127632301775 28.69236403589086 28.69236403589086 28.69236403589086 28.69236403589086 28.69236403589086 28.69236403589086 28.69236403589086 28.69236403589086 28.69236403589086 28.69236403589086 28.69236403589086 28.69236403589086 28.69236403589086 28.69236403589086 28.69236403589086 28.69236403589086 28.69236403589086 28.69236403589086 28.69236403589086 28.69236403589086 28.69236403589086 28.69236403589086 28.69236403589086 28.69236403589086 28.69236403589086 28.661600439479948 28.661600439479948 28.661600439479948 28.69236403589086 28.661600439479948 28.661600439479948 28.661600439479948 28.630836843069034 28.630836843069034 28.60007324665812 28.630836843069034 28.630836843069034 28.630836843069034 28.60007324665812 28.60007324665812 28.60007324665812 28.60007324665812 28.60007324665812 28.60007324665812 28.60007324665812 28.569309650247206 28.569309650247206 28.569309650247206 28.569309650247206 28.569309650247206 28.569309650247206 28.569309650247206 28.569309650247206 28.569309650247206 28.569309650247206 28.569309650247206 28.569309650247206 28.569309650247206 28.569309650247206 28.569309650247206 28.569309650247206 28.538546053836292 28.569309650247206 28.569309650247206 28.569309650247206 28.569309650247206 28.538546053836292 28.538546053836292 28.538546053836292 28.538546053836292 28.538546053836292 28.538546053836292 28.538546053836292 28.538546053836292 28.538546053836292 28.538546053836292 28.538546053836292 28.538546053836292 28.50778245742538 28.50778245742538 28.538546053836292 28.50778245742538 28.50778245742538 28.50778245742538 28.50778245742538 28.50778245742538 28.50778245742538 28.50778245742538 28.50778245742538 28.50778245742538 28.50778245742538 28.50778245742538 28.50778245742538 28.50778245742538 28.50778245742538 28.50778245742538 28.477018861014468 28.477018861014468 28.477018861014468 28.477018861014468 28.50778245742538 28.477018861014468 28.50778245742538 28.477018861014468 28.50778245742538 28.50778245742538 28.477018861014468 28.477018861014468 28.477018861014468 28.477018861014468 28.477018861014468 28.477018861014468 28.477018861014468 28.477018861014468 28.477018861014468 28.477018861014468 28.477018861014468 28.477018861014468 28.477018861014468 28.477018861014468 28.477018861014468 28.477018861014468 28.477018861014468 28.477018861014468 28.477018861014468 28.477018861014468 28.477018861014468 28.477018861014468 28.477018861014468 28.477018861014468 28.477018861014468 28.477018861014468 28.477018861014468 28.477018861014468 28.477018861014468 28.477018861014468 28.477018861014468 28.477018861014468 28.477018861014468 28.477018861014468 28.477018861014468 28.477018861014468 28.477018861014468 28.477018861014468 28.477018861014468 28.477018861014468 28.477018861014468 28.477018861014468 28.477018861014468 28.477018861014468 28.477018861014468 28.477018861014468 28.477018861014468 28.477018861014468 28.477018861014468 28.477018861014468 28.477018861014468 28.477018861014468 28.477018861014468 28.477018861014468 28.477018861014468 28.477018861014468 28.477018861014468 28.477018861014468 28.477018861014468 28.477018861014468 28.477018861014468 28.477018861014468 28.477018861014468 28.477018861014468 28.477018861014468 28.477018861014468 28.477018861014468 28.477018861014468 28.477018861014468 28.477018861014468 28.477018861014468 28.477018861014468 28.477018861014468 28.477018861014468 28.477018861014468 28.477018861014468 28.446255264603554 28.477018861014468 28.477018861014468 28.477018861014468 28.446255264603554 28.477018861014468 28.477018861014468 28.446255264603554 28.477018861014468 28.477018861014468 28.477018861014468 28.477018861014468 28.477018861014468 28.477018861014468 28.477018861014468 28.477018861014468 28.446255264603554 28.477018861014468 28.477018861014468 28.446255264603554 28.446255264603554 28.446255264603554 28.477018861014468 28.446255264603554 28.446255264603554 28.446255264603554 28.477018861014468 28.477018861014468 28.446255264603554 28.446255264603554 28.477018861014468 28.477018861014468 28.446255264603554 28.446255264603554 28.477018861014468 28.477018861014468 28.446255264603554 28.477018861014468 28.446255264603554 28.446255264603554 28.477018861014468 28.477018861014468 28.446255264603554 28.477018861014468 28.477018861014468 28.446255264603554 28.477018861014468 28.446255264603554 28.446255264603554 28.477018861014468 28.446255264603554 28.446255264603554 28.446255264603554 28.446255264603554 28.477018861014468 28.446255264603554 28.446255264603554 28.446255264603554 28.477018861014468 28.477018861014468 28.477018861014468 28.446255264603554 28.477018861014468 28.477018861014468 28.446255264603554 28.477018861014468 28.477018861014468 28.446255264603554 28.446255264603554 28.446255264603554 28.446255264603554 28.446255264603554 28.477018861014468 28.446255264603554 28.446255264603554 28.446255264603554 28.446255264603554 28.446255264603554 28.477018861014468 28.446255264603554 28.477018861014468 28.477018861014468 28.446255264603554 28.477018861014468 28.446255264603554 28.446255264603554 28.446255264603554 28.446255264603554 28.446255264603554 28.477018861014468 28.446255264603554 28.446255264603554 28.446255264603554 28.446255264603554 28.446255264603554 28.477018861014468 28.446255264603554 28.477018861014468 28.477018861014468 28.477018861014468 28.477018861014468 28.477018861014468 28.446255264603554 28.477018861014468 28.446255264603554 28.446255264603554 28.446255264603554 28.477018861014468 28.477018861014468 28.477018861014468 28.446255264603554 28.477018861014468 28.446255264603554 28.446255264603554 28.446255264603554 28.446255264603554 28.477018861014468 28.446255264603554 28.477018861014468 28.446255264603554 28.477018861014468 28.477018861014468 28.446255264603554 28.477018861014468 28.446255264603554 28.446255264603554 28.477018861014468 28.477018861014468 28.477018861014468 28.477018861014468 28.446255264603554 28.446255264603554 28.446255264603554 28.446255264603554 28.477018861014468 28.477018861014468 28.446255264603554 28.446255264603554 28.477018861014468 28.446255264603554 28.477018861014468 28.446255264603554 28.477018861014468 28.446255264603554 28.446255264603554 28.477018861014468 28.446255264603554 28.477018861014468 28.446255264603554 28.446255264603554 28.477018861014468 28.477018861014468 28.446255264603554 28.446255264603554 28.477018861014468 28.446255264603554 28.477018861014468 28.446255264603554 28.477018861014468 28.446255264603554 28.477018861014468 28.477018861014468 28.477018861014468 28.477018861014468 28.477018861014468 28.477018861014468 28.446255264603554 28.446255264603554 28.446255264603554 28.446255264603554 28.477018861014468 28.477018861014468 28.446255264603554 28.446255264603554 28.446255264603554 28.477018861014468 28.477018861014468 28.477018861014468 28.477018861014468 28.446255264603554 28.477018861014468 28.446255264603554 28.477018861014468 28.477018861014468 28.477018861014468 28.477018861014468 28.446255264603554 28.446255264603554 28.477018861014468 28.477018861014468 28.477018861014468 28.477018861014468 28.477018861014468 28.477018861014468 28.477018861014468 28.446255264603554 28.477018861014468 28.477018861014468 28.477018861014468 28.477018861014468 28.477018861014468 28.477018861014468 28.477018861014468 28.477018861014468 28.477018861014468 28.477018861014468 28.477018861014468 28.477018861014468 28.477018861014468 28.477018861014468 28.477018861014468 28.477018861014468 28.477018861014468 28.477018861014468 28.477018861014468 28.477018861014468 28.477018861014468 28.477018861014468 28.477018861014468 28.477018861014468 28.477018861014468 28.477018861014468 28.477018861014468 28.477018861014468 28.477018861014468 28.477018861014468 28.477018861014468 28.477018861014468 28.477018861014468 28.477018861014468 28.477018861014468 28.477018861014468 28.477018861014468 28.477018861014468 28.477018861014468 28.477018861014468 28.477018861014468 28.477018861014468 28.477018861014468 28.477018861014468 28.50778245742538 28.477018861014468 28.477018861014468 28.477018861014468 28.50778245742538 28.477018861014468 28.477018861014468 28.50778245742538 28.50778245742538 28.50778245742538 28.50778245742538 28.50778245742538 28.538546053836292 28.538546053836292 28.538546053836292 28.538546053836292 28.538546053836292 28.538546053836292 28.538546053836292 28.538546053836292 28.538546053836292 28.538546053836292 28.538546053836292 28.538546053836292 28.538546053836292 28.569309650247206 28.569309650247206 28.569309650247206 28.60007324665812 28.60007324665812 28.60007324665812 28.661600439479948 28.661600439479948 28.69236403589086 28.69236403589086 28.723127632301775 28.75389122871269 28.784654825123603 28.815418421534517 28.876945614356345 28.90770921076726 29.0 29.061527192821828 29.123054385643655 29.24610877128731 29.369163156930966 29.461453946163708 29.6767991210401 29.73832631386193 29.861380699505585 29.953671488738326 30.015198681560154 30.107489470792896 30.199780260025637 30.23054385643655 30.322834645669293 30.415125434902034 30.47665262772386 30.507416224134772 30.5689434169566 30.630470609778428 30.72276139901117 30.845815784654825 30.907342977476652 30.938106573887566 30.999633766709394 31.06116095953122 31.12268815235305 31.36879692364036 31.522614905694926 31.70719648416041 31.891778062625892 32.04559604468046 32.260941219556855 32.507049990844166 32.69163156930965 32.968503937007874 33.2453763047061 33.49148507599341 33.922175425746204 34.075993407800766 34.383629371909905 34.87584691448453 35.06042849295001 35.36806445705915 35.61417322834646 36.198681560153815 36.62937190990661 36.906244277604834 37.33693462735763 37.798388573521336 38.13678813404138 38.629005676616 38.99816883354697 39.5211499725325 40.044131111518034 40.413294268449 40.96703900384545 41.55154733565281 41.9822376854056 42.505218824391136 42.905145577733016 43.42812671671855 44.10492583775865 44.474088994689616 44.81248855520967 45.45852407983885 45.79692364035891 46.104559604468044 46.442959164988096 47.05823109320637 47.48892144295917 47.765793810657385 48.165720563999265 48.59641091375206 48.81175608862846 49.30397363120308 49.55008240249039 49.95000915583226 50.34993590917414 50.596044680461446 51.149789415857896 51.39589818714521 51.67277055484343 51.98040651895257 52.22651529023988 52.59567844717085 52.9340780076909 53.27247756821095 53.64164072514191 53.980040285661964 54.16462186412745 54.59531221388024 54.841420985167545 55.27211133492034 55.641274491851306 55.91814685954953 56.31807361289141 56.68723676982238 57.056399926753336 57.302508698040654 57.54861746932796 57.94854422266984 58.163889397546235 58.37923457242263 58.65610694012086 58.93297930781908 59.332906061160955 59.54825123603735 59.732832814502835 59.94817798937923 60.16352316425563 60.440395531953854 60.686504303241165 60.87108588170665 61.11719465299395 61.27101263504852 61.45559421351401 61.73246658121223 62.07086614173228 62.22468412378685 62.53232008789599 62.62461087712873 62.80919245559421 62.99377403405969 63.11682841970335 63.30140999816883 63.48599157663431 63.63980955868888 63.79362754074345 63.916681926387106 64.1320271012635 64.22431789049625 64.31660867972897 64.43966306537264 64.53195385460538 64.62424464383813 64.74729902948178 64.80882622230361 64.87035341512544 64.90111701153634 64.93188060794725 64.99340780076909 65.0549349935909 65.11646218641275 65.17798937923456 65.2395165720564 65.27028016846731 65.33180736128914 65.36257095770006 65.42409815052187 65.45486174693279 65.51638893975462 65.57791613257645 65.63944332539828 65.7009705182201 65.79326130745284 65.82402490386376 65.88555209668559 65.97784288591834 66.03937007874015 66.1624244643838 66.22395165720565 66.3470060428493 66.43929683208202 66.47006042849296 66.56235121772569 66.5931148141366 66.62387841054752 66.68540560336935 66.71616919978025 66.77769639260208 66.83922358542392 66.86998718183483 66.96227797106756 66.99304156747849 67.02380516388939 67.08533235671122 67.08533235671122 67.11609595312214 67.14685954953305 67.14685954953305 67.17762314594395 67.20838674235489 67.2391503387658 67.2699139351767 67.30067753158761 67.33144112799853 67.39296832082036 67.45449551364219 67.54678630287492 67.57754989928584 67.63907709210767 67.73136788134042 67.76213147775132 67.85442226698407 67.88518586339498 67.91594945980589 67.91594945980589 67.91594945980589 67.94671305621681 67.97747665262773 68.00824024903864 68.03900384544954 68.06976744186046 68.06976744186046 68.10053103827138 68.10053103827138 68.10053103827138 68.10053103827138 68.10053103827138 68.10053103827138 68.10053103827138 68.10053103827138 68.10053103827138 68.10053103827138 68.13129463468229 68.10053103827138 68.10053103827138 68.13129463468229 68.10053103827138 68.10053103827138 68.10053103827138 68.10053103827138 68.10053103827138 68.10053103827138 68.10053103827138 68.10053103827138 68.10053103827138 68.10053103827138 68.10053103827138 68.10053103827138 68.10053103827138 68.10053103827138 68.10053103827138 68.10053103827138 68.10053103827138 68.10053103827138 68.13129463468229 68.13129463468229 68.13129463468229 68.1620582310932 68.1620582310932 68.1620582310932 68.1620582310932 68.19282182750412 68.19282182750412 68.19282182750412 68.19282182750412 68.19282182750412 68.19282182750412 68.19282182750412 68.19282182750412 68.19282182750412 68.19282182750412 68.19282182750412 68.19282182750412 68.19282182750412 68.19282182750412 68.19282182750412 68.22358542391504 68.19282182750412 68.19282182750412 68.19282182750412 68.19282182750412 68.19282182750412 68.19282182750412 68.19282182750412 68.19282182750412 68.19282182750412 68.19282182750412 68.19282182750412 68.19282182750412 68.19282182750412 68.19282182750412 68.19282182750412 68.19282182750412 68.19282182750412 68.19282182750412 68.19282182750412 68.19282182750412 68.19282182750412 68.19282182750412 68.19282182750412 68.19282182750412 68.19282182750412 68.19282182750412 68.19282182750412 68.19282182750412 68.19282182750412 68.19282182750412 68.19282182750412 68.19282182750412 68.19282182750412 68.19282182750412 68.19282182750412 68.19282182750412 68.19282182750412 68.19282182750412 68.19282182750412 68.19282182750412 68.19282182750412 68.19282182750412 68.19282182750412 68.19282182750412 68.19282182750412 68.19282182750412 68.19282182750412 68.19282182750412 68.19282182750412 68.19282182750412 68.19282182750412 68.19282182750412 68.19282182750412 68.19282182750412 68.19282182750412 68.19282182750412 68.19282182750412 68.1620582310932 68.1620582310932 68.1620582310932 68.1620582310932 68.1620582310932 68.13129463468229 68.10053103827138 68.10053103827138 68.10053103827138 68.06976744186046 68.06976744186046 68.03900384544954 68.00824024903864 67.97747665262773 67.97747665262773 67.94671305621681 67.91594945980589 67.91594945980589 67.91594945980589 67.91594945980589 67.91594945980589 67.91594945980589 67.91594945980589 67.91594945980589 67.91594945980589 67.91594945980589 67.91594945980589 67.91594945980589 67.91594945980589 67.91594945980589 67.91594945980589 67.91594945980589 67.91594945980589 67.91594945980589 67.88518586339498 67.85442226698407 67.82365867057315 67.79289507416223 67.79289507416223 67.76213147775132 67.76213147775132 67.76213147775132 67.73136788134042 67.73136788134042 67.73136788134042 67.76213147775132 67.76213147775132 67.76213147775132 67.76213147775132 67.76213147775132 67.76213147775132 67.76213147775132 67.76213147775132 67.76213147775132 67.76213147775132 67.76213147775132 67.76213147775132 67.76213147775132 67.76213147775132 67.76213147775132 67.76213147775132 67.79289507416223 67.79289507416223 67.82365867057315 67.82365867057315 67.85442226698407 67.85442226698407 67.85442226698407 67.85442226698407 67.85442226698407 67.85442226698407 67.85442226698407 67.85442226698407 67.85442226698407 67.85442226698407 67.85442226698407 67.85442226698407 67.85442226698407 67.85442226698407 67.85442226698407 67.88518586339498 67.91594945980589 67.91594945980589 67.91594945980589 67.94671305621681 67.97747665262773 67.97747665262773 67.97747665262773 67.97747665262773 67.97747665262773 67.97747665262773 68.00824024903864 67.97747665262773 68.00824024903864 67.97747665262773 67.97747665262773 67.97747665262773 68.00824024903864 68.00824024903864 68.00824024903864 68.00824024903864 68.00824024903864 67.97747665262773 67.97747665262773 67.97747665262773 68.00824024903864 67.97747665262773 67.97747665262773 67.97747665262773 67.97747665262773 67.97747665262773 67.97747665262773 67.97747665262773 67.97747665262773 68.00824024903864 67.97747665262773 67.97747665262773 67.97747665262773 67.97747665262773 67.97747665262773 67.97747665262773 67.97747665262773 67.97747665262773 67.97747665262773 67.97747665262773 67.97747665262773 67.97747665262773 67.97747665262773 67.97747665262773 67.97747665262773 67.97747665262773 67.97747665262773 67.97747665262773 67.97747665262773 67.97747665262773 67.97747665262773 67.97747665262773 67.97747665262773 67.97747665262773 67.97747665262773 67.97747665262773 67.97747665262773 67.97747665262773 67.97747665262773 67.97747665262773 67.97747665262773 67.97747665262773 67.97747665262773 67.97747665262773 67.97747665262773 67.97747665262773 67.97747665262773 67.97747665262773 67.97747665262773 67.97747665262773 67.97747665262773 67.97747665262773 67.97747665262773 67.97747665262773 67.97747665262773 67.97747665262773 67.97747665262773 67.97747665262773 67.97747665262773 67.97747665262773 67.97747665262773 67.97747665262773 67.97747665262773 67.97747665262773 67.97747665262773 67.97747665262773 67.97747665262773 67.97747665262773 67.97747665262773 67.97747665262773 67.97747665262773 67.97747665262773 67.97747665262773 67.97747665262773 67.97747665262773 67.97747665262773 67.97747665262773 67.97747665262773 67.97747665262773 67.97747665262773 67.97747665262773 67.97747665262773 67.97747665262773 67.94671305621681 67.97747665262773 67.94671305621681 67.97747665262773 67.97747665262773 67.94671305621681 67.94671305621681 67.94671305621681 67.94671305621681 67.94671305621681 67.91594945980589 67.91594945980589 67.88518586339498 67.85442226698407 67.79289507416223 67.73136788134042 67.66984068851858 67.60831349569676 67.54678630287492 67.48525911005311 67.39296832082036 67.2699139351767 67.20838674235489 67.08533235671122 66.96227797106756 66.86998718183483 66.74693279619117 66.65464200695843 66.50082402490386 66.31624244643838 66.22395165720565 66.07013367515107 65.88555209668559 65.73173411463102 65.67020692180918 65.51638893975462 65.33180736128914 65.14722578282365 65.02417139718 64.74729902948178 64.53195385460538 64.37813587255081 64.16279069767441 63.916681926387106 63.670573155099795 63.39370078740157 63.20911920893609 62.93224684123786 62.65537447353964 62.47079289507416 62.19392052737594 61.97857535249954 61.701702984801315 61.36330342428126 61.02490386376122 60.80955868888482 60.47115912836477 60.19428676066654 59.91741439296832 59.64054202527009 59.332906061160955 58.84068851858633 58.62534334370994 58.37923457242263 57.917780626258924 57.70243545138253 57.48709027650613 57.27174510162973 56.87181834828786 56.441127998535066 56.195019227247755 56.01043764878227 55.79509247390588 55.57974729902948 55.33363852774217 55.11829335286578 54.841420985167545 54.56454861746933 54.379967039003844 53.918513092840136 53.826222303607395 53.610877128731005 53.27247756821095 52.99560520051273 52.59567844717085 51.98040651895257 51.67277055484343 51.149789415857896 50.78062625892693 50.380699505585056 50.10382713788683 49.673136788134045 49.30397363120308 48.9040468778612 48.6887017029848 48.38106573887566 48.165720563999265 47.7965574070683 47.67350302142465 47.45815784654825 47.24281267167186 47.02746749679545 46.87364951474089 46.62754074345358 46.504486357809924 46.31990477934444 46.196850393700785 46.104559604468044 45.88921442959165 45.67386925471526 45.5508148690716 45.36623329060612 45.24317890496246 45.02783373008606 44.874015748031496 44.6586705731551 44.41256180186779 44.135689434169564 43.92034425929317 43.64347189159494 43.33583592748581 43.12049075260941 42.84361838491119 42.659036806445705 42.35140084233657 42.105292071049256 41.92071049258377 41.61307452847464 41.42849295000916 41.05932979307819 40.87474821461271 40.72093023255814 40.444057864859914 40.16718549716169 39.982603918696206 39.70573155099798 39.55191356894342 39.367331990477936 39.15198681560154 39.09045962277971 38.81358725508149 38.629005676616 38.475187694561434 38.29060611609595 38.075260941219554 37.9522065555759 37.767624977110415 37.64457059146676 37.459989013001284 37.36769822376854 37.21388024171397 37.09082585607032 36.998535066837576 36.78318989196118 36.62937190990661 36.47555392785204 36.352499542208385 36.13715436733199 36.01409998168833 35.79875480681194 35.737227613990115 35.583409631935545 35.39882805347006 35.27577366782641 35.12195568577184 34.99890130012818 34.84508331807361 34.69126533601904 34.72202893242996 34.66050173960813 34.537447353964474 34.475920161142646 34.32210217908808 34.229811389855335 34.137520600622594 33.922175425746204 33.829884636513455 33.7068302508698 33.58377586522615 33.522248672404324 33.460721479582496 33.368430690349754 33.30690349752793 33.27613990111701 33.2453763047061 33.2453763047061 33.18384911188427 33.15308551547336 33.12232191906244 33.09155832265153 32.99926753341879 32.968503937007874 32.93774034059696 32.84544955136422 32.814685954953305 32.78392235854239 32.75315876213148 32.72239516572056 32.660867972898735 32.59934078007691 32.53781358725508 32.47628639443325 32.414759201611425 32.3532320087896 32.32246841237868 32.29170481596777 32.19941402673503 32.1378868339132 32.107123237502286 32.07635964109137 32.04559604468046 32.014832448269544 32.04559604468046 32.04559604468046 32.014832448269544 32.014832448269544 32.014832448269544 32.014832448269544 32.014832448269544 31.984068851858634 31.984068851858634 31.984068851858634 31.95330525544772 31.922541659036806 31.922541659036806 31.86101446621498 31.830250869804065 31.768723676982237 31.737960080571323 31.676432887749495 31.584142098516754 31.491851309284012 31.399560520051274 31.307269730818533 31.21497894158579 31.06116095953122 30.907342977476652 30.753524995422083 30.66123420618934 30.507416224134772 30.38436183849112 30.261307452847465 30.169016663614723 30.015198681560154 29.953671488738326 29.8921442959165 29.8921442959165 29.8921442959165 29.8921442959165 29.8921442959165 29.8921442959165 29.8921442959165 29.8921442959165 29.8921442959165 29.861380699505585 29.861380699505585 29.8921442959165 29.8921442959165 29.861380699505585 29.861380699505585 29.861380699505585 29.861380699505585 29.861380699505585 29.861380699505585 29.861380699505585 29.83061710309467 29.83061710309467 29.83061710309467 29.799853506683757 29.799853506683757 29.769089910272843 29.769089910272843 29.73832631386193 29.707562717451015 29.707562717451015 29.6767991210401 29.646035524629188 29.646035524629188 29.615271928218274 29.615271928218274 29.58450833180736 29.553744735396446 29.522981138985532 29.49221754257462 29.461453946163708 29.461453946163708 29.430690349752794 29.430690349752794 29.39992675334188 29.39992675334188 29.39992675334188 29.39992675334188 29.39992675334188 29.39992675334188 29.369163156930966 29.369163156930966 29.369163156930966 29.369163156930966 29.369163156930966 29.369163156930966 29.369163156930966 29.369163156930966 29.338399560520052 29.369163156930966 29.338399560520052 29.338399560520052 29.338399560520052 29.338399560520052 29.338399560520052 29.338399560520052 29.30763596410914 29.30763596410914 29.30763596410914 29.276872367698225 29.276872367698225 29.215345174876397 29.184581578465483 29.15381798205457 29.09229078923274 29.09229078923274 29.061527192821828 29.061527192821828 29.030763596410914 29.030763596410914 29.030763596410914 29.030763596410914 29.030763596410914 29.030763596410914 29.030763596410914 29.030763596410914 29.030763596410914 29.030763596410914 29.0 29.030763596410914 29.0 29.030763596410914 29.030763596410914 29.030763596410914 29.030763596410914 29.0 29.030763596410914 29.0 29.0 29.0 29.0 29.0 29.0 29.030763596410914 29.030763596410914 29.030763596410914 29.030763596410914 29.0 29.0 29.030763596410914 29.0 29.0 29.0 29.0 29.0 29.0 29.0 29.0 29.0 29.0 29.0 29.0 29.0 29.0 29.0 29.0 28.969236403589086 29.0 29.0 28.969236403589086 28.969236403589086 28.969236403589086 28.969236403589086 28.969236403589086 28.969236403589086 28.969236403589086 28.969236403589086 28.969236403589086 28.969236403589086 28.969236403589086 28.969236403589086 28.969236403589086 28.969236403589086 28.969236403589086 28.969236403589086 28.969236403589086 28.969236403589086 28.969236403589086 28.938472807178172 28.938472807178172 28.938472807178172 28.969236403589086 28.938472807178172 28.969236403589086 28.969236403589086 28.969236403589086 28.938472807178172 28.938472807178172 28.938472807178172 28.938472807178172 28.938472807178172 28.938472807178172 28.938472807178172 28.938472807178172 28.90770921076726 28.938472807178172 28.938472807178172 28.90770921076726 28.938472807178172 28.90770921076726 28.938472807178172 28.90770921076726 28.90770921076726 28.90770921076726 28.938472807178172 28.90770921076726 28.90770921076726 28.90770921076726 28.90770921076726 28.90770921076726 28.90770921076726 28.90770921076726 28.90770921076726 28.90770921076726 28.90770921076726 28.90770921076726 28.90770921076726 28.90770921076726 28.90770921076726 28.90770921076726 28.90770921076726 28.90770921076726 28.90770921076726 28.90770921076726 28.90770921076726 28.90770921076726 28.90770921076726 28.90770921076726 28.90770921076726 28.90770921076726 28.90770921076726 28.90770921076726 28.90770921076726 28.90770921076726 28.90770921076726 28.90770921076726 28.90770921076726 28.90770921076726 28.90770921076726 28.90770921076726 28.90770921076726 28.90770921076726 28.90770921076726 28.90770921076726 28.90770921076726 28.90770921076726 28.90770921076726 28.90770921076726 28.90770921076726 28.90770921076726 28.90770921076726 28.90770921076726 28.90770921076726 28.90770921076726 28.90770921076726 28.90770921076726 28.90770921076726 28.90770921076726 28.90770921076726 28.90770921076726 28.90770921076726 28.90770921076726 28.90770921076726 28.90770921076726 28.90770921076726 28.90770921076726 28.90770921076726 28.90770921076726 28.90770921076726 28.90770921076726 28.90770921076726 28.90770921076726 28.90770921076726 28.90770921076726 28.90770921076726 28.90770921076726 28.90770921076726 28.90770921076726 28.90770921076726 28.90770921076726 28.90770921076726 28.876945614356345 28.90770921076726 28.90770921076726 28.876945614356345 28.90770921076726 28.876945614356345 28.90770921076726 28.876945614356345 28.90770921076726 28.876945614356345 28.90770921076726 28.876945614356345 28.90770921076726 28.876945614356345 28.90770921076726 28.90770921076726 28.90770921076726 28.876945614356345 28.90770921076726 28.90770921076726 28.90770921076726 28.90770921076726 28.90770921076726 28.90770921076726 28.876945614356345 28.876945614356345 28.90770921076726 28.90770921076726 28.90770921076726 28.90770921076726 28.876945614356345 28.90770921076726 28.876945614356345 28.90770921076726 28.90770921076726 28.876945614356345 28.90770921076726 28.90770921076726 28.90770921076726 28.90770921076726 28.90770921076726 28.876945614356345 28.90770921076726 28.876945614356345 28.90770921076726 28.90770921076726 28.90770921076726 28.90770921076726 28.876945614356345 28.90770921076726 28.90770921076726 28.876945614356345 28.90770921076726 28.90770921076726 28.876945614356345 28.876945614356345 28.876945614356345 28.90770921076726 28.90770921076726 28.876945614356345 28.90770921076726 28.876945614356345 28.876945614356345 28.876945614356345 28.90770921076726 28.90770921076726 28.876945614356345 28.90770921076726 28.876945614356345 28.90770921076726 28.876945614356345 28.876945614356345 28.876945614356345 28.876945614356345 28.876945614356345 28.876945614356345 28.90770921076726 28.90770921076726 28.90770921076726 28.876945614356345 28.876945614356345 28.876945614356345 28.876945614356345 28.876945614356345 28.876945614356345 28.876945614356345 28.876945614356345 28.90770921076726 28.876945614356345 28.90770921076726 28.90770921076726 28.876945614356345 28.876945614356345 28.90770921076726 28.876945614356345 28.876945614356345 28.876945614356345 28.90770921076726 28.876945614356345 28.876945614356345 28.90770921076726 28.876945614356345 28.876945614356345 28.876945614356345 28.876945614356345 28.876945614356345 28.876945614356345 28.90770921076726 28.876945614356345 28.876945614356345 28.90770921076726 28.876945614356345 28.876945614356345 28.876945614356345 28.876945614356345 28.876945614356345 28.876945614356345 28.876945614356345 28.876945614356345 28.876945614356345 28.876945614356345 28.876945614356345 28.876945614356345 28.876945614356345 28.876945614356345 28.876945614356345 28.876945614356345 28.876945614356345 28.876945614356345 28.876945614356345 28.876945614356345 28.876945614356345 28.876945614356345 28.876945614356345 28.876945614356345 28.876945614356345 28.876945614356345 28.876945614356345 28.876945614356345 28.84618201794543 28.876945614356345 28.876945614356345 28.84618201794543 28.84618201794543 28.84618201794543 28.84618201794543 28.876945614356345 28.84618201794543 28.84618201794543 28.876945614356345 28.84618201794543 28.876945614356345 28.84618201794543 28.84618201794543 28.84618201794543 28.876945614356345 28.84618201794543 28.84618201794543 28.84618201794543 28.84618201794543 28.84618201794543 28.84618201794543 28.84618201794543 28.84618201794543 28.84618201794543 28.84618201794543 28.84618201794543 28.84618201794543 28.84618201794543 28.84618201794543 28.84618201794543 28.876945614356345 28.84618201794543 28.84618201794543 28.84618201794543 28.84618201794543 28.84618201794543 28.84618201794543 28.84618201794543 28.84618201794543 28.84618201794543 28.84618201794543 28.84618201794543 28.84618201794543 28.84618201794543 28.84618201794543 28.84618201794543 28.84618201794543 28.84618201794543 28.84618201794543 28.84618201794543 28.84618201794543 28.84618201794543 28.84618201794543 28.84618201794543 28.84618201794543 28.84618201794543 28.84618201794543 28.84618201794543 28.84618201794543 28.84618201794543 28.84618201794543 28.84618201794543 28.84618201794543 28.84618201794543 28.84618201794543 28.84618201794543 28.84618201794543 28.84618201794543 28.84618201794543 28.84618201794543 28.84618201794543 28.84618201794543 28.84618201794543 28.84618201794543 28.84618201794543 28.84618201794543 28.84618201794543 28.84618201794543 28.84618201794543 28.84618201794543 28.84618201794543 28.84618201794543 28.84618201794543 28.84618201794543 28.84618201794543 28.84618201794543 28.84618201794543 28.84618201794543 28.84618201794543 28.84618201794543 28.84618201794543 28.84618201794543 28.84618201794543 28.84618201794543 28.84618201794543 28.84618201794543 28.84618201794543 28.84618201794543 28.84618201794543 28.84618201794543 28.84618201794543 28.84618201794543 28.84618201794543 28.84618201794543 28.84618201794543 28.84618201794543 28.84618201794543 28.84618201794543 28.84618201794543 28.84618201794543 28.84618201794543 28.84618201794543 28.84618201794543 28.84618201794543 28.84618201794543 28.84618201794543 28.84618201794543 28.84618201794543 28.84618201794543 28.84618201794543 28.84618201794543 28.84618201794543 28.84618201794543 28.84618201794543 28.84618201794543 28.84618201794543 28.84618201794543 28.84618201794543 28.84618201794543 28.84618201794543 28.84618201794543 28.84618201794543 28.84618201794543 28.84618201794543 28.84618201794543 28.84618201794543 28.84618201794543 28.84618201794543 28.84618201794543 28.84618201794543 28.84618201794543 28.84618201794543 28.84618201794543 28.84618201794543 28.84618201794543 28.84618201794543 28.84618201794543 28.84618201794543 28.84618201794543 28.84618201794543 28.84618201794543 28.84618201794543 28.84618201794543 28.84618201794543 28.84618201794543 28.84618201794543 28.84618201794543 28.84618201794543 28.84618201794543 28.84618201794543 28.84618201794543 28.84618201794543 28.84618201794543 28.84618201794543 28.84618201794543 28.84618201794543 28.84618201794543 28.84618201794543 28.84618201794543 28.84618201794543 28.84618201794543 28.84618201794543 28.84618201794543 28.84618201794543 28.84618201794543 28.84618201794543 28.84618201794543 28.84618201794543 28.84618201794543 28.84618201794543 28.84618201794543 28.84618201794543 28.84618201794543 28.84618201794543 28.84618201794543 28.84618201794543 28.84618201794543 28.84618201794543 28.84618201794543 28.84618201794543 28.84618201794543 28.84618201794543 28.84618201794543 28.84618201794543 28.84618201794543 28.84618201794543 28.84618201794543 28.84618201794543 28.84618201794543 28.84618201794543 28.84618201794543 28.84618201794543 28.84618201794543 28.84618201794543 28.84618201794543 28.84618201794543 28.84618201794543 28.84618201794543 28.84618201794543 28.84618201794543 28.84618201794543 28.84618201794543 28.84618201794543 28.84618201794543 28.84618201794543 28.84618201794543 28.84618201794543 28.84618201794543 28.84618201794543 28.84618201794543 28.84618201794543 28.84618201794543 28.84618201794543 28.84618201794543 28.84618201794543 28.84618201794543 28.84618201794543 28.84618201794543 28.84618201794543 28.84618201794543 28.84618201794543 28.84618201794543 28.84618201794543 28.84618201794543 28.84618201794543 28.84618201794543 28.84618201794543 28.84618201794543 28.84618201794543 28.84618201794543 28.84618201794543 28.84618201794543 28.84618201794543 28.84618201794543 28.84618201794543 28.84618201794543 28.84618201794543 28.84618201794543 28.84618201794543 28.84618201794543 28.84618201794543 28.84618201794543 28.84618201794543 28.84618201794543 28.84618201794543 28.84618201794543 28.84618201794543 28.84618201794543 28.84618201794543 28.84618201794543 28.84618201794543 28.84618201794543 28.84618201794543 28.84618201794543 28.84618201794543 28.84618201794543 28.84618201794543 28.84618201794543 28.84618201794543 28.84618201794543 28.84618201794543 28.84618201794543 28.84618201794543 28.84618201794543 28.84618201794543 28.84618201794543 28.84618201794543 28.84618201794543 28.84618201794543 28.84618201794543 28.84618201794543 28.84618201794543 28.84618201794543 28.84618201794543 28.84618201794543 28.84618201794543 28.84618201794543 28.84618201794543 28.84618201794543 28.84618201794543 28.84618201794543 28.84618201794543 28.84618201794543 28.84618201794543 28.84618201794543 28.84618201794543 28.84618201794543 28.84618201794543 28.84618201794543 28.84618201794543 28.84618201794543 28.84618201794543 28.84618201794543 28.84618201794543 28.84618201794543 28.84618201794543 28.84618201794543 28.84618201794543 28.84618201794543 28.84618201794543 28.84618201794543 28.84618201794543 28.84618201794543 28.84618201794543 28.84618201794543 28.84618201794543 28.84618201794543 28.84618201794543 28.84618201794543 28.84618201794543 28.84618201794543 28.84618201794543 28.84618201794543 28.84618201794543 28.84618201794543 28.84618201794543 28.84618201794543 28.84618201794543 28.84618201794543 28.84618201794543 28.84618201794543 28.84618201794543 28.84618201794543 28.84618201794543 28.84618201794543 28.84618201794543 28.84618201794543 28.84618201794543 28.84618201794543 28.84618201794543 28.84618201794543 28.84618201794543 28.84618201794543 28.84618201794543 28.84618201794543 28.84618201794543 28.84618201794543 28.84618201794543 28.84618201794543 28.84618201794543 28.84618201794543 28.84618201794543 28.84618201794543 28.84618201794543 28.84618201794543 28.84618201794543 28.84618201794543 28.84618201794543 28.84618201794543 28.84618201794543 28.84618201794543 28.84618201794543 28.84618201794543 28.84618201794543 28.84618201794543 28.84618201794543 28.84618201794543 28.84618201794543 28.84618201794543 28.84618201794543 28.84618201794543 28.876945614356345 28.876945614356345 28.876945614356345 28.876945614356345 28.876945614356345 28.876945614356345 28.876945614356345 28.876945614356345 28.876945614356345 28.876945614356345 28.876945614356345 28.90770921076726 28.90770921076726 28.938472807178172 28.938472807178172 28.969236403589086 29.0 29.061527192821828 29.09229078923274 29.15381798205457 29.215345174876397 29.338399560520052 29.461453946163708 29.553744735396446 29.707562717451015 29.861380699505585 29.98443508514924 30.199780260025637 30.29207104925838 30.445889031312948 30.5689434169566 30.66123420618934 30.753524995422083 30.907342977476652 30.999633766709394 31.030397363120308 31.12268815235305 31.184215345174877 31.245742537996705 31.36879692364036 31.64566929133858 31.891778062625892 32.107123237502286 32.29170481596777 32.59934078007691 32.906976744186046 33.2453763047061 33.460721479582496 33.76835744369163 34.10675700421168 34.35286577549899 34.69126533601904 34.937374107306354 35.27577366782641 35.67570042116829 35.952572788866505 36.32173594579747 36.598608313495696 37.12158945248123 37.36769822376854 37.64457059146676 38.04449734480864 38.629005676616 38.8443508514924 39.39809558688884 39.76725874381981 40.1979490935726 40.50558505768174 40.96703900384545 41.459256546420065 41.82841970335103 42.105292071049256 42.53598242080205 42.84361838491119 43.24354513825307 43.67423548800586 43.95110785570408 44.35103460904596 44.75096136238784 45.02783373008606 45.52005127266068 45.735396447537084 46.07379600805713 46.442959164988096 46.658304339864486 47.02746749679545 47.519685039370074 47.95037538912287 48.19648416041018 48.473356528108404 48.780992492217536 49.05786485991577 49.39626442043581 49.70390038454495 49.980772752243176 50.2576451199414 50.4729902948178 50.65757187328328 50.96520783739241 51.149789415857896 51.33437099432338 51.58047976561069 51.88811572971983 52.13422450100714 52.59567844717085 52.84178721845816 53.24171397180004 53.518586339498256 53.76469511078557 54.19538546053836 54.7183665995239 55.149056949276684 55.425929316974916 55.70280168467313 56.10272843801501 56.47189159494598 56.748763962644205 57.14869071598608 57.4255630836843 57.94854422266984 58.19465299395715 58.50228895806629 58.90221571140816 59.24061527192821 59.45596044680461 59.67130562168101 59.85588720014648 60.1019959714338 60.440395531953854 60.62497711041934 60.84032228529573 61.086431056583045 61.30177623145944 61.48635780992492 61.73246658121223 62.101629738143195 62.44002929866325 62.68613806995056 62.99377403405969 63.33217359457974 63.578282365867054 63.916681926387106 64.16279069767441 64.50119025819447 64.83958981871451 65.11646218641275 65.36257095770006 65.60867972898737 65.79326130745284 65.97784288591834 66.1624244643838 66.3470060428493 66.53158762131477 66.68540560336935 66.90075077824574 66.96227797106756 67.02380516388939 67.05456876030031 67.08533235671122 67.11609595312214 67.11609595312214 67.14685954953305 67.14685954953305 67.14685954953305 67.14685954953305 67.14685954953305 67.14685954953305 67.14685954953305 67.14685954953305 67.14685954953305 67.17762314594395 67.14685954953305 67.14685954953305 67.17762314594395 67.17762314594395 67.17762314594395 67.17762314594395 67.17762314594395 67.14685954953305 67.14685954953305 67.17762314594395 67.17762314594395 67.17762314594395 67.17762314594395 67.17762314594395 67.14685954953305 67.14685954953305 67.17762314594395 67.17762314594395 67.14685954953305 67.17762314594395 67.14685954953305 67.14685954953305 67.14685954953305 67.14685954953305 67.14685954953305 67.17762314594395 67.17762314594395 67.17762314594395 67.14685954953305 67.14685954953305 67.17762314594395 67.17762314594395 67.17762314594395 67.17762314594395 67.14685954953305 67.14685954953305 67.14685954953305 67.14685954953305 67.14685954953305 67.11609595312214 67.11609595312214 67.11609595312214 67.11609595312214 67.08533235671122 67.08533235671122 67.05456876030031 67.08533235671122 67.05456876030031 67.05456876030031 67.05456876030031 67.05456876030031 67.05456876030031 67.05456876030031 67.05456876030031 67.05456876030031 67.02380516388939 67.02380516388939 67.02380516388939 67.02380516388939 66.99304156747849 66.99304156747849 66.99304156747849 66.99304156747849 67.02380516388939 66.99304156747849 67.02380516388939 66.99304156747849 66.99304156747849 66.99304156747849 66.99304156747849 66.99304156747849 66.99304156747849 66.99304156747849 66.96227797106756 66.93151437465664 66.93151437465664 66.90075077824574 66.86998718183483 66.83922358542392 66.77769639260208 66.77769639260208 66.71616919978025 66.65464200695843 66.65464200695843 66.5931148141366 66.56235121772569 66.50082402490386 66.50082402490386 66.47006042849296 66.47006042849296 66.47006042849296 66.47006042849296 66.47006042849296 66.47006042849296 66.47006042849296 66.47006042849296 66.47006042849296 66.47006042849296 66.47006042849296 66.43929683208202 66.40853323567111 66.3470060428493 66.31624244643838 66.28547885002746 66.25471525361655 66.22395165720565 66.19318806079472 66.19318806079472 66.1624244643838 66.1624244643838 66.1316608679729 66.1316608679729 66.1316608679729 66.10089727156199 66.07013367515107 66.07013367515107 66.03937007874015 66.00860648232924 66.00860648232924 66.00860648232924 66.00860648232924 65.97784288591834 65.97784288591834 65.97784288591834 65.97784288591834 65.97784288591834 65.94707928950741 65.9163156930965 65.9163156930965 65.9163156930965 65.9163156930965 65.9163156930965 65.88555209668559 65.88555209668559 65.88555209668559 65.88555209668559 65.88555209668559 65.88555209668559 65.88555209668559 65.88555209668559 65.88555209668559 65.88555209668559 65.88555209668559 65.88555209668559 65.88555209668559 65.88555209668559 65.88555209668559 65.88555209668559 65.88555209668559 65.88555209668559 65.9163156930965 65.88555209668559 65.88555209668559 65.88555209668559 65.88555209668559 65.9163156930965 65.88555209668559 65.88555209668559 65.88555209668559 65.88555209668559 65.88555209668559 65.88555209668559 65.88555209668559 65.82402490386376 65.79326130745284 65.79326130745284 65.76249771104193 65.73173411463102 65.7009705182201 65.7009705182201 65.7009705182201 65.7009705182201 65.67020692180918 65.7009705182201 65.67020692180918 65.67020692180918 65.7009705182201 65.67020692180918 65.7009705182201 65.67020692180918 65.67020692180918 65.67020692180918 65.7009705182201 65.7009705182201 65.67020692180918 65.7009705182201 65.67020692180918 65.7009705182201 65.7009705182201 65.67020692180918 65.7009705182201 65.7009705182201 65.7009705182201 65.7009705182201 65.7009705182201 65.7009705182201 65.7009705182201 65.7009705182201 65.7009705182201 65.7009705182201 65.7009705182201 65.73173411463102 65.73173411463102 65.73173411463102 65.73173411463102 65.76249771104193 65.76249771104193 65.76249771104193 65.76249771104193 65.76249771104193 65.76249771104193 65.76249771104193 65.76249771104193 65.76249771104193 65.76249771104193 65.76249771104193 65.76249771104193 65.76249771104193 65.76249771104193 65.76249771104193 65.76249771104193 65.76249771104193 65.76249771104193 65.76249771104193 65.76249771104193 65.76249771104193 65.76249771104193 65.76249771104193 65.76249771104193 65.76249771104193 65.76249771104193 65.73173411463102 65.76249771104193 65.73173411463102 65.73173411463102 65.73173411463102 65.73173411463102 65.76249771104193 65.73173411463102 65.76249771104193 65.76249771104193 65.76249771104193 65.73173411463102 65.73173411463102 65.73173411463102 65.7009705182201 65.7009705182201 65.7009705182201 65.7009705182201 65.7009705182201 65.7009705182201 65.7009705182201 65.7009705182201 65.7009705182201 65.7009705182201 65.7009705182201 65.67020692180918 65.7009705182201 65.67020692180918 65.7009705182201 65.7009705182201 65.67020692180918 65.7009705182201 65.7009705182201 65.7009705182201 65.67020692180918 65.7009705182201 65.7009705182201 65.7009705182201 65.7009705182201 65.7009705182201 65.7009705182201 65.7009705182201 65.7009705182201 65.7009705182201 65.7009705182201 65.7009705182201 65.7009705182201 65.7009705182201 65.7009705182201 65.7009705182201 65.7009705182201 65.7009705182201 65.7009705182201 65.7009705182201 65.7009705182201 65.7009705182201 65.7009705182201 65.7009705182201 65.7009705182201 65.7009705182201 65.7009705182201 65.7009705182201 65.7009705182201 65.7009705182201 65.7009705182201 65.7009705182201 65.7009705182201 65.7009705182201 65.7009705182201 65.7009705182201 65.7009705182201 65.7009705182201 65.7009705182201 65.7009705182201 65.7009705182201 65.7009705182201 65.7009705182201 65.7009705182201 65.7009705182201 65.7009705182201 65.67020692180918 65.67020692180918 65.67020692180918 65.60867972898737 65.54715253616553 65.51638893975462 65.42409815052187 65.36257095770006 65.27028016846731 65.2395165720564 65.17798937923456 65.14722578282365 65.0549349935909 65.02417139718 64.99340780076909 64.90111701153634 64.87035341512544 64.80882622230361 64.71653543307087 64.62424464383813 64.50119025819447 64.40889946896172 64.25508148690716 64.1012635048526 63.978209119208934 63.824391137154365 63.70133675151071 63.516755173045226 63.33217359457974 63.20911920893609 63.024537630470604 62.901483244826956 62.80919245559421 62.62461087712873 62.47079289507416 62.255447720197765 61.97857535249954 61.82475737044497 61.609412195568574 61.36330342428126 61.20948544222669 61.055667460172124 60.80955868888482 60.53268632118659 60.28657754989928 60.1019959714338 59.85588720014648 59.64054202527009 59.54825123603735 59.39443325398278 59.2098516755173 58.96374290422999 58.71763413294268 58.533052554477194 58.163889397546235 57.917780626258924 57.73319904779344 57.517853872917044 57.302508698040654 57.02563633034242 56.718000366233284 56.41036440212415 56.10272843801501 55.85661966672771 55.641274491851306 55.48745650979674 55.179820545687605 54.933711774400294 54.68760300311298 54.5030214246475 54.226149056949275 54.0415674784838 53.76469511078557 53.45705914667643 53.24171397180004 52.9340780076909 52.59567844717085 52.38033327229445 52.0419337117744 51.76506134407617 51.33437099432338 51.05749862662516 50.842153451748764 50.534517487639626 50.134590734297745 50.042299945065004 49.642373191723124 49.427028016846734 49.119392052737595 48.873283281450284 48.59641091375206 48.319538546053835 48.04266617835561 47.88884819630104 47.67350302142465 47.48892144295917 47.33510346090459 47.15052188243911 46.996703900384546 46.78135872550815 46.56601355063175 46.41219556857718 46.07379600805713 45.91997802600257 45.76616004394799 45.45852407983885 45.27394250137337 45.15088811572972 44.874015748031496 44.72019776597693 44.4433253982787 44.25874381981322 43.981871452114994 43.70499908441677 43.52041750595129 43.21278154184215 42.966672770554844 42.78209119208936 42.505218824391136 42.259110053103825 42.013001281816514 41.7668925105292 41.58231093206372 41.3054385643655 41.090093389489105 40.843984618201794 40.47482146127083 40.290239882805345 40.07489470792895 39.921076725874386 39.7364951474089 39.55191356894342 39.367331990477936 39.18275041201245 38.99816883354697 38.8443508514924 38.629005676616 38.38289690532869 38.19831532686321 37.9522065555759 37.767624977110415 37.552279802234025 37.2754074345358 37.060062259659404 36.752426295550265 36.506317524262954 36.32173594579747 36.1679179637429 35.98333638527742 35.76799121040103 35.52188243911371 35.27577366782641 35.029664896539096 34.84508331807361 34.69126533601904 34.537447353964474 34.35286577549899 34.19904779344442 34.075993407800766 33.983702618568024 33.89141182933528 33.829884636513455 33.73759384728072 33.67606665445889 33.64530305804798 33.58377586522615 33.55301226881524 33.49148507599341 33.42995788317158 33.368430690349754 33.30690349752793 33.27613990111701 33.2453763047061 33.214612708295185 33.15308551547336 33.12232191906244 33.060794726240616 32.99926753341879 32.968503937007874 32.906976744186046 32.84544955136422 32.78392235854239 32.75315876213148 32.72239516572056 32.69163156930965 32.69163156930965 32.660867972898735 32.660867972898735 32.660867972898735 32.63010437648782 32.59934078007691 32.59934078007691 32.568577183665994 32.568577183665994 32.53781358725508 32.507049990844166 32.507049990844166 32.44552279802234 32.414759201611425 32.38399560520051 32.38399560520051 32.32246841237868 32.260941219556855 32.23017762314594 32.168650430324114 32.107123237502286 32.07635964109137 32.014832448269544 31.95330525544772 31.922541659036806 31.86101446621498 31.79948727339315 31.768723676982237 31.737960080571323 31.676432887749495 31.64566929133858 31.584142098516754 31.522614905694926 31.491851309284012 31.430324116462188 31.36879692364036 31.27650613440762 31.184215345174877 31.12268815235305 31.06116095953122 30.999633766709394 30.938106573887566 30.87657938106574 30.784288591832997 30.753524995422083 30.72276139901117 30.66123420618934 30.599707013367514 30.5689434169566 30.47665262772386 30.445889031312948 30.415125434902034 30.415125434902034 30.415125434902034 30.415125434902034 30.415125434902034 30.415125434902034 30.38436183849112 30.38436183849112 30.38436183849112 30.38436183849112 30.38436183849112 30.38436183849112 30.38436183849112 30.353598242080206 30.38436183849112 30.38436183849112 30.353598242080206 30.353598242080206 30.353598242080206 30.322834645669293 30.29207104925838 30.29207104925838 30.261307452847465 30.199780260025637 30.169016663614723 30.169016663614723 30.13825306720381 30.13825306720381 30.107489470792896 30.07672587438198 30.07672587438198 30.07672587438198 30.045962277971068 30.045962277971068 30.045962277971068 30.07672587438198 30.045962277971068 30.045962277971068 30.045962277971068 30.015198681560154 30.015198681560154 29.98443508514924 29.953671488738326 29.922907892327412 29.861380699505585 29.799853506683757 29.769089910272843 29.73832631386193 29.73832631386193 29.73832631386193 29.73832631386193 29.73832631386193 29.707562717451015 29.73832631386193 29.73832631386193 29.73832631386193 29.73832631386193 29.73832631386193 29.707562717451015 29.73832631386193 29.707562717451015 29.73832631386193 29.707562717451015 29.707562717451015 29.707562717451015 29.707562717451015 29.707562717451015 29.707562717451015 29.707562717451015 29.707562717451015 29.6767991210401 29.707562717451015 29.6767991210401 29.6767991210401 29.6767991210401 29.646035524629188 29.646035524629188 29.646035524629188 29.615271928218274 29.615271928218274 29.615271928218274 29.58450833180736 29.58450833180736 29.58450833180736 29.58450833180736 29.58450833180736 29.553744735396446 29.553744735396446 29.553744735396446 29.553744735396446 29.553744735396446 29.522981138985532 29.522981138985532 29.522981138985532 29.522981138985532 29.522981138985532 29.522981138985532 29.49221754257462 29.49221754257462 29.49221754257462 29.49221754257462 29.49221754257462 29.49221754257462 29.49221754257462 29.49221754257462 29.49221754257462 29.461453946163708 29.49221754257462 29.461453946163708 29.461453946163708 29.461453946163708 29.461453946163708 29.461453946163708 29.461453946163708 29.461453946163708 29.461453946163708 29.461453946163708 29.430690349752794 29.461453946163708 29.461453946163708 29.430690349752794 29.461453946163708 29.430690349752794 29.430690349752794 29.461453946163708 29.430690349752794 29.430690349752794 29.461453946163708 29.461453946163708 29.430690349752794 29.461453946163708 29.461453946163708 29.430690349752794 29.461453946163708 29.461453946163708 29.461453946163708 29.461453946163708 29.430690349752794 29.430690349752794 29.430690349752794 29.430690349752794 29.430690349752794 29.430690349752794 29.430690349752794 29.430690349752794 29.461453946163708 29.430690349752794 29.430690349752794 29.430690349752794 29.430690349752794 29.430690349752794 29.430690349752794 29.430690349752794 29.430690349752794 29.430690349752794 29.430690349752794 29.430690349752794 29.430690349752794 29.430690349752794 29.461453946163708 29.430690349752794 29.430690349752794 29.430690349752794 29.430690349752794 29.430690349752794 29.430690349752794 29.430690349752794 29.461453946163708 29.430690349752794 29.430690349752794 29.430690349752794 29.461453946163708 29.430690349752794 29.461453946163708 29.430690349752794 29.430690349752794 29.430690349752794 29.430690349752794 29.430690349752794 29.430690349752794 29.461453946163708 29.430690349752794 29.430690349752794 29.461453946163708 29.430690349752794 29.430690349752794 29.461453946163708 29.430690349752794 29.430690349752794 29.430690349752794 29.430690349752794 29.430690349752794 29.430690349752794 29.430690349752794 29.430690349752794 29.461453946163708 29.430690349752794 29.430690349752794 29.430690349752794 29.430690349752794 29.430690349752794 29.430690349752794 29.430690349752794 29.430690349752794 29.430690349752794 29.461453946163708 29.430690349752794 29.430690349752794 29.430690349752794 29.430690349752794 29.430690349752794 29.430690349752794 29.430690349752794 29.430690349752794 29.430690349752794 29.430690349752794 29.430690349752794 29.430690349752794 29.430690349752794 29.430690349752794 29.430690349752794 29.430690349752794 29.430690349752794 29.430690349752794 29.430690349752794 29.430690349752794 29.430690349752794 29.430690349752794 29.430690349752794 29.430690349752794 29.430690349752794 29.430690349752794 29.430690349752794 29.430690349752794 29.430690349752794 29.430690349752794 29.430690349752794 29.430690349752794 29.430690349752794 29.430690349752794 29.430690349752794 29.430690349752794 29.430690349752794 29.430690349752794 29.430690349752794 29.430690349752794 29.430690349752794 29.430690349752794 29.430690349752794 29.430690349752794 29.39992675334188 29.430690349752794 29.430690349752794 29.430690349752794 29.430690349752794 29.430690349752794 29.430690349752794 29.430690349752794 29.430690349752794 29.430690349752794 29.430690349752794 29.430690349752794 29.430690349752794 29.430690349752794 29.430690349752794 29.430690349752794 29.430690349752794 29.430690349752794 29.430690349752794 29.430690349752794 29.430690349752794 29.430690349752794 29.430690349752794 29.430690349752794 29.430690349752794 29.430690349752794 29.430690349752794 29.39992675334188 29.430690349752794 29.430690349752794 29.430690349752794 29.430690349752794 29.430690349752794 29.430690349752794 29.430690349752794 29.430690349752794 29.430690349752794 29.430690349752794 29.430690349752794 29.430690349752794 29.430690349752794 29.39992675334188 29.430690349752794 29.430690349752794 29.430690349752794 29.39992675334188 29.430690349752794 29.430690349752794 29.430690349752794 29.430690349752794 29.39992675334188 29.39992675334188 29.39992675334188 29.430690349752794 29.430690349752794 29.39992675334188 29.39992675334188 29.430690349752794 29.430690349752794 29.39992675334188 29.39992675334188 29.39992675334188 29.39992675334188 29.39992675334188 29.39992675334188 29.39992675334188 29.430690349752794 29.39992675334188 29.39992675334188 29.39992675334188 29.39992675334188 29.39992675334188 29.39992675334188 29.39992675334188 29.39992675334188 29.39992675334188 29.39992675334188 29.39992675334188 29.39992675334188 29.39992675334188 29.39992675334188 29.39992675334188 29.39992675334188 29.39992675334188 29.39992675334188 29.39992675334188 29.39992675334188 29.39992675334188 29.39992675334188 29.39992675334188 29.39992675334188 29.39992675334188 29.39992675334188 29.39992675334188 29.39992675334188 29.39992675334188 29.39992675334188 29.39992675334188 29.39992675334188 29.39992675334188 29.39992675334188 29.39992675334188 29.39992675334188 29.39992675334188 29.39992675334188 29.39992675334188 29.39992675334188 29.39992675334188 29.39992675334188 29.39992675334188 29.39992675334188 29.39992675334188 29.39992675334188 29.39992675334188 29.39992675334188 29.39992675334188 29.39992675334188 29.39992675334188 29.39992675334188 29.39992675334188 29.39992675334188 29.39992675334188 29.39992675334188 29.39992675334188 29.39992675334188 29.39992675334188 29.39992675334188 29.39992675334188 29.39992675334188 29.39992675334188 29.39992675334188 29.39992675334188 29.39992675334188 29.39992675334188 29.39992675334188 29.39992675334188 29.39992675334188 29.39992675334188 29.39992675334188 29.39992675334188 29.39992675334188 29.39992675334188 29.39992675334188 29.39992675334188 29.39992675334188 29.39992675334188 29.39992675334188 29.39992675334188 29.39992675334188 29.39992675334188 29.39992675334188 29.39992675334188 29.39992675334188 29.39992675334188 29.39992675334188 29.39992675334188 29.39992675334188 29.39992675334188 29.39992675334188 29.39992675334188 29.39992675334188 29.39992675334188 29.39992675334188 29.39992675334188 29.39992675334188 29.39992675334188 29.39992675334188 29.39992675334188 29.39992675334188 29.39992675334188 29.39992675334188 29.39992675334188 29.39992675334188 29.39992675334188 29.39992675334188 29.39992675334188 29.39992675334188 29.39992675334188 29.39992675334188 29.39992675334188 29.39992675334188 29.39992675334188 29.39992675334188 29.39992675334188 29.39992675334188 29.39992675334188 29.39992675334188 29.39992675334188 29.39992675334188 29.39992675334188 29.39992675334188 29.39992675334188 29.39992675334188 29.39992675334188 29.39992675334188 29.39992675334188 29.39992675334188 29.39992675334188 29.39992675334188 29.39992675334188 29.39992675334188 29.39992675334188 29.39992675334188 29.39992675334188 29.39992675334188 29.39992675334188 29.39992675334188 29.39992675334188 29.39992675334188 29.39992675334188 29.39992675334188 29.39992675334188 29.39992675334188 29.39992675334188 29.39992675334188 29.39992675334188 29.39992675334188 29.39992675334188 29.39992675334188 29.39992675334188 29.39992675334188 29.39992675334188 29.39992675334188 29.39992675334188 29.39992675334188 29.39992675334188 29.39992675334188 29.39992675334188 29.39992675334188 29.39992675334188 29.39992675334188 29.39992675334188 29.39992675334188 29.39992675334188 29.39992675334188 29.39992675334188 29.39992675334188 29.39992675334188 29.39992675334188 29.39992675334188 29.39992675334188 29.39992675334188 29.369163156930966 29.39992675334188 29.39992675334188 29.39992675334188 29.39992675334188 29.39992675334188 29.39992675334188 29.39992675334188 29.39992675334188 29.39992675334188 29.39992675334188 29.39992675334188 29.39992675334188 29.39992675334188 29.39992675334188 29.39992675334188 29.39992675334188 29.39992675334188 29.39992675334188 29.39992675334188 29.39992675334188 29.39992675334188 29.39992675334188 29.39992675334188 29.39992675334188 29.39992675334188 29.39992675334188 29.39992675334188 29.39992675334188 29.39992675334188 29.39992675334188 29.369163156930966 29.39992675334188 29.39992675334188 29.369163156930966 29.369163156930966 29.369163156930966 29.369163156930966 29.369163156930966 29.369163156930966 29.369163156930966 29.369163156930966 29.369163156930966 29.369163156930966 29.369163156930966 29.369163156930966 29.369163156930966 29.338399560520052 29.338399560520052 29.369163156930966 29.338399560520052 29.338399560520052 29.338399560520052 29.338399560520052 29.338399560520052 29.338399560520052 29.338399560520052 29.338399560520052 29.338399560520052 29.338399560520052 29.338399560520052 29.338399560520052 29.30763596410914 29.30763596410914 29.30763596410914 29.30763596410914 29.338399560520052 29.30763596410914 29.338399560520052 29.30763596410914 29.338399560520052 29.30763596410914 29.30763596410914 29.30763596410914 29.30763596410914 29.30763596410914 29.30763596410914 29.338399560520052 29.30763596410914 29.30763596410914 29.30763596410914 29.338399560520052 29.30763596410914 29.30763596410914 29.30763596410914 29.30763596410914 29.30763596410914 29.30763596410914 29.338399560520052 29.30763596410914 29.30763596410914 29.30763596410914 29.30763596410914 29.30763596410914 29.30763596410914 29.30763596410914 29.30763596410914 29.30763596410914 29.30763596410914 29.30763596410914 29.30763596410914 29.30763596410914 29.30763596410914 29.30763596410914 29.30763596410914 29.30763596410914 29.30763596410914 29.30763596410914 29.338399560520052 29.30763596410914 29.30763596410914 29.30763596410914 29.30763596410914 29.30763596410914 29.30763596410914 29.30763596410914 29.30763596410914 29.30763596410914 29.30763596410914 29.30763596410914 29.30763596410914 29.30763596410914 29.30763596410914 29.30763596410914 29.30763596410914 29.30763596410914 29.30763596410914 29.30763596410914 29.30763596410914 29.30763596410914 29.30763596410914 29.30763596410914 29.30763596410914 29.30763596410914 29.30763596410914 29.30763596410914 29.30763596410914 29.30763596410914 29.30763596410914 29.30763596410914 29.30763596410914 29.30763596410914 29.30763596410914 29.30763596410914 29.30763596410914 29.30763596410914 29.30763596410914 29.30763596410914 29.30763596410914 29.30763596410914 29.30763596410914 29.338399560520052 29.30763596410914 29.30763596410914 29.30763596410914 29.30763596410914 29.30763596410914 29.30763596410914 29.30763596410914 29.30763596410914 29.30763596410914 29.30763596410914 29.30763596410914 29.30763596410914 29.30763596410914 29.30763596410914 29.30763596410914 29.30763596410914 29.30763596410914 29.30763596410914 29.30763596410914 29.30763596410914 29.30763596410914 29.30763596410914 29.30763596410914 29.30763596410914 29.30763596410914 29.30763596410914 29.30763596410914 29.30763596410914 29.30763596410914 29.30763596410914 29.30763596410914 29.30763596410914 29.30763596410914 29.30763596410914 29.30763596410914 29.30763596410914 29.30763596410914 29.30763596410914 29.30763596410914 29.30763596410914 29.30763596410914 29.30763596410914 29.30763596410914 29.30763596410914 29.30763596410914 29.30763596410914 29.30763596410914 29.30763596410914 29.30763596410914 29.30763596410914 29.30763596410914 29.30763596410914 29.30763596410914 29.30763596410914 29.30763596410914 29.30763596410914 29.30763596410914 29.30763596410914 29.30763596410914 29.30763596410914 29.30763596410914 29.30763596410914 29.30763596410914 29.30763596410914 29.30763596410914 29.30763596410914 29.30763596410914 29.30763596410914 29.30763596410914 29.30763596410914 29.30763596410914 29.30763596410914 29.30763596410914 29.30763596410914 29.30763596410914 29.30763596410914 29.30763596410914 29.30763596410914 29.30763596410914 29.30763596410914 29.30763596410914 29.30763596410914 29.30763596410914 29.30763596410914 29.30763596410914 29.30763596410914 29.30763596410914 29.30763596410914 29.30763596410914 29.338399560520052 29.30763596410914 29.30763596410914 29.30763596410914 29.30763596410914 29.30763596410914 29.30763596410914 29.30763596410914 29.30763596410914 29.30763596410914 29.30763596410914 29.30763596410914 29.30763596410914 29.30763596410914 29.338399560520052 29.30763596410914 29.30763596410914 29.30763596410914 29.30763596410914 29.30763596410914 29.338399560520052 29.338399560520052 29.338399560520052 29.338399560520052 29.338399560520052 29.369163156930966 29.369163156930966 29.369163156930966 29.369163156930966 29.39992675334188 29.39992675334188 29.39992675334188 29.39992675334188 29.430690349752794 29.461453946163708 29.49221754257462 29.522981138985532 29.58450833180736 29.615271928218274 29.6767991210401 29.73832631386193 29.769089910272843 29.861380699505585 29.953671488738326 30.045962277971068 30.13825306720381 30.23054385643655 30.47665262772386 30.538179820545686 30.630470609778428 30.753524995422083 30.81505218824391 30.87657938106574 30.907342977476652 31.030397363120308 31.091924555942136 31.153451748763963 31.27650613440762 31.307269730818533 31.430324116462188 31.461087712873102 31.584142098516754 31.676432887749495 31.70719648416041 31.737960080571323 31.737960080571323 31.768723676982237 31.79948727339315 31.86101446621498 32.1378868339132 32.32246841237868 32.44552279802234 32.660867972898735 32.84544955136422 33.18384911188427 33.460721479582496 33.67606665445889 33.95293902215711 34.32210217908808 34.537447353964474 34.75279252884087 35.15271928218275 35.583409631935545 35.82951840322285 36.198681560153815 36.47555392785204 36.72166269913935 37.152353048892145 37.36769822376854 37.58304339864493 37.921442959164985 38.29060611609595 38.567478483794176 39.24427760483428 39.367331990477936 39.82878593664164 40.136421900750776 40.444057864859914 40.936275407434536 41.490020142830986 41.82841970335103 42.259110053103825 42.566746017212964 43.028199963376665 43.33583592748581 43.7665262772386 44.227980223402305 44.6586705731551 44.99707013367515 45.58157846548251 45.79692364035891 46.38143197216627 46.71983153268632 47.02746749679545 47.48892144295917 47.98113898553378 48.319538546053835 48.780992492217536 49.30397363120308 49.73466398095587 50.16535433070866 50.442226698406884 50.71909906610511 51.27284380150155 51.51895257278886 51.88811572971983 52.13422450100714 52.47262406152719 52.811023622047244 53.026368796923634 53.364768357443694 53.580113532320084 53.85698590001831 54.13385826771653 54.34920344259293 54.59531221388024 54.872184581578466 55.087529756454856 55.36440212415309 55.57974729902948 55.79509247390588 56.0719648416041 56.25654642006958 56.59494598058963 56.87181834828786 57.056399926753336 57.27174510162973 57.54861746932796 57.82548983702618 58.1023622047244 58.317707379600805 58.62534334370994 58.90221571140816 59.14832448269547 59.425196850393704 59.64054202527009 59.91741439296832 60.19428676066654 60.440395531953854 60.686504303241165 60.994140267350296 61.240249038637614 61.51712140633583 61.701702984801315 62.009338948910454 62.37850210584142 62.5630836843069 62.83995605200513 63.11682841970335 63.33217359457974 63.48599157663431 63.85515473356528 64.03973631203075 64.25508148690716 64.43966306537264 64.71653543307087 64.99340780076909 65.20875297564548 65.42409815052187 65.57791613257645 65.82402490386376 66.07013367515107 66.22395165720565 66.47006042849296 66.74693279619117 66.80845998901299 66.96227797106756 67.14685954953305 67.20838674235489 67.33144112799853 67.39296832082036 67.45449551364219 67.45449551364219 67.48525911005311 67.48525911005311 67.51602270646401 67.51602270646401 67.54678630287492 67.57754989928584 67.57754989928584 67.60831349569676 67.60831349569676 67.63907709210767 67.63907709210767 67.63907709210767 67.63907709210767 67.63907709210767 67.66984068851858 67.66984068851858 67.7006042849295 67.7006042849295 67.73136788134042 67.73136788134042 67.76213147775132 67.79289507416223 67.82365867057315 67.82365867057315 67.85442226698407 67.88518586339498 67.94671305621681 67.94671305621681 67.97747665262773 67.97747665262773 67.97747665262773 67.97747665262773 67.94671305621681 67.97747665262773 67.97747665262773 67.97747665262773 67.97747665262773 67.97747665262773 67.97747665262773 67.97747665262773 68.00824024903864 68.03900384544954 68.03900384544954 68.03900384544954 68.03900384544954 68.03900384544954 68.03900384544954 68.03900384544954 68.03900384544954 68.03900384544954 68.03900384544954 68.03900384544954 68.03900384544954 68.03900384544954 68.03900384544954 68.03900384544954 68.03900384544954 68.03900384544954 68.03900384544954 68.03900384544954 68.03900384544954 68.03900384544954 68.03900384544954 68.03900384544954 68.03900384544954 68.03900384544954 68.03900384544954 68.03900384544954 68.03900384544954 68.03900384544954 68.03900384544954 68.06976744186046 68.06976744186046 68.06976744186046 68.06976744186046 68.06976744186046 68.06976744186046 68.06976744186046 68.06976744186046 68.06976744186046 68.06976744186046 68.06976744186046 68.06976744186046 68.06976744186046 68.06976744186046 68.06976744186046 68.06976744186046 68.06976744186046 68.06976744186046 68.06976744186046 68.06976744186046 68.06976744186046 68.06976744186046 68.06976744186046 68.06976744186046 68.06976744186046 68.06976744186046 68.06976744186046 68.06976744186046 68.06976744186046 68.06976744186046 68.06976744186046 68.03900384544954 68.06976744186046 68.03900384544954 68.03900384544954 68.03900384544954 68.03900384544954 68.03900384544954 68.03900384544954 68.03900384544954 68.03900384544954 68.03900384544954 68.00824024903864 68.00824024903864 68.00824024903864 68.00824024903864 68.00824024903864 68.00824024903864 68.00824024903864 67.97747665262773 67.97747665262773 67.97747665262773 67.97747665262773 67.97747665262773 67.97747665262773 67.97747665262773 68.00824024903864 67.97747665262773 68.00824024903864 67.97747665262773 67.97747665262773 67.94671305621681 67.94671305621681 67.94671305621681 67.91594945980589 67.91594945980589 67.91594945980589 67.91594945980589 67.88518586339498 67.88518586339498 67.88518586339498 67.88518586339498 67.88518586339498 67.91594945980589 67.88518586339498 67.88518586339498 67.88518586339498 67.88518586339498 67.85442226698407 67.85442226698407 67.85442226698407 67.85442226698407 67.82365867057315 67.82365867057315 67.82365867057315 67.82365867057315 67.82365867057315 67.82365867057315 67.82365867057315 67.79289507416223 67.76213147775132 67.76213147775132 67.76213147775132 67.76213147775132 67.73136788134042 67.73136788134042 67.7006042849295 67.7006042849295 67.66984068851858 67.66984068851858 67.66984068851858 67.66984068851858 67.66984068851858 67.66984068851858 67.66984068851858 67.66984068851858 67.66984068851858 67.66984068851858 67.66984068851858 67.66984068851858 67.66984068851858 67.66984068851858 67.66984068851858 67.66984068851858 67.66984068851858 67.66984068851858 67.66984068851858 67.66984068851858 67.66984068851858 67.66984068851858 67.66984068851858 67.66984068851858 67.66984068851858 67.60831349569676 67.57754989928584 67.54678630287492 67.51602270646401 67.51602270646401 67.45449551364219 67.42373191723127 67.42373191723127 67.39296832082036 67.39296832082036 67.39296832082036 67.39296832082036 67.39296832082036 67.36220472440945 67.36220472440945 67.39296832082036 67.39296832082036 67.39296832082036 67.39296832082036 67.39296832082036 67.39296832082036 67.39296832082036 67.39296832082036 67.39296832082036 67.39296832082036 67.39296832082036 67.39296832082036 67.39296832082036 67.39296832082036 67.39296832082036 67.39296832082036 67.39296832082036 67.39296832082036 67.39296832082036 67.39296832082036 67.39296832082036 67.39296832082036 67.39296832082036 67.36220472440945 67.36220472440945 67.36220472440945 67.30067753158761 67.30067753158761 67.2699139351767 67.2699139351767 67.2699139351767 