29.0 29.0 29.0 29.0 29.0 29.0 29.0 29.0 29.0 29.0 29.0 29.0 29.0 29.0 29.0 29.0 29.0 29.0 29.0 29.0 29.0 29.0 29.0 29.0 29.0 29.0 29.0 29.0 29.0 29.0 29.0 29.0 29.0 29.0 29.0 29.0 29.0 29.0 29.0 29.0 29.0 29.0 29.0 29.0 29.0 29.0 29.0 29.0 29.0 29.0 29.0 29.0 29.0 29.0 29.0 29.0 29.0 29.0 29.0 29.0 29.0 29.0 29.0 29.0 29.0 29.0 29.0 29.0 29.0 29.0 29.0 29.0 29.0 29.0 29.0 29.0 29.0 29.0 29.0 29.0 29.0 29.0 29.0 29.0 29.0 29.0 29.0 29.0 29.0 29.0 29.0 29.0 29.0 29.0 29.0 29.0 29.0 29.0 29.0 29.0 29.0 29.0 29.0 29.0 29.0 29.0 29.0 29.0 29.0 29.0 29.0 29.0 29.0 29.0 29.0 29.0 29.0 29.0 29.0 29.0 29.0 29.0 29.0 29.0 29.0 29.0 29.0 28.969236403589086 28.969236403589086 28.969236403589086 28.969236403589086 28.969236403589086 28.969236403589086 28.969236403589086 28.969236403589086 28.969236403589086 28.969236403589086 28.969236403589086 28.969236403589086 28.969236403589086 28.969236403589086 28.969236403589086 28.969236403589086 28.969236403589086 28.969236403589086 28.969236403589086 28.969236403589086 28.969236403589086 28.969236403589086 28.969236403589086 28.969236403589086 28.969236403589086 28.969236403589086 28.969236403589086 28.969236403589086 28.969236403589086 28.969236403589086 28.969236403589086 28.969236403589086 28.969236403589086 28.969236403589086 28.969236403589086 28.969236403589086 28.969236403589086 28.969236403589086 28.969236403589086 28.969236403589086 28.969236403589086 28.969236403589086 28.969236403589086 28.969236403589086 28.969236403589086 28.969236403589086 28.969236403589086 28.969236403589086 28.969236403589086 28.969236403589086 28.969236403589086 28.969236403589086 28.969236403589086 28.969236403589086 28.969236403589086 28.969236403589086 28.969236403589086 28.969236403589086 28.969236403589086 28.969236403589086 28.969236403589086 28.969236403589086 28.969236403589086 28.969236403589086 28.969236403589086 28.969236403589086 28.969236403589086 28.969236403589086 28.969236403589086 28.969236403589086 28.969236403589086 28.969236403589086 28.969236403589086 28.969236403589086 28.969236403589086 28.969236403589086 28.969236403589086 28.969236403589086 28.969236403589086 28.969236403589086 28.969236403589086 28.969236403589086 28.969236403589086 28.969236403589086 28.969236403589086 28.969236403589086 28.969236403589086 28.969236403589086 28.969236403589086 28.969236403589086 28.969236403589086 28.969236403589086 28.969236403589086 28.969236403589086 28.969236403589086 28.969236403589086 28.969236403589086 28.969236403589086 28.969236403589086 28.969236403589086 28.969236403589086 28.969236403589086 28.969236403589086 28.969236403589086 28.969236403589086 28.969236403589086 28.969236403589086 28.969236403589086 28.969236403589086 28.969236403589086 28.969236403589086 28.969236403589086 28.969236403589086 28.969236403589086 28.969236403589086 28.969236403589086 28.969236403589086 28.969236403589086 28.969236403589086 28.969236403589086 28.969236403589086 28.969236403589086 28.969236403589086 28.969236403589086 28.969236403589086 28.969236403589086 28.969236403589086 28.969236403589086 28.969236403589086 28.969236403589086 28.969236403589086 28.969236403589086 28.969236403589086 28.969236403589086 28.969236403589086 28.969236403589086 28.969236403589086 28.969236403589086 28.969236403589086 28.969236403589086 28.969236403589086 28.969236403589086 28.969236403589086 28.969236403589086 28.969236403589086 28.969236403589086 28.969236403589086 28.969236403589086 28.969236403589086 28.969236403589086 28.969236403589086 28.969236403589086 28.969236403589086 28.969236403589086 28.969236403589086 28.969236403589086 28.969236403589086 28.969236403589086 28.969236403589086 28.969236403589086 28.969236403589086 28.969236403589086 28.969236403589086 28.969236403589086 28.969236403589086 28.969236403589086 28.969236403589086 28.969236403589086 28.969236403589086 28.969236403589086 28.969236403589086 28.969236403589086 28.969236403589086 28.969236403589086 28.969236403589086 28.969236403589086 28.969236403589086 28.969236403589086 28.969236403589086 28.969236403589086 28.969236403589086 28.969236403589086 28.969236403589086 28.969236403589086 28.969236403589086 28.969236403589086 28.969236403589086 28.969236403589086 28.969236403589086 28.969236403589086 28.969236403589086 28.969236403589086 28.969236403589086 28.969236403589086 28.969236403589086 28.969236403589086 28.969236403589086 28.969236403589086 28.969236403589086 28.969236403589086 28.969236403589086 28.969236403589086 28.969236403589086 28.969236403589086 28.969236403589086 28.969236403589086 28.969236403589086 28.969236403589086 28.969236403589086 28.969236403589086 28.969236403589086 28.969236403589086 28.969236403589086 28.969236403589086 28.969236403589086 28.969236403589086 28.969236403589086 28.969236403589086 28.969236403589086 28.969236403589086 28.969236403589086 28.969236403589086 28.969236403589086 28.969236403589086 28.969236403589086 28.969236403589086 29.0 28.969236403589086 28.969236403589086 28.969236403589086 28.969236403589086 28.969236403589086 28.969236403589086 28.969236403589086 28.969236403589086 28.969236403589086 28.969236403589086 28.969236403589086 28.969236403589086 28.969236403589086 28.969236403589086 28.969236403589086 28.969236403589086 28.969236403589086 28.969236403589086 28.969236403589086 28.969236403589086 28.969236403589086 28.969236403589086 28.969236403589086 28.969236403589086 28.969236403589086 28.969236403589086 28.969236403589086 28.969236403589086 28.969236403589086 28.969236403589086 28.969236403589086 28.969236403589086 28.969236403589086 28.969236403589086 28.969236403589086 28.969236403589086 28.969236403589086 28.969236403589086 28.969236403589086 28.969236403589086 28.969236403589086 28.969236403589086 28.969236403589086 28.969236403589086 28.969236403589086 28.969236403589086 28.969236403589086 28.969236403589086 28.969236403589086 28.969236403589086 28.969236403589086 28.969236403589086 28.969236403589086 28.969236403589086 28.969236403589086 28.969236403589086 28.969236403589086 28.969236403589086 28.969236403589086 28.969236403589086 28.969236403589086 28.969236403589086 28.969236403589086 28.969236403589086 28.969236403589086 28.969236403589086 28.969236403589086 28.969236403589086 28.969236403589086 28.969236403589086 28.969236403589086 28.969236403589086 28.969236403589086 28.969236403589086 28.969236403589086 28.969236403589086 28.969236403589086 28.969236403589086 28.969236403589086 28.969236403589086 28.969236403589086 28.969236403589086 28.969236403589086 28.969236403589086 28.969236403589086 28.969236403589086 28.969236403589086 28.969236403589086 28.969236403589086 28.969236403589086 28.969236403589086 28.969236403589086 28.969236403589086 28.969236403589086 28.969236403589086 28.969236403589086 28.969236403589086 28.969236403589086 28.969236403589086 28.969236403589086 28.969236403589086 28.969236403589086 28.969236403589086 28.969236403589086 28.969236403589086 28.969236403589086 28.969236403589086 28.969236403589086 28.969236403589086 28.969236403589086 28.969236403589086 28.969236403589086 28.969236403589086 28.969236403589086 28.969236403589086 28.969236403589086 28.969236403589086 28.969236403589086 28.969236403589086 28.969236403589086 28.969236403589086 28.969236403589086 28.969236403589086 28.969236403589086 28.969236403589086 28.969236403589086 28.969236403589086 28.969236403589086 28.969236403589086 28.969236403589086 28.969236403589086 28.969236403589086 28.969236403589086 28.969236403589086 28.969236403589086 28.969236403589086 28.969236403589086 28.969236403589086 28.969236403589086 28.969236403589086 28.969236403589086 28.969236403589086 28.969236403589086 28.969236403589086 28.969236403589086 28.969236403589086 28.969236403589086 28.969236403589086 28.969236403589086 28.969236403589086 28.969236403589086 28.969236403589086 28.969236403589086 28.969236403589086 28.969236403589086 28.969236403589086 28.969236403589086 28.969236403589086 28.969236403589086 28.969236403589086 28.969236403589086 28.969236403589086 28.969236403589086 28.969236403589086 28.969236403589086 28.969236403589086 28.969236403589086 28.969236403589086 28.969236403589086 28.969236403589086 28.969236403589086 28.969236403589086 28.969236403589086 28.969236403589086 28.969236403589086 28.969236403589086 28.969236403589086 28.969236403589086 28.969236403589086 28.969236403589086 28.969236403589086 28.969236403589086 28.969236403589086 28.969236403589086 28.969236403589086 28.969236403589086 28.969236403589086 28.969236403589086 28.969236403589086 28.969236403589086 28.969236403589086 28.969236403589086 28.969236403589086 28.969236403589086 28.969236403589086 28.969236403589086 28.969236403589086 28.969236403589086 28.969236403589086 28.969236403589086 28.969236403589086 28.969236403589086 28.969236403589086 28.969236403589086 28.969236403589086 28.969236403589086 28.969236403589086 28.969236403589086 28.969236403589086 28.969236403589086 28.969236403589086 28.969236403589086 28.969236403589086 28.969236403589086 28.969236403589086 28.969236403589086 28.969236403589086 28.969236403589086 28.969236403589086 28.969236403589086 28.969236403589086 28.969236403589086 28.969236403589086 28.969236403589086 28.969236403589086 28.969236403589086 28.969236403589086 28.969236403589086 28.969236403589086 28.969236403589086 28.969236403589086 28.969236403589086 28.969236403589086 28.969236403589086 28.969236403589086 28.969236403589086 28.969236403589086 28.969236403589086 28.969236403589086 28.969236403589086 28.969236403589086 28.969236403589086 29.0 28.969236403589086 28.969236403589086 28.969236403589086 28.969236403589086 28.969236403589086 28.969236403589086 28.969236403589086 28.969236403589086 28.969236403589086 28.969236403589086 28.969236403589086 28.969236403589086 28.969236403589086 28.969236403589086 28.969236403589086 28.969236403589086 28.969236403589086 28.969236403589086 28.969236403589086 28.969236403589086 28.969236403589086 28.969236403589086 28.969236403589086 28.969236403589086 28.969236403589086 28.969236403589086 28.969236403589086 28.969236403589086 28.969236403589086 28.969236403589086 28.969236403589086 28.969236403589086 28.969236403589086 28.969236403589086 28.969236403589086 28.969236403589086 28.969236403589086 28.969236403589086 28.938472807178172 28.969236403589086 28.969236403589086 28.969236403589086 28.969236403589086 28.969236403589086 28.969236403589086 28.969236403589086 28.969236403589086 28.969236403589086 28.969236403589086 28.969236403589086 28.969236403589086 28.969236403589086 28.969236403589086 28.969236403589086 28.969236403589086 28.969236403589086 28.969236403589086 28.969236403589086 28.969236403589086 28.969236403589086 28.969236403589086 28.969236403589086 28.969236403589086 28.969236403589086 28.969236403589086 28.969236403589086 28.969236403589086 28.969236403589086 28.969236403589086 28.969236403589086 28.969236403589086 28.969236403589086 28.969236403589086 28.969236403589086 28.969236403589086 28.969236403589086 28.969236403589086 28.969236403589086 28.969236403589086 28.969236403589086 28.969236403589086 28.969236403589086 28.969236403589086 28.969236403589086 28.969236403589086 28.969236403589086 28.969236403589086 28.969236403589086 28.969236403589086 28.969236403589086 28.969236403589086 28.969236403589086 28.969236403589086 28.969236403589086 28.969236403589086 28.969236403589086 28.969236403589086 28.969236403589086 28.969236403589086 28.969236403589086 28.969236403589086 28.969236403589086 28.969236403589086 28.969236403589086 28.969236403589086 28.969236403589086 28.969236403589086 28.938472807178172 28.969236403589086 28.969236403589086 28.969236403589086 28.969236403589086 28.969236403589086 28.969236403589086 28.969236403589086 28.969236403589086 28.969236403589086 28.969236403589086 28.969236403589086 28.969236403589086 28.969236403589086 28.969236403589086 28.969236403589086 28.969236403589086 28.969236403589086 28.969236403589086 28.969236403589086 28.969236403589086 28.969236403589086 28.969236403589086 28.969236403589086 28.969236403589086 28.969236403589086 28.969236403589086 28.969236403589086 28.969236403589086 28.969236403589086 28.969236403589086 28.969236403589086 28.969236403589086 28.969236403589086 28.969236403589086 28.969236403589086 28.969236403589086 28.969236403589086 28.969236403589086 28.969236403589086 28.969236403589086 28.969236403589086 28.969236403589086 28.969236403589086 28.969236403589086 28.969236403589086 28.969236403589086 28.969236403589086 28.969236403589086 28.969236403589086 28.969236403589086 28.969236403589086 28.969236403589086 28.969236403589086 28.969236403589086 28.969236403589086 28.969236403589086 28.969236403589086 28.969236403589086 28.969236403589086 28.969236403589086 28.969236403589086 28.969236403589086 28.969236403589086 28.969236403589086 28.969236403589086 28.969236403589086 28.969236403589086 28.969236403589086 28.969236403589086 28.969236403589086 28.969236403589086 28.969236403589086 28.969236403589086 28.969236403589086 28.969236403589086 28.969236403589086 28.969236403589086 28.969236403589086 28.969236403589086 28.969236403589086 28.969236403589086 28.969236403589086 28.969236403589086 28.969236403589086 28.969236403589086 28.969236403589086 28.969236403589086 28.969236403589086 28.969236403589086 28.969236403589086 28.969236403589086 28.969236403589086 28.969236403589086 28.969236403589086 28.969236403589086 28.969236403589086 28.969236403589086 28.969236403589086 28.969236403589086 28.969236403589086 28.969236403589086 28.969236403589086 28.969236403589086 28.969236403589086 28.969236403589086 28.969236403589086 28.969236403589086 28.969236403589086 28.969236403589086 28.969236403589086 28.969236403589086 28.969236403589086 28.969236403589086 28.969236403589086 28.969236403589086 28.969236403589086 28.969236403589086 28.969236403589086 28.969236403589086 28.969236403589086 28.969236403589086 28.969236403589086 28.969236403589086 28.969236403589086 28.969236403589086 28.969236403589086 28.969236403589086 28.969236403589086 28.969236403589086 28.969236403589086 28.969236403589086 28.969236403589086 28.969236403589086 28.969236403589086 28.969236403589086 28.969236403589086 28.969236403589086 28.969236403589086 28.969236403589086 28.969236403589086 28.969236403589086 28.969236403589086 28.969236403589086 28.969236403589086 28.969236403589086 28.969236403589086 28.969236403589086 28.969236403589086 28.969236403589086 28.969236403589086 28.969236403589086 28.969236403589086 28.969236403589086 28.969236403589086 28.969236403589086 28.969236403589086 28.969236403589086 28.969236403589086 28.969236403589086 28.938472807178172 28.969236403589086 28.969236403589086 28.969236403589086 28.969236403589086 28.969236403589086 28.938472807178172 28.969236403589086 28.969236403589086 28.969236403589086 28.969236403589086 28.969236403589086 28.969236403589086 28.969236403589086 28.969236403589086 28.969236403589086 28.969236403589086 28.969236403589086 28.969236403589086 28.969236403589086 28.969236403589086 28.969236403589086 28.969236403589086 28.969236403589086 28.969236403589086 28.969236403589086 28.969236403589086 28.969236403589086 28.969236403589086 28.969236403589086 28.969236403589086 28.969236403589086 28.969236403589086 28.969236403589086 28.969236403589086 28.969236403589086 28.969236403589086 28.969236403589086 28.969236403589086 28.969236403589086 28.969236403589086 28.969236403589086 28.969236403589086 28.969236403589086 28.969236403589086 28.969236403589086 28.969236403589086 28.969236403589086 28.969236403589086 28.969236403589086 28.969236403589086 29.0 29.09229078923274 29.215345174876397 29.39992675334188 29.58450833180736 29.73832631386193 29.98443508514924 30.07672587438198 30.23054385643655 30.47665262772386 30.599707013367514 30.845815784654825 31.06116095953122 31.245742537996705 31.584142098516754 31.95330525544772 32.414759201611425 32.968503937007874 33.33766709393884 33.922175425746204 34.537447353964474 34.96813770371727 35.55264603552463 35.9218091924556 36.3832631386193 36.998535066837576 37.306171030946714 37.9522065555759 38.59824208020509 38.99816883354697 39.85954953305256 40.536348654092656 40.75169382896905 41.73612891411829 42.28987364951474 43.12049075260941 43.7665262772386 44.6586705731551 45.5508148690716 46.196850393700785 47.1197582860282 48.073429774766524 48.780992492217536 49.79619117377769 50.842153451748764 51.58047976561069 52.62644204358176 53.364768357443694 54.31843984618202 55.30287493133125 55.91814685954953 57.08716352316425 57.8562534334371 58.68687053653177 58.99450650064091 59.54825123603735 60.132759567844715 60.87108588170665 61.64017579197949 62.31697491301959 62.83995605200513 63.516755173045226 64.22431789049625 64.74729902948178 65.39333455411096 66.07013367515107 66.77769639260208 67.20838674235489 67.63907709210767 68.19282182750412 68.8388573521333 69.17725691265336 69.45412928035158 69.85405603369347 70.16169199780259 70.56161875114448 71.05383629371909 71.54605383629371 72.00750778245742 72.31514374656656 72.65354330708661 73.05347006042848 73.45339681377037 73.79179637429041 74.00714154916682 74.28401391686504 74.49935909174144 74.59164988097417 74.71470426661784 74.77623145943966 74.77623145943966 74.77623145943966 74.77623145943966 74.77623145943966 74.77623145943966 74.77623145943966 74.77623145943966 74.77623145943966 74.80699505585056 74.8685222486724 74.93004944149423 75.02234023072697 75.11463101995972 75.14539461637062 75.20692180919245 75.23768540560337 75.23768540560337 75.26844900201428 75.29921259842519 75.3299761948361 75.3299761948361 75.3299761948361 75.3299761948361 75.3299761948361 75.3299761948361 75.3299761948361 75.3299761948361 75.3299761948361 75.3299761948361 75.3299761948361 75.29921259842519 75.29921259842519 75.29921259842519 75.29921259842519 75.29921259842519 75.29921259842519 75.26844900201428 75.26844900201428 75.23768540560337 75.20692180919245 75.17615821278153 75.14539461637062 75.14539461637062 75.14539461637062 75.05310382713789 75.02234023072697 74.89928584508331 74.80699505585056 74.68394067020691 74.56088628456325 74.46859549533052 74.37630470609778 74.31477751327596 74.31477751327596 74.28401391686504 74.28401391686504 74.25325032045413 74.25325032045413 74.22248672404322 74.1917231276323 74.16095953122138 74.16095953122138 74.13019593481047 74.16095953122138 74.13019593481047 74.09943233839957 74.09943233839957 74.00714154916682 73.94561435634498 73.91485075993407 73.85332356711226 73.82255997070132 73.7610327778795 73.7302691814686 73.7302691814686 73.69950558505768 73.69950558505768 73.66874198864676 73.69950558505768 73.66874198864676 73.66874198864676 73.66874198864676 73.66874198864676 73.63797839223585 73.63797839223585 73.60721479582494 73.57645119941402 73.5456876030031 73.5149240065922 73.48416041018129 73.45339681377037 73.39186962094854 73.36110602453763 73.29957883171579 73.26881523530488 73.23805163889398 73.23805163889398 73.23805163889398 73.23805163889398 73.23805163889398 73.23805163889398 73.20728804248306 73.17652444607214 73.17652444607214 73.14576084966123 73.14576084966123 73.17652444607214 73.14576084966123 73.14576084966123 73.11499725325032 73.11499725325032 73.11499725325032 73.11499725325032 73.11499725325032 73.11499725325032 73.11499725325032 73.11499725325032 73.0842336568394 73.0842336568394 73.0842336568394 73.0842336568394 73.0842336568394 73.0842336568394 73.0842336568394 73.05347006042848 72.99194286760667 72.96117927119576 72.93041567478483 72.89965207837392 72.86888848196301 72.86888848196301 72.83812488555209 72.86888848196301 72.83812488555209 72.86888848196301 72.86888848196301 72.86888848196301 72.86888848196301 72.86888848196301 72.86888848196301 72.86888848196301 72.86888848196301 72.86888848196301 72.86888848196301 72.89965207837392 72.86888848196301 72.86888848196301 72.86888848196301 72.89965207837392 72.89965207837392 72.86888848196301 72.89965207837392 72.89965207837392 72.86888848196301 72.86888848196301 72.89965207837392 72.86888848196301 72.86888848196301 72.86888848196301 72.86888848196301 72.86888848196301 72.86888848196301 72.86888848196301 72.83812488555209 72.80736128914117 72.74583409631936 72.71507049990844 72.68430690349753 72.65354330708661 72.65354330708661 72.6227797106757 72.65354330708661 72.65354330708661 72.65354330708661 72.68430690349753 72.68430690349753 72.71507049990844 72.71507049990844 72.71507049990844 72.71507049990844 72.71507049990844 72.68430690349753 72.71507049990844 72.68430690349753 72.68430690349753 72.68430690349753 72.68430690349753 72.68430690349753 72.65354330708661 72.6227797106757 72.5920161142648 72.5920161142648 72.56125251785386 72.56125251785386 72.53048892144295 72.49972532503205 72.43819813221022 72.37667093938839 72.31514374656656 72.31514374656656 72.31514374656656 72.28438015015564 72.28438015015564 72.31514374656656 72.31514374656656 72.31514374656656 72.31514374656656 72.31514374656656 72.31514374656656 72.31514374656656 72.31514374656656 72.28438015015564 72.28438015015564 72.25361655374473 72.22285295733383 72.19208936092289 72.16132576451199 72.16132576451199 72.16132576451199 72.13056216810108 72.09979857169017 72.09979857169017 72.09979857169017 72.09979857169017 72.09979857169017 72.09979857169017 72.06903497527925 72.06903497527925 72.03827137886833 72.03827137886833 72.00750778245742 72.03827137886833 72.00750778245742 72.00750778245742 71.9459805896356 71.88445339681377 71.82292620399194 71.69987181834829 71.63834462552646 71.57681743270463 71.57681743270463 71.57681743270463 71.57681743270463 71.57681743270463 71.57681743270463 71.57681743270463 71.57681743270463 71.57681743270463 71.57681743270463 71.57681743270463 71.57681743270463 71.57681743270463 71.57681743270463 71.57681743270463 71.57681743270463 71.54605383629371 71.54605383629371 71.57681743270463 71.54605383629371 71.4845266434719 71.45376304706097 71.42299945065005 71.42299945065005 71.39223585423915 71.36147225782824 71.36147225782824 71.33070866141732 71.33070866141732 71.2999450650064 71.26918146859549 71.26918146859549 71.23841787218458 71.20765427577366 71.20765427577366 71.14612708295184 71.11536348654093 71.08459989013001 71.02307269730818 71.02307269730818 70.99230910089727 70.96154550448635 70.96154550448635 70.93078190807545 70.93078190807545 70.93078190807545 70.93078190807545 70.90001831166452 70.90001831166452 70.93078190807545 70.93078190807545 70.93078190807545 70.93078190807545 70.90001831166452 70.93078190807545 70.93078190807545 70.93078190807545 70.90001831166452 70.90001831166452 70.86925471525362 70.86925471525362 70.8384911188427 70.80772752243178 70.77696392602087 70.77696392602087 70.74620032960996 70.77696392602087 70.74620032960996 70.77696392602087 70.74620032960996 70.74620032960996 70.74620032960996 70.77696392602087 70.77696392602087 70.77696392602087 70.77696392602087 70.77696392602087 70.77696392602087 70.80772752243178 70.80772752243178 70.80772752243178 70.80772752243178 70.80772752243178 70.77696392602087 70.80772752243178 70.77696392602087 70.74620032960996 70.71543673319906 70.71543673319906 70.68467313678812 70.68467313678812 70.68467313678812 70.65390954037721 70.68467313678812 70.68467313678812 70.68467313678812 70.71543673319906 70.71543673319906 70.74620032960996 70.71543673319906 70.74620032960996 70.74620032960996 70.71543673319906 70.71543673319906 70.74620032960996 70.74620032960996 70.74620032960996 70.71543673319906 70.71543673319906 70.71543673319906 70.71543673319906 70.71543673319906 70.71543673319906 70.71543673319906 70.71543673319906 70.71543673319906 70.71543673319906 70.71543673319906 70.71543673319906 70.71543673319906 70.71543673319906 70.71543673319906 70.71543673319906 70.74620032960996 70.74620032960996 70.74620032960996 70.74620032960996 70.74620032960996 70.74620032960996 70.74620032960996 70.74620032960996 70.74620032960996 70.71543673319906 70.71543673319906 70.71543673319906 70.71543673319906 70.71543673319906 70.65390954037721 70.65390954037721 70.6231459439663 70.59238234755539 70.59238234755539 70.59238234755539 70.56161875114448 70.56161875114448 70.53085515473356 70.53085515473356 70.46932796191174 70.43856436550081 70.377037172679 70.31550997985717 70.25398278703534 70.16169199780259 70.10016480498078 69.9463468229262 69.73100164804981 69.60794726240616 69.45412928035158 69.300311298297 69.08496612342061 68.86962094854422 68.65427577366782 68.25434902032595 67.88518586339498 67.66984068851858 67.2699139351767 67.11609595312214 66.68540560336935 66.1624244643838 65.85478850027468 65.27028016846731 64.96264420435817 64.62424464383813 64.1320271012635 63.73210034792162 63.27064640175792 62.74766526277239 62.37850210584142 61.855520966855885 61.33253982787035 60.84032228529573 60.34810474272111 59.94817798937923 59.64054202527009 59.27137886833913 58.99450650064091 58.37923457242263 57.79472624061527 57.4255630836843 57.14869071598608 56.81029115546603 56.47189159494598 56.01043764878227 55.67203808826222 55.179820545687605 54.7183665995239 54.34920344259293 53.826222303607395 53.45705914667643 52.9340780076909 52.44186046511628 52.07269730818531 51.61124336202161 51.11902581944699 50.78062625892693 50.134590734297745 49.91924555942135 49.580845998901296 48.99633766709394 48.65793810657389 48.13495696758835 47.61197582860282 47.27357626808276 46.78135872550815 46.41219556857718 45.91997802600257 45.396996887017025 45.02783373008606 44.4433253982787 43.95110785570408 43.52041750595129 42.99743636696576 42.62827321003479 42.16681926387108 41.73612891411829 41.490020142830986 41.02856619666728 40.81322102179088 40.56711225050357 40.38253067203809 40.16718549716169 39.982603918696206 39.76725874381981 39.5211499725325 39.21351400842337 38.99816883354697 38.69053286943783 38.35213330891778 38.075260941219554 37.73686138069951 37.4907526094122 37.33693462735763 37.12158945248123 36.998535066837576 36.81395348837209 36.62937190990661 36.506317524262954 36.3832631386193 36.198681560153815 36.106390770921074 35.89104559604468 35.64493682475737 35.491118842702804 35.27577366782641 35.09119208936092 34.937374107306354 34.72202893242996 34.537447353964474 34.32210217908808 34.229811389855335 34.075993407800766 33.95293902215711 33.829884636513455 33.64530305804798 33.58377586522615 33.49148507599341 33.39919428676067 33.33766709393884 33.214612708295185 33.09155832265153 33.0300311298297 32.93774034059696 32.87621314777513 32.78392235854239 32.69163156930965 32.59934078007691 32.44552279802234 32.32246841237868 32.23017762314594 32.07635964109137 32.04559604468046 31.891778062625892 31.79948727339315 31.737960080571323 31.64566929133858 31.55337850210584 31.491851309284012 31.430324116462188 31.36879692364036 31.27650613440762 31.184215345174877 31.153451748763963 31.06116095953122 30.96887017029848 30.907342977476652 30.753524995422083 30.72276139901117 30.630470609778428 30.538179820545686 30.538179820545686 30.538179820545686 30.507416224134772 30.47665262772386 30.47665262772386 30.445889031312948 30.415125434902034 30.38436183849112 30.353598242080206 30.353598242080206 30.353598242080206 30.322834645669293 30.322834645669293 30.322834645669293 30.29207104925838 30.29207104925838 30.261307452847465 30.261307452847465 30.23054385643655 30.23054385643655 30.199780260025637 30.199780260025637 30.199780260025637 30.169016663614723 30.169016663614723 30.13825306720381 30.13825306720381 30.107489470792896 30.107489470792896 30.107489470792896 30.07672587438198 30.07672587438198 30.07672587438198 30.045962277971068 30.045962277971068 30.015198681560154 29.98443508514924 29.953671488738326 29.922907892327412 29.861380699505585 29.83061710309467 29.83061710309467 29.799853506683757 29.799853506683757 29.769089910272843 29.769089910272843 29.73832631386193 29.73832631386193 29.707562717451015 29.707562717451015 29.707562717451015 29.6767991210401 29.707562717451015 29.6767991210401 29.646035524629188 29.646035524629188 29.646035524629188 29.646035524629188 29.646035524629188 29.646035524629188 29.615271928218274 29.646035524629188 29.615271928218274 29.615271928218274 29.615271928218274 29.58450833180736 29.58450833180736 29.553744735396446 29.553744735396446 29.553744735396446 29.553744735396446 29.522981138985532 29.522981138985532 29.522981138985532 29.522981138985532 29.522981138985532 29.49221754257462 29.522981138985532 29.522981138985532 29.49221754257462 29.49221754257462 29.49221754257462 29.49221754257462 29.49221754257462 29.49221754257462 29.49221754257462 29.49221754257462 29.49221754257462 29.49221754257462 29.49221754257462 29.49221754257462 29.49221754257462 29.49221754257462 29.49221754257462 29.49221754257462 29.461453946163708 29.461453946163708 29.461453946163708 29.461453946163708 29.461453946163708 29.461453946163708 29.461453946163708 29.461453946163708 29.461453946163708 29.430690349752794 29.430690349752794 29.430690349752794 29.430690349752794 29.430690349752794 29.39992675334188 29.39992675334188 29.39992675334188 29.39992675334188 29.39992675334188 29.39992675334188 29.39992675334188 29.39992675334188 29.39992675334188 29.39992675334188 29.39992675334188 29.39992675334188 29.39992675334188 29.39992675334188 29.39992675334188 29.39992675334188 29.369163156930966 29.39992675334188 29.39992675334188 29.369163156930966 29.369163156930966 29.369163156930966 29.369163156930966 29.369163156930966 29.338399560520052 29.369163156930966 29.338399560520052 29.338399560520052 29.338399560520052 29.338399560520052 29.30763596410914 29.30763596410914 29.30763596410914 29.30763596410914 29.30763596410914 29.30763596410914 29.30763596410914 29.30763596410914 29.30763596410914 29.30763596410914 29.276872367698225 29.30763596410914 29.276872367698225 29.30763596410914 29.276872367698225 29.276872367698225 29.276872367698225 29.276872367698225 29.276872367698225 29.24610877128731 29.24610877128731 29.24610877128731 29.24610877128731 29.24610877128731 29.24610877128731 29.24610877128731 29.24610877128731 29.215345174876397 29.215345174876397 29.215345174876397 29.215345174876397 29.215345174876397 29.184581578465483 29.215345174876397 29.215345174876397 29.215345174876397 29.184581578465483 29.184581578465483 29.215345174876397 29.184581578465483 29.215345174876397 29.184581578465483 29.215345174876397 29.215345174876397 29.215345174876397 29.184581578465483 29.215345174876397 29.184581578465483 29.184581578465483 29.184581578465483 29.184581578465483 29.184581578465483 29.215345174876397 29.184581578465483 29.184581578465483 29.215345174876397 29.215345174876397 29.215345174876397 29.215345174876397 29.184581578465483 29.184581578465483 29.184581578465483 29.215345174876397 29.184581578465483 29.184581578465483 29.184581578465483 29.184581578465483 29.184581578465483 29.215345174876397 29.184581578465483 29.184581578465483 29.184581578465483 29.184581578465483 29.184581578465483 29.184581578465483 29.184581578465483 29.215345174876397 29.184581578465483 29.215345174876397 29.215345174876397 29.184581578465483 29.215345174876397 29.184581578465483 29.184581578465483 29.184581578465483 29.215345174876397 29.184581578465483 29.184581578465483 29.184581578465483 29.184581578465483 29.184581578465483 29.184581578465483 29.215345174876397 29.184581578465483 29.184581578465483 29.184581578465483 29.184581578465483 29.184581578465483 29.184581578465483 29.215345174876397 29.184581578465483 29.184581578465483 29.184581578465483 29.184581578465483 29.184581578465483 29.184581578465483 29.184581578465483 29.184581578465483 29.184581578465483 29.184581578465483 29.184581578465483 29.184581578465483 29.215345174876397 29.184581578465483 29.184581578465483 29.215345174876397 29.184581578465483 29.184581578465483 29.184581578465483 29.184581578465483 29.184581578465483 29.184581578465483 29.184581578465483 29.184581578465483 29.184581578465483 29.184581578465483 29.184581578465483 29.184581578465483 29.184581578465483 29.184581578465483 29.184581578465483 29.184581578465483 29.184581578465483 29.184581578465483 29.184581578465483 29.184581578465483 29.184581578465483 29.184581578465483 29.215345174876397 29.184581578465483 29.184581578465483 29.184581578465483 29.215345174876397 29.184581578465483 29.184581578465483 29.184581578465483 29.184581578465483 29.184581578465483 29.184581578465483 29.215345174876397 29.184581578465483 29.184581578465483 29.184581578465483 29.184581578465483 29.184581578465483 29.215345174876397 29.184581578465483 29.184581578465483 29.184581578465483 29.184581578465483 29.184581578465483 29.215345174876397 29.184581578465483 29.184581578465483 29.184581578465483 29.184581578465483 29.184581578465483 29.215345174876397 29.215345174876397 29.184581578465483 29.184581578465483 29.184581578465483 29.184581578465483 29.184581578465483 29.184581578465483 29.184581578465483 29.184581578465483 29.184581578465483 29.184581578465483 29.184581578465483 29.184581578465483 29.184581578465483 29.184581578465483 29.215345174876397 29.184581578465483 29.184581578465483 29.215345174876397 29.184581578465483 29.184581578465483 29.215345174876397 29.184581578465483 29.184581578465483 29.184581578465483 29.215345174876397 29.184581578465483 29.215345174876397 29.184581578465483 29.184581578465483 29.184581578465483 29.184581578465483 29.184581578465483 29.184581578465483 29.184581578465483 29.184581578465483 29.184581578465483 29.184581578465483 29.184581578465483 29.215345174876397 29.215345174876397 29.184581578465483 29.184581578465483 29.184581578465483 29.215345174876397 29.215345174876397 29.184581578465483 29.184581578465483 29.184581578465483 29.184581578465483 29.184581578465483 29.184581578465483 29.184581578465483 29.184581578465483 29.215345174876397 29.184581578465483 29.184581578465483 29.184581578465483 29.215345174876397 29.215345174876397 29.184581578465483 29.184581578465483 29.184581578465483 29.184581578465483 29.184581578465483 29.184581578465483 29.184581578465483 29.215345174876397 29.184581578465483 29.184581578465483 29.184581578465483 29.184581578465483 29.215345174876397 29.184581578465483 29.215345174876397 29.184581578465483 29.184581578465483 29.184581578465483 29.215345174876397 29.184581578465483 29.184581578465483 29.184581578465483 29.184581578465483 29.184581578465483 29.215345174876397 29.184581578465483 29.184581578465483 29.184581578465483 29.184581578465483 29.184581578465483 29.184581578465483 29.215345174876397 29.184581578465483 29.184581578465483 29.184581578465483 29.184581578465483 29.184581578465483 29.184581578465483 29.184581578465483 29.184581578465483 29.184581578465483 29.215345174876397 29.184581578465483 29.184581578465483 29.184581578465483 29.184581578465483 29.184581578465483 29.184581578465483 29.184581578465483 29.184581578465483 29.184581578465483 29.184581578465483 29.184581578465483 29.184581578465483 29.215345174876397 29.184581578465483 29.184581578465483 29.184581578465483 29.184581578465483 29.184581578465483 29.215345174876397 29.184581578465483 29.184581578465483 29.184581578465483 29.184581578465483 29.184581578465483 29.184581578465483 29.184581578465483 29.184581578465483 29.184581578465483 29.184581578465483 29.184581578465483 29.215345174876397 29.184581578465483 29.184581578465483 29.184581578465483 29.184581578465483 29.184581578465483 29.215345174876397 29.184581578465483 29.184581578465483 29.184581578465483 29.184581578465483 29.184581578465483 29.184581578465483 29.215345174876397 29.184581578465483 29.184581578465483 29.184581578465483 29.184581578465483 29.184581578465483 29.184581578465483 29.184581578465483 29.215345174876397 29.215345174876397 29.215345174876397 29.184581578465483 29.184581578465483 29.184581578465483 29.184581578465483 29.184581578465483 29.184581578465483 29.184581578465483 29.184581578465483 29.184581578465483 29.184581578465483 29.184581578465483 29.184581578465483 29.184581578465483 29.184581578465483 29.215345174876397 29.184581578465483 29.184581578465483 29.184581578465483 29.215345174876397 29.184581578465483 29.184581578465483 29.184581578465483 29.184581578465483 29.184581578465483 29.184581578465483 29.184581578465483 29.184581578465483 29.184581578465483 29.215345174876397 29.184581578465483 29.184581578465483 29.184581578465483 29.184581578465483 29.184581578465483 29.184581578465483 29.184581578465483 29.184581578465483 29.184581578465483 29.215345174876397 29.215345174876397 29.184581578465483 29.215345174876397 29.184581578465483 29.215345174876397 29.184581578465483 29.184581578465483 29.184581578465483 29.184581578465483 29.184581578465483 29.184581578465483 29.184581578465483 29.184581578465483 29.184581578465483 29.184581578465483 29.184581578465483 29.184581578465483 29.184581578465483 29.184581578465483 29.184581578465483 29.184581578465483 29.184581578465483 29.215345174876397 29.184581578465483 29.184581578465483 29.184581578465483 29.184581578465483 29.184581578465483 29.215345174876397 29.184581578465483 29.184581578465483 29.184581578465483 29.184581578465483 29.184581578465483 29.184581578465483 29.184581578465483 29.215345174876397 29.184581578465483 29.184581578465483 29.184581578465483 29.184581578465483 29.184581578465483 29.184581578465483 29.215345174876397 29.184581578465483 29.184581578465483 29.184581578465483 29.184581578465483 29.184581578465483 29.184581578465483 29.215345174876397 29.184581578465483 29.184581578465483 29.184581578465483 29.184581578465483 29.215345174876397 29.184581578465483 29.184581578465483 29.184581578465483 29.184581578465483 29.184581578465483 29.184581578465483 29.215345174876397 29.215345174876397 29.184581578465483 29.184581578465483 29.184581578465483 29.184581578465483 29.184581578465483 29.184581578465483 29.184581578465483 29.184581578465483 29.184581578465483 29.184581578465483 29.184581578465483 29.184581578465483 29.184581578465483 29.184581578465483 29.184581578465483 29.184581578465483 29.184581578465483 29.215345174876397 29.215345174876397 29.184581578465483 29.184581578465483 29.184581578465483 29.184581578465483 29.184581578465483 29.184581578465483 29.184581578465483 29.184581578465483 29.184581578465483 29.184581578465483 29.184581578465483 29.184581578465483 29.184581578465483 29.184581578465483 29.184581578465483 29.184581578465483 29.184581578465483 29.184581578465483 29.184581578465483 29.184581578465483 29.184581578465483 29.215345174876397 29.184581578465483 29.184581578465483 29.184581578465483 29.184581578465483 29.184581578465483 29.184581578465483 29.184581578465483 29.184581578465483 29.184581578465483 29.184581578465483 29.184581578465483 29.184581578465483 29.184581578465483 29.184581578465483 29.184581578465483 29.184581578465483 29.184581578465483 29.184581578465483 29.184581578465483 29.184581578465483 29.184581578465483 29.184581578465483 29.184581578465483 29.215345174876397 29.184581578465483 29.184581578465483 29.184581578465483 29.184581578465483 29.184581578465483 29.184581578465483 29.184581578465483 29.184581578465483 29.184581578465483 29.184581578465483 29.184581578465483 29.184581578465483 29.184581578465483 29.184581578465483 29.184581578465483 29.215345174876397 29.184581578465483 29.215345174876397 29.184581578465483 29.184581578465483 29.184581578465483 29.184581578465483 29.184581578465483 29.184581578465483 29.184581578465483 29.184581578465483 29.184581578465483 29.184581578465483 29.184581578465483 29.184581578465483 29.184581578465483 29.184581578465483 29.184581578465483 29.184581578465483 29.184581578465483 29.184581578465483 29.184581578465483 29.184581578465483 29.184581578465483 29.184581578465483 29.184581578465483 29.184581578465483 29.184581578465483 29.184581578465483 29.184581578465483 29.215345174876397 29.184581578465483 29.184581578465483 29.184581578465483 29.184581578465483 29.184581578465483 29.184581578465483 29.215345174876397 29.184581578465483 29.184581578465483 29.184581578465483 29.184581578465483 29.184581578465483 29.184581578465483 29.184581578465483 29.184581578465483 29.184581578465483 29.184581578465483 29.184581578465483 29.184581578465483 29.184581578465483 29.184581578465483 29.184581578465483 29.184581578465483 29.184581578465483 29.184581578465483 29.184581578465483 29.184581578465483 29.184581578465483 29.184581578465483 29.184581578465483 29.184581578465483 29.184581578465483 29.184581578465483 29.184581578465483 29.184581578465483 29.184581578465483 29.184581578465483 29.184581578465483 29.184581578465483 29.184581578465483 29.184581578465483 29.184581578465483 29.215345174876397 29.215345174876397 29.184581578465483 29.184581578465483 29.184581578465483 29.184581578465483 29.215345174876397 29.184581578465483 29.184581578465483 29.184581578465483 29.184581578465483 29.184581578465483 29.184581578465483 29.184581578465483 29.184581578465483 29.184581578465483 29.184581578465483 29.184581578465483 29.184581578465483 29.184581578465483 29.184581578465483 29.184581578465483 29.184581578465483 29.184581578465483 29.184581578465483 29.184581578465483 29.215345174876397 29.184581578465483 29.184581578465483 29.184581578465483 29.184581578465483 29.184581578465483 29.184581578465483 29.184581578465483 29.184581578465483 29.184581578465483 29.184581578465483 29.184581578465483 29.184581578465483 29.215345174876397 29.184581578465483 29.184581578465483 29.184581578465483 29.184581578465483 29.215345174876397 29.184581578465483 29.184581578465483 29.184581578465483 29.184581578465483 29.184581578465483 29.184581578465483 29.184581578465483 29.184581578465483 29.184581578465483 29.184581578465483 29.184581578465483 29.184581578465483 29.215345174876397 29.184581578465483 29.184581578465483 29.184581578465483 29.184581578465483 29.184581578465483 29.184581578465483 29.215345174876397 29.184581578465483 29.184581578465483 29.184581578465483 29.184581578465483 29.184581578465483 29.184581578465483 29.184581578465483 29.184581578465483 29.184581578465483 29.184581578465483 29.184581578465483 29.184581578465483 29.184581578465483 29.184581578465483 29.184581578465483 29.184581578465483 29.184581578465483 29.184581578465483 29.184581578465483 29.184581578465483 29.184581578465483 29.184581578465483 29.184581578465483 29.184581578465483 29.184581578465483 29.184581578465483 29.184581578465483 29.184581578465483 29.184581578465483 29.184581578465483 29.184581578465483 29.184581578465483 29.184581578465483 29.184581578465483 29.184581578465483 29.184581578465483 29.184581578465483 29.184581578465483 29.184581578465483 29.215345174876397 29.184581578465483 29.184581578465483 29.184581578465483 29.184581578465483 29.184581578465483 29.184581578465483 29.184581578465483 29.184581578465483 29.184581578465483 29.184581578465483 29.184581578465483 29.184581578465483 29.184581578465483 29.184581578465483 29.184581578465483 29.184581578465483 29.184581578465483 29.184581578465483 29.184581578465483 29.184581578465483 29.184581578465483 29.184581578465483 29.184581578465483 29.184581578465483 29.184581578465483 29.215345174876397 29.184581578465483 29.215345174876397 29.184581578465483 29.215345174876397 29.184581578465483 29.215345174876397 29.215345174876397 29.215345174876397 29.215345174876397 29.215345174876397 29.24610877128731 29.338399560520052 29.430690349752794 29.58450833180736 29.707562717451015 29.83061710309467 29.953671488738326 29.98443508514924 30.07672587438198 30.261307452847465 30.445889031312948 30.66123420618934 30.87657938106574 31.091924555942136 31.307269730818533 31.399560520051274 31.584142098516754 31.737960080571323 31.830250869804065 31.922541659036806 32.107123237502286 32.260941219556855 32.44552279802234 32.568577183665994 32.72239516572056 32.906976744186046 33.060794726240616 33.214612708295185 33.39919428676067 33.49148507599341 33.614539461637065 33.7068302508698 33.829884636513455 34.01446621497894 34.16828419703351 34.50668375755356 34.69126533601904 35.029664896539096 35.30653726423732 35.55264603552463 35.89104559604468 36.598608313495696 36.93700787401575 37.306171030946714 37.521516205823104 37.82915216993224 38.167551730452296 38.721296465848745 39.028932429957884 39.30580479765611 39.61344076176525 39.921076725874386 40.1979490935726 40.72093023255814 41.090093389489105 41.36696575718733 41.64383812488555 42.07452847463834 42.35140084233657 42.72056399926753 42.99743636696576 43.45889031312946 43.95110785570408 44.32027101263505 44.874015748031496 45.48928767624977 45.91997802600257 46.53524995422084 46.996703900384546 47.64273942501373 48.22724775682109 48.62717451016297 49.24244643838125 49.73466398095587 50.16535433070866 50.78062625892693 51.05749862662516 51.51895257278886 51.91887932613075 52.19575169382897 52.59567844717085 53.026368796923634 53.364768357443694 53.85698590001831 54.16462186412745 54.65683940670207 55.179820545687605 55.51822010620765 56.225782823658676 56.53341878776781 56.87181834828786 57.36403589086248 57.70243545138253 58.317707379600805 58.7483977293536 58.93297930781908 59.332906061160955 59.64054202527009 60.040468778611974 60.53268632118659 60.901849478117555 61.086431056583045 61.36330342428126 61.547885002746746 61.82475737044497 62.04010254532137 62.347738509430506 62.65537447353964 62.83995605200513 63.11682841970335 63.424464383812484 63.76286394433254 64.07049990844168 64.19355429408533 64.43966306537264 64.77806262589269 64.99340780076909 65.45486174693279 65.82402490386376 66.19318806079472 66.40853323567111 66.65464200695843 66.90075077824574 67.17762314594395 67.54678630287492 67.88518586339498 68.22358542391504 68.46969419520234 68.77733015931148 69.02343893059879 69.300311298297 69.54642006958431 69.73100164804981 69.91558322651528 70.13092840139169 70.25398278703534 70.53085515473356 70.68467313678812 70.80772752243178 70.96154550448635 71.08459989013001 71.20765427577366 71.2999450650064 71.33070866141732 71.36147225782824 71.39223585423915 71.39223585423915 71.42299945065005 71.45376304706097 71.5152902398828 71.60758102911555 71.63834462552646 71.76139901117011 71.85368980040286 71.97674418604652 72.06903497527925 72.16132576451199 72.25361655374473 72.31514374656656 72.37667093938839 72.43819813221022 72.46896172862114 72.46896172862114 72.46896172862114 72.46896172862114 72.46896172862114 72.46896172862114 72.46896172862114 72.43819813221022 72.43819813221022 72.43819813221022 72.43819813221022 72.4074345357993 72.37667093938839 72.37667093938839 72.34590734297747 72.34590734297747 72.31514374656656 72.28438015015564 72.25361655374473 72.25361655374473 72.22285295733383 72.22285295733383 72.19208936092289 72.16132576451199 72.16132576451199 72.13056216810108 72.09979857169017 72.06903497527925 72.03827137886833 72.03827137886833 72.00750778245742 71.97674418604652 71.97674418604652 71.97674418604652 71.9459805896356 71.91521699322467 71.88445339681377 71.88445339681377 71.82292620399194 71.82292620399194 71.82292620399194 71.79216260758102 71.79216260758102 71.79216260758102 71.79216260758102 71.79216260758102 71.79216260758102 71.79216260758102 71.79216260758102 71.79216260758102 71.79216260758102 71.79216260758102 71.79216260758102 71.79216260758102 71.79216260758102 71.76139901117011 71.76139901117011 71.7306354147592 71.69987181834829 71.69987181834829 71.69987181834829 71.66910822193736 71.66910822193736 71.66910822193736 71.66910822193736 71.63834462552646 71.63834462552646 71.60758102911555 71.57681743270463 71.54605383629371 71.5152902398828 71.4845266434719 71.4845266434719 71.4845266434719 71.4845266434719 71.45376304706097 71.42299945065005 71.42299945065005 71.39223585423915 71.36147225782824 71.36147225782824 71.33070866141732 71.2999450650064 71.26918146859549 71.20765427577366 71.14612708295184 71.08459989013001 71.02307269730818 70.99230910089727 70.96154550448635 70.96154550448635 70.93078190807545 70.93078190807545 70.93078190807545 70.90001831166452 70.90001831166452 70.90001831166452 70.90001831166452 70.90001831166452 70.86925471525362 70.8384911188427 70.80772752243178 70.80772752243178 70.77696392602087 70.77696392602087 70.77696392602087 70.77696392602087 70.74620032960996 70.68467313678812 70.65390954037721 70.59238234755539 70.56161875114448 70.53085515473356 70.50009155832265 70.46932796191174 70.43856436550081 70.43856436550081 70.43856436550081 70.43856436550081 70.43856436550081 70.4078007690899 70.4078007690899 70.4078007690899 70.43856436550081 70.4078007690899 70.4078007690899 70.4078007690899 70.4078007690899 70.43856436550081 70.43856436550081 70.4078007690899 70.43856436550081 70.4078007690899 70.4078007690899 70.4078007690899 70.4078007690899 70.377037172679 70.377037172679 70.377037172679 70.377037172679 70.377037172679 70.34627357626809 70.31550997985717 70.28474638344625 70.25398278703534 70.22321919062442 70.19245559421351 70.16169199780259 70.13092840139169 70.10016480498078 70.06940120856986 70.03863761215894 70.03863761215894 70.00787401574803 69.97711041933712 69.97711041933712 69.9463468229262 69.9463468229262 69.88481963010437 69.85405603369347 69.79252884087163 69.76176524446072 69.73100164804981 69.66947445522797 69.63871085881706 69.60794726240616 69.60794726240616 69.57718366599524 69.54642006958431 69.54642006958431 69.51565647317341 69.4848928767625 69.4848928767625 69.45412928035158 69.42336568394066 69.42336568394066 69.42336568394066 69.39260208752975 69.39260208752975 69.36183849111885 69.33107489470792 69.2695477018861 69.20802050906427 69.17725691265336 69.17725691265336 69.14649331624244 69.11572971983153 69.11572971983153 69.08496612342061 69.08496612342061 69.05420252700969 68.99267533418788 68.99267533418788 68.96191173777697 68.93114814136604 68.93114814136604 68.93114814136604 68.90038454495513 68.90038454495513 68.86962094854422 68.8388573521333 68.8388573521333 68.8388573521333 68.8388573521333 68.86962094854422 68.8388573521333 68.86962094854422 68.86962094854422 68.8388573521333 68.8388573521333 68.86962094854422 68.8388573521333 68.8388573521333 68.8388573521333 68.77733015931148 68.74656656290057 68.71580296648965 68.68503937007873 68.65427577366782 68.62351217725691 68.56198498443507 68.50045779161326 68.43893059879143 68.3774034059696 68.3774034059696 68.3774034059696 68.3774034059696 68.3774034059696 68.3774034059696 68.3774034059696 68.3774034059696 68.3774034059696 68.3774034059696 68.3774034059696 68.3774034059696 68.3774034059696 68.3774034059696 68.3774034059696 68.3774034059696 68.3774034059696 68.3774034059696 68.3774034059696 68.31587621314777 68.25434902032595 68.22358542391504 68.19282182750412 68.1620582310932 68.13129463468229 68.06976744186046 68.06976744186046 68.00824024903864 67.97747665262773 67.94671305621681 67.91594945980589 67.91594945980589 67.88518586339498 67.88518586339498 67.88518586339498 67.88518586339498 67.88518586339498 67.88518586339498 67.88518586339498 67.88518586339498 67.88518586339498 67.88518586339498 67.88518586339498 67.88518586339498 67.88518586339498 67.88518586339498 67.88518586339498 67.88518586339498 67.85442226698407 67.82365867057315 67.79289507416223 67.76213147775132 67.76213147775132 67.76213147775132 67.76213147775132 67.76213147775132 67.76213147775132 67.76213147775132 67.76213147775132 67.76213147775132 67.76213147775132 67.76213147775132 67.76213147775132 67.76213147775132 67.76213147775132 67.76213147775132 67.76213147775132 67.76213147775132 67.76213147775132 67.76213147775132 67.76213147775132 67.76213147775132 67.76213147775132 67.76213147775132 67.76213147775132 67.76213147775132 67.76213147775132 67.76213147775132 67.76213147775132 67.76213147775132 67.76213147775132 67.79289507416223 67.76213147775132 67.73136788134042 67.7006042849295 67.7006042849295 67.66984068851858 67.66984068851858 67.63907709210767 67.63907709210767 67.63907709210767 67.60831349569676 67.57754989928584 67.57754989928584 67.54678630287492 67.51602270646401 67.51602270646401 67.51602270646401 67.51602270646401 67.51602270646401 67.51602270646401 67.51602270646401 67.51602270646401 67.51602270646401 67.51602270646401 67.51602270646401 67.51602270646401 67.51602270646401 67.51602270646401 67.51602270646401 67.54678630287492 67.51602270646401 67.54678630287492 67.51602270646401 67.54678630287492 67.51602270646401 67.54678630287492 67.51602270646401 67.51602270646401 67.51602270646401 67.51602270646401 67.51602270646401 67.51602270646401 67.48525911005311 67.45449551364219 67.42373191723127 67.42373191723127 67.39296832082036 67.36220472440945 67.36220472440945 67.36220472440945 67.36220472440945 67.33144112799853 67.33144112799853 67.36220472440945 67.33144112799853 67.36220472440945 67.33144112799853 67.36220472440945 67.36220472440945 67.36220472440945 67.36220472440945 67.36220472440945 67.33144112799853 67.33144112799853 67.30067753158761 67.2699139351767 67.20838674235489 67.08533235671122 67.02380516388939 66.93151437465664 66.86998718183483 66.77769639260208 66.65464200695843 66.50082402490386 66.3470060428493 66.22395165720565 66.03937007874015 65.85478850027468 65.67020692180918 65.45486174693279 65.17798937923456 64.99340780076909 64.68577183665994 64.43966306537264 64.1012635048526 63.63980955868888 63.36293719099066 63.11682841970335 62.74766526277239 62.50155649148507 62.101629738143195 61.855520966855885 61.36330342428126 60.994140267350296 60.74803149606299 60.47115912836477 60.07123237502289 59.79436000732467 59.48672404321553 59.27137886833913 58.93297930781908 58.50228895806629 58.37923457242263 58.04083501190259 57.70243545138253 57.36403589086248 57.117927119575164 56.81029115546603 56.47189159494598 56.0719648416041 55.70280168467313 55.395165720563995 55.149056949276684 54.933711774400294 54.47225782823658 54.2876762497711 54.072331074894706 53.67240432155283 53.48782274308734 53.21095037538912 53.14942318256729 52.84178721845816 52.68796923640359 52.53415125434902 52.38033327229445 52.19575169382897 52.07269730818531 51.88811572971983 51.76506134407617 51.58047976561069 51.39589818714521 51.242080205090645 50.995971433803334 50.78062625892693 50.688335469694195 50.4729902948178 50.288408716352315 50.042299945065004 49.73466398095587 49.55008240249039 49.27321003479216 48.99633766709394 48.780992492217536 48.53488372093023 48.44259293169749 48.165720563999265 47.98113898553378 47.85808459989013 47.67350302142465 47.48892144295917 47.33510346090459 47.15052188243911 47.02746749679545 46.904413111151804 46.750595129097235 46.658304339864486 46.41219556857718 46.25837758652261 46.104559604468044 45.91997802600257 45.76616004394799 45.58157846548251 45.3354696941952 45.181651712140635 44.90477934444241 44.627906976744185 44.4433253982787 44.16645303058048 43.981871452114994 43.67423548800586 43.366599523896724 43.15125434902033 42.8743819813221 42.62827321003479 42.412928035158394 42.07452847463834 41.85918329976195 41.67460172129647 41.459256546420065 41.3054385643655 41.05932979307819 40.843984618201794 40.6286394433254 40.38253067203809 40.22871268998352 40.10565830433986 39.95184032228529 39.79802234023072 39.55191356894342 39.428859183299764 39.21351400842337 39.0596960263688 38.93664164072514 38.78282365867057 38.59824208020509 38.475187694561434 38.321369712506865 38.167551730452296 38.075260941219554 37.921442959164985 37.798388573521336 37.70609778428859 37.58304339864493 37.4907526094122 37.36769822376854 37.2754074345358 37.12158945248123 36.998535066837576 36.87548068119392 36.78318989196118 36.53708112067387 36.47555392785204 36.352499542208385 36.26020875297564 36.106390770921074 35.952572788866505 35.86028199963376 35.737227613990115 35.583409631935545 35.52188243911371 35.39882805347006 35.30653726423732 35.21424647500458 35.09119208936092 34.99890130012818 34.84508331807361 34.783556125251785 34.72202893242996 34.56821095037539 34.50668375755356 34.35286577549899 34.26057498626625 34.137520600622594 33.95293902215711 33.89141182933528 33.79912104010255 33.7068302508698 33.614539461637065 33.522248672404324 33.42995788317158 33.39919428676067 33.33766709393884 33.27613990111701 33.18384911188427 33.09155832265153 32.99926753341879 32.84544955136422 32.72239516572056 32.63010437648782 32.568577183665994 32.47628639443325 32.3532320087896 32.19941402673503 32.1378868339132 32.107123237502286 32.07635964109137 32.07635964109137 32.014832448269544 32.014832448269544 31.95330525544772 31.891778062625892 31.86101446621498 31.79948727339315 31.768723676982237 31.737960080571323 31.70719648416041 31.676432887749495 31.64566929133858 31.584142098516754 31.55337850210584 31.491851309284012 31.399560520051274 31.338033327229446 31.21497894158579 31.153451748763963 31.06116095953122 30.96887017029848 30.845815784654825 30.72276139901117 30.630470609778428 30.5689434169566 30.47665262772386 30.445889031312948 30.415125434902034 30.415125434902034 30.415125434902034 30.38436183849112 30.38436183849112 30.38436183849112 30.353598242080206 30.353598242080206 30.353598242080206 30.322834645669293 30.322834645669293 30.322834645669293 30.29207104925838 30.29207104925838 30.29207104925838 30.29207104925838 30.29207104925838 30.261307452847465 30.261307452847465 30.261307452847465 30.261307452847465 30.23054385643655 30.23054385643655 30.199780260025637 30.199780260025637 30.199780260025637 30.169016663614723 30.169016663614723 30.13825306720381 30.13825306720381 30.13825306720381 30.107489470792896 30.107489470792896 30.07672587438198 30.07672587438198 30.045962277971068 30.015198681560154 30.015198681560154 29.98443508514924 29.953671488738326 29.953671488738326 29.922907892327412 29.922907892327412 29.922907892327412 29.8921442959165 29.8921442959165 29.8921442959165 29.861380699505585 29.861380699505585 29.861380699505585 29.861380699505585 29.83061710309467 29.83061710309467 29.799853506683757 29.769089910272843 29.73832631386193 29.707562717451015 29.6767991210401 29.646035524629188 29.615271928218274 29.615271928218274 29.58450833180736 29.58450833180736 29.58450833180736 29.58450833180736 29.58450833180736 29.553744735396446 29.553744735396446 29.553744735396446 29.522981138985532 29.522981138985532 29.522981138985532 29.49221754257462 29.49221754257462 29.461453946163708 29.461453946163708 29.461453946163708 29.461453946163708 29.461453946163708 29.461453946163708 29.461453946163708 29.461453946163708 29.430690349752794 29.430690349752794 29.461453946163708 29.461453946163708 29.461453946163708 29.430690349752794 29.430690349752794 29.461453946163708 29.430690349752794 29.430690349752794 29.430690349752794 29.430690349752794 29.39992675334188 29.39992675334188 29.39992675334188 29.39992675334188 29.369163156930966 29.369163156930966 29.369163156930966 29.369163156930966 29.369163156930966 29.369163156930966 29.369163156930966 29.369163156930966 29.369163156930966 29.369163156930966 29.369163156930966 29.369163156930966 29.369163156930966 29.369163156930966 29.369163156930966 29.369163156930966 29.369163156930966 29.338399560520052 29.338399560520052 29.338399560520052 29.338399560520052 29.338399560520052 29.338399560520052 29.30763596410914 29.30763596410914 29.30763596410914 29.30763596410914 29.30763596410914 29.30763596410914 29.30763596410914 29.30763596410914 29.30763596410914 29.30763596410914 29.30763596410914 29.30763596410914 29.30763596410914 29.30763596410914 29.276872367698225 29.30763596410914 29.30763596410914 29.30763596410914 29.276872367698225 29.30763596410914 29.276872367698225 29.30763596410914 29.276872367698225 29.30763596410914 29.30763596410914 29.276872367698225 29.30763596410914 29.30763596410914 29.276872367698225 29.30763596410914 29.276872367698225 29.276872367698225 29.276872367698225 29.276872367698225 29.276872367698225 29.276872367698225 29.276872367698225 29.276872367698225 29.276872367698225 29.276872367698225 29.276872367698225 29.276872367698225 29.276872367698225 29.276872367698225 29.276872367698225 29.276872367698225 29.276872367698225 29.276872367698225 29.276872367698225 29.276872367698225 29.276872367698225 29.276872367698225 29.276872367698225 29.276872367698225 29.276872367698225 29.276872367698225 29.276872367698225 29.276872367698225 29.276872367698225 29.276872367698225 29.24610877128731 29.24610877128731 29.24610877128731 29.24610877128731 29.24610877128731 29.24610877128731 29.24610877128731 29.24610877128731 29.24610877128731 29.24610877128731 29.24610877128731 29.24610877128731 29.24610877128731 29.24610877128731 29.24610877128731 29.24610877128731 29.24610877128731 29.24610877128731 29.24610877128731 29.24610877128731 29.24610877128731 29.24610877128731 29.24610877128731 29.24610877128731 29.24610877128731 29.24610877128731 29.24610877128731 29.24610877128731 29.24610877128731 29.215345174876397 29.215345174876397 29.24610877128731 29.215345174876397 29.24610877128731 29.215345174876397 29.215345174876397 29.215345174876397 29.215345174876397 29.215345174876397 29.215345174876397 29.215345174876397 29.215345174876397 29.215345174876397 29.215345174876397 29.215345174876397 29.215345174876397 29.215345174876397 29.215345174876397 29.215345174876397 29.215345174876397 29.215345174876397 29.215345174876397 29.215345174876397 29.215345174876397 29.215345174876397 29.215345174876397 29.215345174876397 29.215345174876397 29.215345174876397 29.215345174876397 29.215345174876397 29.215345174876397 29.215345174876397 29.215345174876397 29.215345174876397 29.215345174876397 29.215345174876397 29.215345174876397 29.215345174876397 29.215345174876397 29.215345174876397 29.215345174876397 29.215345174876397 29.215345174876397 29.215345174876397 29.215345174876397 29.215345174876397 29.215345174876397 29.215345174876397 29.215345174876397 29.215345174876397 29.215345174876397 29.215345174876397 29.215345174876397 29.215345174876397 29.215345174876397 29.215345174876397 29.215345174876397 29.215345174876397 29.215345174876397 29.215345174876397 29.215345174876397 29.215345174876397 29.215345174876397 29.215345174876397 29.215345174876397 29.215345174876397 29.215345174876397 29.215345174876397 29.215345174876397 29.215345174876397 29.215345174876397 29.215345174876397 29.215345174876397 29.215345174876397 29.215345174876397 29.215345174876397 29.215345174876397 29.215345174876397 29.24610877128731 29.215345174876397 29.215345174876397 29.215345174876397 29.215345174876397 29.215345174876397 29.215345174876397 29.215345174876397 29.215345174876397 29.215345174876397 29.215345174876397 29.215345174876397 29.215345174876397 29.215345174876397 29.215345174876397 29.215345174876397 29.215345174876397 29.215345174876397 29.215345174876397 29.215345174876397 29.215345174876397 29.215345174876397 29.215345174876397 29.215345174876397 29.215345174876397 29.215345174876397 29.215345174876397 29.215345174876397 29.215345174876397 29.215345174876397 29.215345174876397 29.215345174876397 29.215345174876397 29.215345174876397 29.215345174876397 29.215345174876397 29.215345174876397 29.215345174876397 29.215345174876397 29.215345174876397 29.215345174876397 29.215345174876397 29.215345174876397 29.215345174876397 29.215345174876397 29.215345174876397 29.215345174876397 29.215345174876397 29.215345174876397 29.215345174876397 29.215345174876397 29.215345174876397 29.215345174876397 29.215345174876397 29.215345174876397 29.215345174876397 29.215345174876397 29.215345174876397 29.215345174876397 29.215345174876397 29.215345174876397 29.215345174876397 29.215345174876397 29.215345174876397 29.215345174876397 29.215345174876397 29.215345174876397 29.215345174876397 29.215345174876397 29.215345174876397 29.215345174876397 29.215345174876397 29.215345174876397 29.215345174876397 29.215345174876397 29.215345174876397 29.215345174876397 29.215345174876397 29.215345174876397 29.215345174876397 29.215345174876397 29.215345174876397 29.215345174876397 29.215345174876397 29.215345174876397 29.215345174876397 29.215345174876397 29.215345174876397 29.215345174876397 29.215345174876397 29.215345174876397 29.215345174876397 29.215345174876397 29.215345174876397 29.215345174876397 29.215345174876397 29.215345174876397 29.215345174876397 29.215345174876397 29.215345174876397 29.215345174876397 29.215345174876397 29.215345174876397 29.215345174876397 29.215345174876397 29.215345174876397 29.215345174876397 29.215345174876397 29.215345174876397 29.215345174876397 29.215345174876397 29.215345174876397 29.215345174876397 29.215345174876397 29.215345174876397 29.215345174876397 29.215345174876397 29.215345174876397 29.215345174876397 29.215345174876397 29.215345174876397 29.215345174876397 29.215345174876397 29.215345174876397 29.215345174876397 29.215345174876397 29.215345174876397 29.215345174876397 29.215345174876397 29.215345174876397 29.215345174876397 29.215345174876397 29.215345174876397 29.215345174876397 29.215345174876397 29.215345174876397 29.215345174876397 29.215345174876397 29.215345174876397 29.215345174876397 29.215345174876397 29.215345174876397 29.215345174876397 29.215345174876397 29.215345174876397 29.215345174876397 29.215345174876397 29.215345174876397 29.215345174876397 29.215345174876397 29.184581578465483 29.184581578465483 29.184581578465483 29.184581578465483 29.15381798205457 29.15381798205457 29.15381798205457 29.15381798205457 29.15381798205457 29.15381798205457 29.15381798205457 29.15381798205457 29.15381798205457 29.15381798205457 29.15381798205457 29.15381798205457 29.15381798205457 29.15381798205457 29.15381798205457 29.15381798205457 29.123054385643655 29.15381798205457 29.15381798205457 29.123054385643655 29.123054385643655 29.123054385643655 29.123054385643655 29.15381798205457 29.123054385643655 29.123054385643655 29.123054385643655 29.123054385643655 29.123054385643655 29.123054385643655 29.123054385643655 29.123054385643655 29.123054385643655 29.123054385643655 29.123054385643655 29.123054385643655 29.123054385643655 29.123054385643655 29.123054385643655 29.15381798205457 29.123054385643655 29.123054385643655 29.123054385643655 29.15381798205457 29.15381798205457 29.123054385643655 29.123054385643655 29.123054385643655 29.123054385643655 29.123054385643655 29.123054385643655 29.123054385643655 29.123054385643655 29.123054385643655 29.123054385643655 29.123054385643655 29.123054385643655 29.123054385643655 29.15381798205457 29.123054385643655 29.123054385643655 29.123054385643655 29.123054385643655 29.123054385643655 29.15381798205457 29.123054385643655 29.123054385643655 29.15381798205457 29.123054385643655 29.15381798205457 29.123054385643655 29.123054385643655 29.123054385643655 29.123054385643655 29.123054385643655 29.15381798205457 29.123054385643655 29.123054385643655 29.15381798205457 29.123054385643655 29.123054385643655 29.123054385643655 29.123054385643655 29.123054385643655 29.15381798205457 29.15381798205457 29.123054385643655 29.123054385643655 29.123054385643655 29.123054385643655 29.123054385643655 29.123054385643655 29.123054385643655 29.123054385643655 29.15381798205457 29.15381798205457 29.15381798205457 29.123054385643655 29.15381798205457 29.123054385643655 29.123054385643655 29.123054385643655 29.123054385643655 29.123054385643655 29.123054385643655 29.15381798205457 29.123054385643655 29.123054385643655 29.15381798205457 29.123054385643655 29.123054385643655 29.123054385643655 29.15381798205457 29.123054385643655 29.123054385643655 29.123054385643655 29.15381798205457 29.123054385643655 29.123054385643655 29.123054385643655 29.123054385643655 29.123054385643655 29.15381798205457 29.123054385643655 29.123054385643655 29.123054385643655 29.123054385643655 29.123054385643655 29.123054385643655 29.123054385643655 29.123054385643655 29.123054385643655 29.123054385643655 29.123054385643655 29.123054385643655 29.123054385643655 29.15381798205457 29.123054385643655 29.15381798205457 29.123054385643655 29.123054385643655 29.123054385643655 29.123054385643655 29.123054385643655 29.123054385643655 29.123054385643655 29.123054385643655 29.123054385643655 29.123054385643655 29.15381798205457 29.123054385643655 29.123054385643655 29.123054385643655 29.123054385643655 29.123054385643655 29.123054385643655 29.15381798205457 29.123054385643655 29.123054385643655 29.123054385643655 29.123054385643655 29.123054385643655 29.123054385643655 29.123054385643655 29.123054385643655 29.123054385643655 29.123054385643655 29.123054385643655 29.123054385643655 29.123054385643655 29.123054385643655 29.123054385643655 29.123054385643655 29.123054385643655 29.123054385643655 29.123054385643655 29.123054385643655 29.15381798205457 29.123054385643655 29.123054385643655 29.123054385643655 29.15381798205457 29.123054385643655 29.123054385643655 29.123054385643655 29.123054385643655 29.123054385643655 29.15381798205457 29.123054385643655 29.123054385643655 29.123054385643655 29.123054385643655 29.123054385643655 29.123054385643655 29.123054385643655 29.123054385643655 29.123054385643655 29.123054385643655 29.15381798205457 29.123054385643655 29.123054385643655 29.15381798205457 29.123054385643655 29.123054385643655 29.15381798205457 29.123054385643655 29.123054385643655 29.123054385643655 29.15381798205457 29.123054385643655 29.123054385643655 29.123054385643655 29.15381798205457 29.123054385643655 29.123054385643655 29.15381798205457 29.123054385643655 29.123054385643655 29.15381798205457 29.123054385643655 29.123054385643655 29.123054385643655 29.15381798205457 29.15381798205457 29.123054385643655 29.123054385643655 29.123054385643655 29.123054385643655 29.123054385643655 29.15381798205457 29.123054385643655 29.123054385643655 29.123054385643655 29.123054385643655 29.123054385643655 29.123054385643655 29.123054385643655 29.123054385643655 29.123054385643655 29.123054385643655 29.123054385643655 29.15381798205457 29.123054385643655 29.123054385643655 29.123054385643655 29.123054385643655 29.15381798205457 29.15381798205457 29.123054385643655 29.15381798205457 29.123054385643655 29.15381798205457 29.123054385643655 29.15381798205457 29.15381798205457 29.15381798205457 29.123054385643655 29.123054385643655 29.123054385643655 29.123054385643655 29.15381798205457 29.123054385643655 29.123054385643655 29.123054385643655 29.123054385643655 29.15381798205457 29.15381798205457 29.123054385643655 29.123054385643655 29.123054385643655 29.123054385643655 29.123054385643655 29.123054385643655 29.123054385643655 29.123054385643655 29.123054385643655 29.123054385643655 29.123054385643655 29.123054385643655 29.123054385643655 29.123054385643655 29.123054385643655 29.15381798205457 29.123054385643655 29.123054385643655 29.123054385643655 29.123054385643655 29.123054385643655 29.123054385643655 29.123054385643655 29.15381798205457 29.123054385643655 29.123054385643655 29.15381798205457 29.123054385643655 29.15381798205457 29.123054385643655 29.15381798205457 29.123054385643655 29.123054385643655 29.15381798205457 29.15381798205457 29.15381798205457 29.15381798205457 29.123054385643655 29.123054385643655 29.15381798205457 29.15381798205457 29.15381798205457 29.123054385643655 29.15381798205457 29.15381798205457 29.15381798205457 29.123054385643655 29.15381798205457 29.15381798205457 29.15381798205457 29.123054385643655 29.15381798205457 29.15381798205457 29.215345174876397 29.24610877128731 29.30763596410914 29.430690349752794 29.522981138985532 29.6767991210401 29.799853506683757 29.861380699505585 29.8921442959165 30.015198681560154 30.07672587438198 30.29207104925838 30.38436183849112 30.47665262772386 30.599707013367514 30.66123420618934 30.753524995422083 30.87657938106574 30.999633766709394 31.184215345174877 31.338033327229446 31.830250869804065 32.19941402673503 32.507049990844166 32.75315876213148 33.060794726240616 33.2453763047061 33.829884636513455 34.137520600622594 34.537447353964474 34.99890130012818 35.337300860648234 35.706464017579194 36.198681560153815 36.598608313495696 37.09082585607032 37.42922541659037 37.767624977110415 38.19831532686321 38.53671488738326 38.90587804431423 39.121223219190625 39.33656839406702 39.644204358176154 39.921076725874386 40.50558505768174 40.90551181102362 41.21314777513276 41.61307452847464 41.797656106940124 42.16681926387108 42.75132759567845 43.0897271561985 43.52041750595129 43.981871452114994 44.381798205456874 44.90477934444241 45.24317890496246 45.735396447537084 46.2276139901117 46.53524995422084 46.93517670756272 47.39663065372642 47.70426661783556 48.25801135323201 48.44259293169749 48.84251968503936 49.24244643838125 49.51931880607947 49.888481963010435 50.380699505585056 50.74986266251602 50.96520783739241 51.149789415857896 51.39589818714521 51.79582494048709 52.011170115363484 52.288042483061716 52.56491485075993 52.78026002563632 53.026368796923634 53.21095037538912 53.45705914667643 53.73393151437466 53.94927668925105 54.13385826771653 54.41073063541476 54.56454861746933 54.81065738875664 54.99523896722212 55.179820545687605 55.36440212415309 55.51822010620765 55.76432887749496 55.91814685954953 56.041201245193186 56.25654642006958 56.41036440212415 56.502655191356894 56.748763962644205 56.90258194469877 57.08716352316425 57.27174510162973 57.4255630836843 57.61014466214979 57.763962644204355 58.010071415491666 58.22541659036806 58.40999816883354 58.62534334370994 58.779161325764505 59.117560886284565 59.332906061160955 59.48672404321553 59.70206921809192 59.91741439296832 60.1019959714338 60.40963193554294 60.50192272477568 60.62497711041934 60.80955868888482 60.901849478117555 60.994140267350296 61.17872184581578 61.27101263504852 61.39406702069218 61.48635780992492 61.57864859915766 61.701702984801315 61.8862845632668 61.97857535249954 62.13239333455411 62.255447720197765 62.47079289507416 62.59384728071782 62.83995605200513 63.024537630470604 63.14759201611426 63.30140999816883 63.4552279802234 63.60904596227797 63.88591832997619 64.00897271561985 64.22431789049625 64.40889946896172 64.53195385460538 64.65500824024903 64.83958981871451 65.02417139718 65.2395165720564 65.39333455411096 65.60867972898737 65.85478850027468 66.00860648232924 66.37776963926021 66.56235121772569 66.77769639260208 67.08533235671122 67.30067753158761 67.60831349569676 68.03900384544954 68.28511261673685 68.62351217725691 68.86962094854422 69.11572971983153 69.42336568394066 69.63871085881706 69.97711041933712 70.22321919062442 70.377037172679 70.6231459439663 70.80772752243178 70.93078190807545 71.23841787218458 71.2999450650064 71.45376304706097 71.60758102911555 71.76139901117011 71.9459805896356 72.06903497527925 72.16132576451199 72.28438015015564 72.34590734297747 72.43819813221022 72.49972532503205 72.56125251785386 72.5920161142648 72.6227797106757 72.6227797106757 72.65354330708661 72.65354330708661 72.65354330708661 72.65354330708661 72.65354330708661 72.71507049990844 72.77659769273026 72.86888848196301 72.96117927119576 72.99194286760667 73.02270646401757 73.05347006042848 73.02270646401757 73.05347006042848 73.05347006042848 73.05347006042848 73.05347006042848 73.05347006042848 73.02270646401757 73.02270646401757 73.05347006042848 73.05347006042848 73.02270646401757 73.02270646401757 73.02270646401757 73.02270646401757 73.02270646401757 73.02270646401757 73.02270646401757 73.02270646401757 73.02270646401757 73.02270646401757 72.99194286760667 72.96117927119576 72.96117927119576 72.86888848196301 72.80736128914117 72.74583409631936 72.71507049990844 72.68430690349753 72.65354330708661 72.65354330708661 72.6227797106757 72.6227797106757 72.6227797106757 72.5920161142648 72.5920161142648 72.5920161142648 72.6227797106757 72.5920161142648 72.5920161142648 72.6227797106757 72.5920161142648 72.46896172862114 72.37667093938839 72.34590734297747 72.25361655374473 72.22285295733383 72.19208936092289 72.19208936092289 72.19208936092289 72.16132576451199 72.16132576451199 72.16132576451199 72.16132576451199 72.16132576451199 72.16132576451199 72.16132576451199 72.16132576451199 72.16132576451199 72.13056216810108 72.16132576451199 72.16132576451199 72.16132576451199 72.16132576451199 72.16132576451199 72.13056216810108 72.13056216810108 72.13056216810108 72.13056216810108 72.13056216810108 72.13056216810108 72.09979857169017 72.06903497527925 72.00750778245742 71.9459805896356 71.91521699322467 71.91521699322467 71.88445339681377 71.88445339681377 71.88445339681377 71.85368980040286 71.82292620399194 71.82292620399194 71.82292620399194 71.88445339681377 71.91521699322467 71.91521699322467 71.91521699322467 71.91521699322467 71.91521699322467 71.91521699322467 71.91521699322467 71.91521699322467 71.91521699322467 71.91521699322467 71.91521699322467 71.88445339681377 71.82292620399194 71.76139901117011 71.7306354147592 71.63834462552646 71.57681743270463 71.5152902398828 71.39223585423915 71.33070866141732 71.23841787218458 71.17689067936274 71.14612708295184 71.08459989013001 71.02307269730818 70.99230910089727 70.96154550448635 70.93078190807545 70.90001831166452 70.86925471525362 70.8384911188427 70.80772752243178 70.77696392602087 70.74620032960996 70.71543673319906 70.71543673319906 70.68467313678812 70.68467313678812 70.65390954037721 70.6231459439663 70.6231459439663 70.59238234755539 70.53085515473356 70.50009155832265 70.4078007690899 70.377037172679 70.34627357626809 70.34627357626809 70.31550997985717 70.34627357626809 70.34627357626809 70.31550997985717 70.31550997985717 70.34627357626809 70.34627357626809 70.34627357626809 70.34627357626809 70.34627357626809 70.34627357626809 70.34627357626809 70.28474638344625 70.22321919062442 70.22321919062442 70.16169199780259 70.10016480498078 70.03863761215894 70.00787401574803 69.9463468229262 69.91558322651528 69.88481963010437 69.85405603369347 69.79252884087163 69.73100164804981 69.63871085881706 69.54642006958431 69.4848928767625 69.36183849111885 69.300311298297 69.23878410547519 69.20802050906427 69.17725691265336 69.17725691265336 69.14649331624244 69.14649331624244 69.11572971983153 69.08496612342061 69.05420252700969 69.02343893059879 68.99267533418788 68.96191173777697 68.86962094854422 68.8388573521333 68.77733015931148 68.77733015931148 68.77733015931148 68.8080937557224 68.77733015931148 68.77733015931148 68.77733015931148 68.77733015931148 68.77733015931148 68.77733015931148 68.74656656290057 68.74656656290057 68.74656656290057 68.71580296648965 68.68503937007873 68.65427577366782 68.592748580846 68.56198498443507 68.56198498443507 68.56198498443507 68.53122138802416 68.50045779161326 68.43893059879143 68.40816700238051 68.3466398095587 68.31587621314777 68.25434902032595 68.22358542391504 68.22358542391504 68.19282182750412 68.22358542391504 68.22358542391504 68.22358542391504 68.22358542391504 68.22358542391504 68.25434902032595 68.25434902032595 68.25434902032595 68.25434902032595 68.25434902032595 68.25434902032595 68.25434902032595 68.25434902032595 68.25434902032595 68.22358542391504 68.19282182750412 68.19282182750412 68.13129463468229 68.10053103827138 68.06976744186046 68.03900384544954 68.00824024903864 68.00824024903864 68.00824024903864 68.00824024903864 68.00824024903864 68.00824024903864 68.00824024903864 68.00824024903864 68.00824024903864 68.00824024903864 68.00824024903864 68.00824024903864 68.00824024903864 68.00824024903864 68.00824024903864 68.00824024903864 67.97747665262773 67.91594945980589 67.91594945980589 67.88518586339498 67.85442226698407 67.79289507416223 67.79289507416223 67.79289507416223 67.76213147775132 67.76213147775132 67.79289507416223 67.79289507416223 67.79289507416223 67.79289507416223 67.79289507416223 67.79289507416223 67.79289507416223 67.79289507416223 67.79289507416223 67.79289507416223 67.82365867057315 67.82365867057315 67.82365867057315 67.82365867057315 67.82365867057315 67.85442226698407 67.82365867057315 67.82365867057315 67.85442226698407 67.85442226698407 67.82365867057315 67.85442226698407 67.85442226698407 67.82365867057315 67.85442226698407 67.82365867057315 67.82365867057315 67.82365867057315 67.82365867057315 67.82365867057315 67.82365867057315 67.82365867057315 67.82365867057315 67.82365867057315 67.82365867057315 67.82365867057315 67.82365867057315 67.82365867057315 67.82365867057315 67.79289507416223 67.79289507416223 67.79289507416223 67.79289507416223 67.79289507416223 67.79289507416223 67.79289507416223 67.79289507416223 67.79289507416223 67.79289507416223 67.79289507416223 67.79289507416223 67.79289507416223 67.79289507416223 67.76213147775132 67.73136788134042 67.66984068851858 67.57754989928584 67.51602270646401 67.45449551364219 67.36220472440945 67.33144112799853 67.2391503387658 67.20838674235489 67.08533235671122 67.02380516388939 66.96227797106756 66.86998718183483 66.77769639260208 66.68540560336935 66.56235121772569 66.43929683208202 66.22395165720565 66.07013367515107 65.9163156930965 65.73173411463102 65.57791613257645 65.45486174693279 65.17798937923456 65.02417139718 64.74729902948178 64.47042666178355 64.25508148690716 63.94744552279802 63.70133675151071 63.424464383812484 63.11682841970335 62.901483244826956 62.47079289507416 62.07086614173228 61.609412195568574 61.240249038637614 61.02490386376122 60.71726789965207 60.34810474272111 60.07123237502289 59.579014832448266 59.27137886833913 59.025270097051816 58.71763413294268 58.47152536165537 58.25618018677898 57.94854422266984 57.61014466214979 57.27174510162973 56.964109137520595 56.68723676982238 56.348837209302324 55.948910455960444 55.70280168467313 55.33363852774217 55.087529756454856 54.68760300311298 54.2876762497711 54.01080388207288 53.42629555026552 53.14942318256729 52.903314411279986 52.503387657938106 52.22651529023988 51.88811572971983 51.39589818714521 51.18055301226882 50.842153451748764 50.62680827687237 50.41146310199597 50.042299945065004 49.85771836659953 49.580845998901296 49.30397363120308 49.08862845632668 48.81175608862846 48.59641091375206 48.35030214246475 48.073429774766524 47.88884819630104 47.61197582860282 47.304339864493684 47.08899468961728 46.81212232191906 46.53524995422084 46.350668375755355 46.16608679728987 46.13532320087896 45.76616004394799 45.58157846548251 45.30470609778429 45.05859732649698 44.874015748031496 44.68943416956601 44.35103460904596 44.10492583775865 43.85881706647134 43.70499908441677 43.42812671671855 43.15125434902033 42.966672770554844 42.72056399926753 42.47445522798022 42.28987364951474 42.04376487822743 41.88994689617286 41.55154733565281 41.39772935359824 41.21314777513276 40.936275407434536 40.690166636147225 40.50558505768174 40.10565830433986 39.921076725874386 39.61344076176525 39.30580479765611 39.121223219190625 38.90587804431423 38.567478483794176 38.35213330891778 38.10602453763047 37.921442959164985 37.70609778428859 37.398461820179456 37.2754074345358 37.21388024171397 37.12158945248123 37.060062259659404 36.96777147042666 36.906244277604834 36.78318989196118 36.69089910272844 36.62937190990661 36.506317524262954 36.444790331441126 36.32173594579747 36.1679179637429 36.07562717451016 35.98333638527742 35.89104559604468 35.79875480681194 35.706464017579194 35.55264603552463 35.46035524629189 35.337300860648234 35.21424647500458 35.029664896539096 34.90661051089544 34.8143197216627 34.629738143197216 34.50668375755356 34.41439296832082 34.29133858267716 34.16828419703351 34.04522981138985 33.829884636513455 33.76835744369163 33.64530305804798 33.58377586522615 33.49148507599341 33.39919428676067 33.30690349752793 33.214612708295185 33.15308551547336 33.09155832265153 33.0300311298297 32.968503937007874 32.87621314777513 32.814685954953305 32.75315876213148 32.660867972898735 32.568577183665994 32.507049990844166 32.38399560520051 32.29170481596777 32.19941402673503 32.107123237502286 31.984068851858634 31.891778062625892 31.737960080571323 31.614905694927668 31.55337850210584 31.491851309284012 31.491851309284012 31.461087712873102 31.430324116462188 31.430324116462188 31.399560520051274 31.399560520051274 31.338033327229446 31.338033327229446 31.27650613440762 31.245742537996705 31.21497894158579 31.153451748763963 31.091924555942136 31.030397363120308 30.96887017029848 30.938106573887566 30.907342977476652 30.845815784654825 30.784288591832997 30.753524995422083 30.691997802600255 30.66123420618934 30.507416224134772 30.353598242080206 30.29207104925838 30.261307452847465 30.23054385643655 30.23054385643655 30.23054385643655 30.199780260025637 30.199780260025637 30.169016663614723 30.169016663614723 30.169016663614723 30.169016663614723 30.169016663614723 30.13825306720381 30.13825306720381 30.13825306720381 30.107489470792896 30.107489470792896 30.107489470792896 30.107489470792896 30.07672587438198 30.107489470792896 30.07672587438198 30.07672587438198 30.07672587438198 30.07672587438198 30.07672587438198 30.045962277971068 30.045962277971068 30.045962277971068 30.015198681560154 30.015198681560154 29.98443508514924 29.953671488738326 29.953671488738326 29.922907892327412 29.8921442959165 29.861380699505585 29.83061710309467 29.799853506683757 29.769089910272843 29.73832631386193 29.73832631386193 29.707562717451015 29.6767991210401 29.646035524629188 29.615271928218274 29.553744735396446 29.553744735396446 29.522981138985532 29.522981138985532 29.49221754257462 29.461453946163708 29.461453946163708 29.430690349752794 29.430690349752794 29.430690349752794 29.430690349752794 29.430690349752794 29.430690349752794 29.430690349752794 29.430690349752794 29.39992675334188 29.39992675334188 29.39992675334188 29.369163156930966 29.369163156930966 29.369163156930966 29.338399560520052 29.338399560520052 29.30763596410914 29.276872367698225 29.276872367698225 29.276872367698225 29.276872367698225 29.24610877128731 29.24610877128731 29.24610877128731 29.24610877128731 29.24610877128731 29.24610877128731 29.24610877128731 29.24610877128731 29.24610877128731 29.24610877128731 29.24610877128731 29.24610877128731 29.24610877128731 29.24610877128731 29.215345174876397 29.215345174876397 29.24610877128731 29.215345174876397 29.215345174876397 29.215345174876397 29.215345174876397 29.215345174876397 29.215345174876397 29.215345174876397 29.215345174876397 29.215345174876397 29.215345174876397 29.215345174876397 29.215345174876397 29.215345174876397 29.215345174876397 29.215345174876397 29.215345174876397 29.215345174876397 29.215345174876397 29.215345174876397 29.215345174876397 29.215345174876397 29.184581578465483 29.215345174876397 29.215345174876397 29.215345174876397 29.215345174876397 29.215345174876397 29.215345174876397 29.215345174876397 29.215345174876397 29.215345174876397 29.215345174876397 29.215345174876397 29.215345174876397 29.215345174876397 29.215345174876397 29.215345174876397 29.215345174876397 29.215345174876397 29.215345174876397 29.215345174876397 29.215345174876397 29.215345174876397 29.215345174876397 29.215345174876397 29.215345174876397 29.215345174876397 29.215345174876397 29.215345174876397 29.215345174876397 29.184581578465483 29.215345174876397 29.184581578465483 29.215345174876397 29.215345174876397 29.215345174876397 29.215345174876397 29.215345174876397 29.215345174876397 29.215345174876397 29.215345174876397 29.215345174876397 29.215345174876397 29.215345174876397 29.215345174876397 29.184581578465483 29.215345174876397 29.215345174876397 29.215345174876397 29.184581578465483 29.215345174876397 29.215345174876397 29.215345174876397 29.215345174876397 29.215345174876397 29.215345174876397 29.215345174876397 29.215345174876397 29.184581578465483 29.215345174876397 29.184581578465483 29.184581578465483 29.215345174876397 29.184581578465483 29.184581578465483 29.215345174876397 29.215345174876397 29.215345174876397 29.184581578465483 29.184581578465483 29.184581578465483 29.184581578465483 29.184581578465483 29.184581578465483 29.215345174876397 29.184581578465483 29.184581578465483 29.184581578465483 29.184581578465483 29.184581578465483 29.184581578465483 29.184581578465483 29.184581578465483 29.184581578465483 29.184581578465483 29.184581578465483 29.184581578465483 29.184581578465483 29.184581578465483 29.184581578465483 29.184581578465483 29.184581578465483 29.184581578465483 29.184581578465483 29.184581578465483 29.184581578465483 29.184581578465483 29.184581578465483 29.184581578465483 29.184581578465483 29.184581578465483 29.184581578465483 29.184581578465483 29.184581578465483 29.184581578465483 29.184581578465483 29.184581578465483 29.184581578465483 29.184581578465483 29.184581578465483 29.184581578465483 29.184581578465483 29.184581578465483 29.184581578465483 29.184581578465483 29.184581578465483 29.184581578465483 29.184581578465483 29.184581578465483 29.184581578465483 29.184581578465483 29.184581578465483 29.184581578465483 29.184581578465483 29.184581578465483 29.184581578465483 29.184581578465483 29.184581578465483 29.184581578465483 29.184581578465483 29.184581578465483 29.184581578465483 29.184581578465483 29.184581578465483 29.184581578465483 29.15381798205457 29.184581578465483 29.15381798205457 29.184581578465483 29.15381798205457 29.184581578465483 29.184581578465483 29.15381798205457 29.184581578465483 29.184581578465483 29.15381798205457 29.15381798205457 29.184581578465483 29.15381798205457 29.15381798205457 29.15381798205457 29.15381798205457 29.15381798205457 29.15381798205457 29.15381798205457 29.15381798205457 29.15381798205457 29.15381798205457 29.15381798205457 29.15381798205457 29.15381798205457 29.123054385643655 29.123054385643655 29.123054385643655 29.123054385643655 29.123054385643655 29.123054385643655 29.123054385643655 29.123054385643655 29.123054385643655 29.123054385643655 29.123054385643655 29.123054385643655 29.123054385643655 29.123054385643655 29.123054385643655 29.123054385643655 29.123054385643655 29.123054385643655 29.123054385643655 29.123054385643655 29.123054385643655 29.123054385643655 29.123054385643655 29.123054385643655 29.123054385643655 29.123054385643655 29.123054385643655 29.123054385643655 29.123054385643655 29.123054385643655 29.123054385643655 29.123054385643655 29.123054385643655 29.123054385643655 29.123054385643655 29.123054385643655 29.123054385643655 29.123054385643655 29.123054385643655 29.123054385643655 29.123054385643655 29.123054385643655 29.123054385643655 29.123054385643655 29.123054385643655 29.123054385643655 29.123054385643655 29.123054385643655 29.123054385643655 29.123054385643655 29.123054385643655 29.123054385643655 29.123054385643655 29.123054385643655 29.123054385643655 29.123054385643655 29.123054385643655 29.123054385643655 29.123054385643655 29.123054385643655 29.123054385643655 29.123054385643655 29.123054385643655 29.123054385643655 29.123054385643655 29.123054385643655 29.123054385643655 29.123054385643655 29.123054385643655 29.123054385643655 29.123054385643655 29.123054385643655 29.123054385643655 29.123054385643655 29.123054385643655 29.123054385643655 29.123054385643655 29.123054385643655 29.123054385643655 29.123054385643655 29.123054385643655 29.123054385643655 29.123054385643655 29.123054385643655 29.123054385643655 29.123054385643655 29.123054385643655 29.123054385643655 29.123054385643655 29.123054385643655 29.123054385643655 29.123054385643655 29.123054385643655 29.123054385643655 29.123054385643655 29.123054385643655 29.123054385643655 29.123054385643655 29.123054385643655 29.123054385643655 29.123054385643655 29.123054385643655 29.123054385643655 29.123054385643655 29.123054385643655 29.123054385643655 29.123054385643655 29.123054385643655 29.123054385643655 29.123054385643655 29.123054385643655 29.09229078923274 29.09229078923274 29.09229078923274 29.09229078923274 29.09229078923274 29.061527192821828 29.061527192821828 29.030763596410914 29.030763596410914 29.030763596410914 29.030763596410914 29.030763596410914 29.030763596410914 29.030763596410914 29.030763596410914 29.030763596410914 29.030763596410914 29.0 29.030763596410914 29.030763596410914 29.030763596410914 29.0 29.030763596410914 29.0 29.030763596410914 29.030763596410914 29.0 29.0 29.030763596410914 29.0 29.0 29.0 29.0 29.0 29.0 29.0 29.0 29.0 29.0 29.0 29.0 29.0 29.0 29.0 29.0 29.0 29.0 29.0 29.0 29.0 29.0 29.0 29.0 29.0 29.0 29.0 29.0 29.0 29.0 29.0 29.0 29.0 29.0 29.0 29.0 29.0 29.0 29.0 29.0 29.0 29.0 29.0 29.0 29.0 29.0 29.0 29.0 29.0 29.0 29.0 29.0 29.0 29.0 29.0 29.0 29.0 29.0 29.0 29.0 29.0 29.0 29.0 29.0 29.0 29.0 29.0 29.0 29.0 29.0 29.0 29.0 29.0 29.0 29.0 29.0 29.0 29.0 29.0 29.0 29.0 29.0 29.0 29.0 29.0 29.0 29.0 29.0 29.0 29.0 29.0 29.0 29.0 29.0 29.0 29.0 29.0 29.0 29.0 29.0 29.0 29.0 29.0 29.0 29.0 29.0 29.0 29.0 29.0 29.0 29.0 29.0 29.0 29.0 29.0 29.0 29.0 29.0 29.0 29.0 29.0 29.0 29.0 29.0 29.0 29.0 29.0 29.0 29.0 29.0 29.0 29.0 29.0 29.0 29.0 29.0 29.0 29.0 29.0 29.0 29.0 29.0 29.0 29.0 29.0 29.0 29.0 29.0 29.0 29.0 29.0 29.0 29.0 29.0 29.0 29.0 29.0 29.0 29.0 29.0 29.0 29.0 29.0 29.0 29.0 29.0 29.0 29.0 29.0 29.0 29.0 29.0 29.0 29.0 29.0 29.0 29.0 29.0 29.0 29.0 29.0 29.0 29.0 29.0 29.0 29.0 29.0 29.0 29.0 29.0 29.0 29.0 29.0 29.0 29.0 29.0 29.0 29.0 29.0 29.0 29.0 29.0 29.0 29.0 29.0 29.0 29.0 29.0 29.0 29.0 29.0 29.0 29.0 29.0 29.0 29.0 29.0 29.0 29.0 29.0 29.0 29.0 29.0 29.0 29.0 29.0 29.0 29.0 29.0 29.0 29.0 29.0 29.0 29.0 29.0 29.0 29.0 29.0 29.0 29.0 29.0 29.0 29.0 29.0 29.0 29.0 29.0 29.0 29.0 29.0 29.0 29.0 29.0 29.0 29.0 29.0 29.0 29.0 29.0 29.0 29.0 29.0 29.0 29.0 29.0 29.0 29.0 29.0 29.0 29.0 29.0 29.0 29.0 29.0 29.0 29.0 29.0 29.0 29.0 29.0 29.0 29.0 29.0 29.0 29.0 29.0 29.0 29.0 29.0 29.0 29.0 29.0 29.0 29.0 29.0 29.0 29.0 29.0 29.0 29.0 29.0 29.0 29.0 29.0 29.0 29.0 29.0 29.0 29.0 29.0 29.0 29.0 29.0 29.0 29.0 29.0 29.0 29.0 29.0 29.0 29.0 29.0 29.0 29.0 29.0 29.0 29.0 29.0 29.0 29.0 29.0 29.0 29.0 29.0 29.0 29.0 29.0 29.0 29.0 29.0 29.0 29.0 29.0 29.0 29.0 29.0 29.0 29.0 29.0 29.0 29.0 29.0 29.0 29.0 29.0 29.0 29.0 29.0 29.0 29.0 29.0 29.0 29.030763596410914 29.061527192821828 29.123054385643655 29.276872367698225 29.369163156930966 29.430690349752794 29.58450833180736 29.6767991210401 29.707562717451015 29.769089910272843 29.799853506683757 29.861380699505585 29.953671488738326 30.015198681560154 30.169016663614723 30.29207104925838 30.353598242080206 30.445889031312948 30.507416224134772 30.630470609778428 30.784288591832997 30.999633766709394 31.12268815235305 31.21497894158579 31.461087712873102 31.768723676982237 31.891778062625892 32.168650430324114 32.47628639443325 32.69163156930965 32.968503937007874 33.12232191906244 33.33766709393884 33.614539461637065 33.860648232924376 34.16828419703351 34.50668375755356 34.75279252884087 35.06042849295001 35.27577366782641 35.583409631935545 35.952572788866505 36.198681560153815 36.66013550631752 36.998535066837576 37.21388024171397 37.58304339864493 37.70609778428859 38.013733748397726 38.35213330891778 38.50595129097235 38.69053286943783 38.90587804431423 39.028932429957884 39.21351400842337 39.33656839406702 39.5211499725325 39.70573155099798 39.85954953305256 40.07489470792895 40.290239882805345 40.56711225050357 40.78245742537997 40.90551181102362 41.15162058231093 41.42849295000916 41.64383812488555 42.013001281816514 42.28987364951474 42.44369163156931 42.72056399926753 42.905145577733016 43.058963559787585 43.39736312030763 43.5511811023622 43.7665262772386 44.01263504852591 44.16645303058048 44.35103460904596 44.56637978392236 44.75096136238784 44.90477934444241 45.05859732649698 45.24317890496246 45.427760483427946 45.70463285112616 45.950741622413474 46.13532320087896 46.350668375755355 46.504486357809924 46.62754074345358 46.93517670756272 47.08899468961728 47.27357626808276 47.519685039370074 47.67350302142465 47.85808459989013 48.22724775682109 48.473356528108404 48.81175608862846 49.027101263504846 49.39626442043581 49.70390038454495 49.980772752243176 50.34993590917414 50.65757187328328 50.903680644570585 51.211316608679724 51.42666178355613 51.703534151254345 52.103460904596226 52.34956967588353 52.53415125434902 52.74949642922542 52.903314411279986 53.24171397180004 53.42629555026552 53.64164072514191 53.88774949642922 54.0415674784838 54.226149056949275 54.53378502105841 54.7183665995239 54.9644753708112 55.149056949276684 55.395165720563995 55.641274491851306 55.82585607031679 56.0719648416041 56.28731001648049 56.47189159494598 56.718000366233284 56.90258194469877 57.210217908807905 57.36403589086248 57.54861746932796 57.73319904779344 57.82548983702618 57.94854422266984 58.19465299395715 58.34847097601172 58.533052554477194 58.779161325764505 58.99450650064091 59.27137886833913 59.45596044680461 59.76359641091375 60.040468778611974 60.25581395348837 60.47115912836477 60.87108588170665 61.11719465299395 61.33253982787035 61.547885002746746 61.76323017762314 62.04010254532137 62.22468412378685 62.53232008789599 62.80919245559421 62.99377403405969 63.20911920893609 63.30140999816883 63.516755173045226 63.85515473356528 63.94744552279802 64.16279069767441 64.37813587255081 64.53195385460538 64.80882622230361 64.83958981871451 65.11646218641275 65.33180736128914 65.54715253616553 65.79326130745284 65.94707928950741 66.1316608679729 66.31624244643838 66.40853323567111 66.53158762131477 66.68540560336935 66.77769639260208 66.90075077824574 66.96227797106756 67.02380516388939 67.05456876030031 67.11609595312214 67.14685954953305 67.2699139351767 67.30067753158761 67.39296832082036 67.42373191723127 67.48525911005311 67.51602270646401 67.54678630287492 67.54678630287492 67.54678630287492 67.54678630287492 67.51602270646401 67.51602270646401 67.51602270646401 67.51602270646401 67.51602270646401 67.51602270646401 67.51602270646401 67.48525911005311 67.45449551364219 67.42373191723127 67.39296832082036 67.39296832082036 67.39296832082036 67.39296832082036 67.39296832082036 67.39296832082036 67.39296832082036 67.39296832082036 67.39296832082036 67.39296832082036 67.39296832082036 67.39296832082036 67.39296832082036 67.39296832082036 67.39296832082036 67.39296832082036 67.39296832082036 67.39296832082036 67.39296832082036 67.39296832082036 67.36220472440945 67.36220472440945 67.36220472440945 67.33144112799853 67.33144112799853 67.30067753158761 67.30067753158761 67.30067753158761 67.30067753158761 67.2699139351767 67.2699139351767 67.2699139351767 67.2699139351767 67.2699139351767 67.2699139351767 67.2391503387658 67.2391503387658 67.20838674235489 67.20838674235489 67.20838674235489 67.17762314594395 67.17762314594395 67.17762314594395 67.14685954953305 67.11609595312214 67.11609595312214 67.08533235671122 67.08533235671122 67.08533235671122 67.08533235671122 67.08533235671122 67.08533235671122 67.11609595312214 67.08533235671122 67.08533235671122 67.08533235671122 67.08533235671122 67.08533235671122 67.11609595312214 67.11609595312214 67.11609595312214 67.11609595312214 67.11609595312214 67.11609595312214 67.11609595312214 67.11609595312214 67.11609595312214 67.08533235671122 67.08533235671122 67.08533235671122 67.11609595312214 67.11609595312214 67.11609595312214 67.11609595312214 67.08533235671122 67.08533235671122 67.08533235671122 67.08533235671122 67.11609595312214 67.11609595312214 67.11609595312214 67.08533235671122 67.08533235671122 67.08533235671122 67.08533235671122 67.08533235671122 67.08533235671122 67.08533235671122 67.05456876030031 67.08533235671122 67.05456876030031 67.05456876030031 67.05456876030031 67.05456876030031 67.05456876030031 67.05456876030031 67.05456876030031 67.05456876030031 67.02380516388939 67.05456876030031 67.02380516388939 67.02380516388939 67.02380516388939 67.02380516388939 66.99304156747849 66.99304156747849 66.99304156747849 66.99304156747849 66.99304156747849 66.99304156747849 66.99304156747849 66.99304156747849 66.99304156747849 66.99304156747849 66.96227797106756 66.93151437465664 66.93151437465664 66.93151437465664 66.93151437465664 66.93151437465664 66.93151437465664 66.90075077824574 66.90075077824574 66.90075077824574 66.86998718183483 66.86998718183483 66.86998718183483 66.86998718183483 66.86998718183483 66.86998718183483 66.86998718183483 66.86998718183483 66.86998718183483 66.86998718183483 66.86998718183483 66.83922358542392 66.83922358542392 66.83922358542392 66.83922358542392 66.80845998901299 66.77769639260208 66.77769639260208 66.74693279619117 66.71616919978025 66.71616919978025 66.68540560336935 66.68540560336935 66.65464200695843 66.62387841054752 66.65464200695843 66.62387841054752 66.5931148141366 66.5931148141366 66.56235121772569 66.53158762131477 66.50082402490386 66.47006042849296 66.43929683208202 66.40853323567111 66.40853323567111 66.37776963926021 66.3470060428493 66.31624244643838 66.28547885002746 66.28547885002746 66.25471525361655 66.25471525361655 66.25471525361655 66.25471525361655 66.22395165720565 66.22395165720565 66.19318806079472 66.19318806079472 66.19318806079472 66.1624244643838 66.1624244643838 66.1624244643838 66.1624244643838 66.1624244643838 66.1624244643838 66.1624244643838 66.1624244643838 66.1624244643838 66.1624244643838 66.1624244643838 66.1624244643838 66.1624244643838 66.1624244643838 66.1316608679729 66.1316608679729 66.10089727156199 66.10089727156199 66.10089727156199 66.10089727156199 66.10089727156199 66.10089727156199 66.10089727156199 66.10089727156199 66.10089727156199 66.10089727156199 66.10089727156199 66.10089727156199 66.10089727156199 66.10089727156199 66.10089727156199 66.10089727156199 66.10089727156199 66.10089727156199 66.10089727156199 66.10089727156199 66.10089727156199 66.10089727156199 66.10089727156199 66.10089727156199 66.10089727156199 66.1316608679729 66.10089727156199 66.10089727156199 66.10089727156199 66.10089727156199 66.10089727156199 66.10089727156199 66.10089727156199 66.10089727156199 66.07013367515107 66.07013367515107 66.07013367515107 66.07013367515107 66.07013367515107 66.07013367515107 66.07013367515107 66.07013367515107 66.07013367515107 66.07013367515107 66.10089727156199 66.10089727156199 66.10089727156199 66.10089727156199 66.1316608679729 66.1316608679729 66.1316608679729 66.1316608679729 66.1316608679729 66.1316608679729 66.1316608679729 66.1316608679729 66.1316608679729 66.1316608679729 66.1316608679729 66.10089727156199 66.1316608679729 66.10089727156199 66.10089727156199 66.10089727156199 66.10089727156199 66.10089727156199 66.10089727156199 66.10089727156199 66.10089727156199 66.10089727156199 66.10089727156199 66.07013367515107 66.10089727156199 66.10089727156199 66.10089727156199 66.10089727156199 66.10089727156199 66.10089727156199 66.10089727156199 66.10089727156199 66.10089727156199 66.10089727156199 66.10089727156199 66.10089727156199 66.10089727156199 66.10089727156199 66.10089727156199 66.10089727156199 66.10089727156199 66.10089727156199 66.10089727156199 66.10089727156199 66.10089727156199 66.10089727156199 66.10089727156199 66.10089727156199 66.10089727156199 66.10089727156199 66.07013367515107 66.10089727156199 66.07013367515107 66.07013367515107 66.07013367515107 66.07013367515107 66.10089727156199 66.07013367515107 66.07013367515107 66.10089727156199 66.07013367515107 66.10089727156199 66.10089727156199 66.10089727156199 66.07013367515107 66.10089727156199 66.07013367515107 66.07013367515107 66.07013367515107 66.07013367515107 66.07013367515107 66.07013367515107 66.07013367515107 65.97784288591834 65.94707928950741 65.88555209668559 65.76249771104193 65.67020692180918 65.57791613257645 65.39333455411096 65.30104376487822 65.11646218641275 64.99340780076909 64.90111701153634 64.62424464383813 64.47042666178355 64.28584508331807 64.07049990844168 63.88591832997619 63.70133675151071 63.63980955868888 63.578282365867054 63.33217359457974 63.14759201611426 62.870719648416035 62.5630836843069 62.347738509430506 62.04010254532137 61.701702984801315 61.51712140633583 61.20948544222669 60.994140267350296 60.594213514008416 60.16352316425563 60.040468778611974 59.70206921809192 59.45596044680461 59.086797289873644 58.71763413294268 58.47152536165537 58.071598608313494 57.70243545138253 57.33327229445156 56.994872733931516 56.68723676982238 56.225782823658676 55.76432887749496 55.395165720563995 54.99523896722212 54.59531221388024 54.226149056949275 53.88774949642922 53.76469511078557 53.45705914667643 53.14942318256729 52.9340780076909 52.56491485075993 52.38033327229445 52.103460904596226 51.79582494048709 51.58047976561069 51.39589818714521 51.02673503021424 50.842153451748764 50.534517487639626 50.31917231276323 50.01153634865409 49.70390038454495 49.365500824024906 49.1501556491485 48.780992492217536 48.50412012451932 48.19648416041018 47.95037538912287 47.550448635780995 47.27357626808276 47.05823109320637 46.78135872550815 46.53524995422084 46.47372276139901 46.16608679728987 46.0122688152353 45.79692364035891 45.61234206189343 45.45852407983885 45.3354696941952 45.089360922907886 44.96630653726424 44.781724958798755 44.6586705731551 44.474088994689616 44.25874381981322 44.10492583775865 43.85881706647134 43.67423548800586 43.52041750595129 43.33583592748581 43.18201794543124 42.93590917414393 42.566746017212964 42.38216443874748 42.07452847463834 41.88994689617286 41.64383812488555 41.27467496795458 41.18238417872185 40.78245742537997 40.50558505768174 40.32100347921626 40.044131111518034 39.79802234023072 39.644204358176154 39.39809558688884 39.21351400842337 38.99816883354697 38.8443508514924 38.721296465848745 38.567478483794176 38.50595129097235 38.38289690532869 38.25984251968504 38.167551730452296 38.013733748397726 37.89067936275407 37.73686138069951 37.552279802234025 37.459989013001284 37.2754074345358 37.09082585607032 36.93700787401575 36.81395348837209 36.66013550631752 36.56784471708478 36.444790331441126 36.352499542208385 36.26020875297564 36.13715436733199 36.106390770921074 35.98333638527742 35.89104559604468 35.82951840322285 35.706464017579194 35.64493682475737 35.52188243911371 35.39882805347006 35.24501007141549 35.09119208936092 34.96813770371727 34.90661051089544 34.783556125251785 34.69126533601904 34.66050173960813 34.5989745467863 34.537447353964474 34.50668375755356 34.44515656473173 34.383629371909905 34.32210217908808 34.26057498626625 34.16828419703351 34.075993407800766 34.01446621497894 33.922175425746204 33.829884636513455 33.73759384728072 33.67606665445889 33.614539461637065 33.55301226881524 33.460721479582496 33.42995788317158 33.30690349752793 33.214612708295185 33.15308551547336 33.060794726240616 32.968503937007874 32.93774034059696 32.87621314777513 32.84544955136422 32.84544955136422 32.84544955136422 32.814685954953305 32.78392235854239 32.75315876213148 32.72239516572056 32.660867972898735 32.63010437648782 32.53781358725508 32.47628639443325 32.3532320087896 32.32246841237868 32.260941219556855 32.260941219556855 32.260941219556855 32.23017762314594 32.23017762314594 32.23017762314594 32.19941402673503 32.168650430324114 32.1378868339132 32.107123237502286 32.07635964109137 32.07635964109137 32.07635964109137 32.04559604468046 32.04559604468046 32.014832448269544 31.984068851858634 31.922541659036806 31.86101446621498 31.79948727339315 31.676432887749495 31.614905694927668 31.491851309284012 31.307269730818533 31.21497894158579 31.12268815235305 30.999633766709394 30.907342977476652 30.87657938106574 30.845815784654825 30.81505218824391 30.81505218824391 30.81505218824391 30.784288591832997 30.784288591832997 30.753524995422083 30.72276139901117 30.691997802600255 30.66123420618934 30.630470609778428 30.599707013367514 30.5689434169566 30.507416224134772 30.47665262772386 30.445889031312948 30.415125434902034 30.38436183849112 30.38436183849112 30.353598242080206 30.38436183849112 30.353598242080206 30.353598242080206 30.353598242080206 30.322834645669293 30.322834645669293 30.29207104925838 30.29207104925838 30.29207104925838 30.261307452847465 30.23054385643655 30.23054385643655 30.23054385643655 30.199780260025637 30.169016663614723 30.169016663614723 30.169016663614723 30.169016663614723 30.169016663614723 30.13825306720381 30.13825306720381 30.13825306720381 30.13825306720381 30.13825306720381 30.107489470792896 30.07672587438198 30.045962277971068 29.98443508514924 29.953671488738326 29.922907892327412 29.861380699505585 29.861380699505585 29.83061710309467 29.83061710309467 29.83061710309467 29.799853506683757 29.799853506683757 29.799853506683757 29.769089910272843 29.769089910272843 29.769089910272843 29.769089910272843 29.769089910272843 29.769089910272843 29.73832631386193 29.73832631386193 29.707562717451015 29.707562717451015 29.6767991210401 29.6767991210401 29.6767991210401 29.6767991210401 29.646035524629188 29.646035524629188 29.646035524629188 29.615271928218274 29.646035524629188 29.615271928218274 29.615271928218274 29.615271928218274 29.615271928218274 29.615271928218274 29.615271928218274 29.615271928218274 29.615271928218274 29.615271928218274 29.615271928218274 29.615271928218274 29.615271928218274 29.615271928218274 29.615271928218274 29.615271928218274 29.615271928218274 29.615271928218274 29.615271928218274 29.615271928218274 29.615271928218274 29.615271928218274 29.615271928218274 29.615271928218274 29.615271928218274 29.615271928218274 29.615271928218274 29.615271928218274 29.615271928218274 29.615271928218274 29.615271928218274 29.615271928218274 29.615271928218274 29.58450833180736 29.615271928218274 29.615271928218274 29.615271928218274 29.615271928218274 29.58450833180736 29.615271928218274 29.615271928218274 29.58450833180736 29.615271928218274 29.58450833180736 29.615271928218274 29.615271928218274 29.615271928218274 29.615271928218274 29.615271928218274 29.58450833180736 29.615271928218274 29.615271928218274 29.615271928218274 29.615271928218274 29.615271928218274 29.615271928218274 29.58450833180736 29.58450833180736 29.615271928218274 29.615271928218274 29.615271928218274 29.615271928218274 29.615271928218274 29.58450833180736 29.58450833180736 29.58450833180736 29.58450833180736 29.58450833180736 29.615271928218274 29.615271928218274 29.58450833180736 29.615271928218274 29.615271928218274 29.58450833180736 29.615271928218274 29.615271928218274 29.615271928218274 29.615271928218274 29.615271928218274 29.615271928218274 29.615271928218274 29.615271928218274 29.615271928218274 29.58450833180736 29.615271928218274 29.615271928218274 29.615271928218274 29.58450833180736 29.615271928218274 29.615271928218274 29.615271928218274 29.58450833180736 29.615271928218274 29.615271928218274 29.615271928218274 29.615271928218274 29.615271928218274 29.615271928218274 29.615271928218274 29.58450833180736 29.58450833180736 29.615271928218274 29.615271928218274 29.58450833180736 29.615271928218274 29.58450833180736 29.58450833180736 29.615271928218274 29.615271928218274 29.58450833180736 29.58450833180736 29.58450833180736 29.58450833180736 29.58450833180736 29.615271928218274 29.58450833180736 29.615271928218274 29.58450833180736 29.615271928218274 29.615271928218274 29.58450833180736 29.58450833180736 29.615271928218274 29.615271928218274 29.58450833180736 29.615271928218274 29.58450833180736 29.58450833180736 29.615271928218274 29.58450833180736 29.615271928218274 29.58450833180736 29.58450833180736 29.58450833180736 29.615271928218274 29.58450833180736 29.58450833180736 29.615271928218274 29.58450833180736 29.58450833180736 29.615271928218274 29.615271928218274 29.58450833180736 29.58450833180736 29.58450833180736 29.58450833180736 29.58450833180736 29.615271928218274 29.58450833180736 29.615271928218274 29.58450833180736 29.615271928218274 29.615271928218274 29.58450833180736 29.615271928218274 29.615271928218274 29.58450833180736 29.58450833180736 29.615271928218274 29.58450833180736 29.615271928218274 29.615271928218274 29.58450833180736 29.58450833180736 29.615271928218274 29.58450833180736 29.58450833180736 29.615271928218274 29.58450833180736 29.615271928218274 29.615271928218274 29.58450833180736 29.58450833180736 29.58450833180736 29.58450833180736 29.58450833180736 29.58450833180736 29.58450833180736 29.58450833180736 29.58450833180736 29.58450833180736 29.58450833180736 29.58450833180736 29.58450833180736 29.58450833180736 29.58450833180736 29.58450833180736 29.58450833180736 29.58450833180736 29.58450833180736 29.58450833180736 29.58450833180736 29.58450833180736 29.58450833180736 29.58450833180736 29.58450833180736 29.58450833180736 29.58450833180736 29.58450833180736 29.58450833180736 29.553744735396446 29.553744735396446 29.553744735396446 29.58450833180736 29.553744735396446 29.553744735396446 29.553744735396446 29.58450833180736 29.58450833180736 29.553744735396446 29.553744735396446 29.553744735396446 29.553744735396446 29.553744735396446 29.553744735396446 29.553744735396446 29.553744735396446 29.553744735396446 29.553744735396446 29.553744735396446 29.553744735396446 29.553744735396446 29.553744735396446 29.553744735396446 29.553744735396446 29.553744735396446 29.553744735396446 29.553744735396446 29.553744735396446 29.553744735396446 29.553744735396446 29.553744735396446 29.553744735396446 29.553744735396446 29.553744735396446 29.553744735396446 29.553744735396446 29.553744735396446 29.553744735396446 29.553744735396446 29.553744735396446 29.553744735396446 29.553744735396446 29.553744735396446 29.553744735396446 29.553744735396446 29.553744735396446 29.553744735396446 29.553744735396446 29.553744735396446 29.553744735396446 29.553744735396446 29.553744735396446 29.553744735396446 29.553744735396446 29.553744735396446 29.553744735396446 29.553744735396446 29.553744735396446 29.553744735396446 29.553744735396446 29.553744735396446 29.553744735396446 29.553744735396446 29.553744735396446 29.553744735396446 29.553744735396446 29.553744735396446 29.553744735396446 29.553744735396446 29.553744735396446 29.553744735396446 29.553744735396446 29.553744735396446 29.553744735396446 29.553744735396446 29.553744735396446 29.553744735396446 29.553744735396446 29.553744735396446 29.553744735396446 29.553744735396446 29.553744735396446 29.553744735396446 29.553744735396446 29.553744735396446 29.553744735396446 29.553744735396446 29.553744735396446 29.553744735396446 29.553744735396446 29.553744735396446 29.553744735396446 29.553744735396446 29.553744735396446 29.553744735396446 29.553744735396446 29.553744735396446 29.553744735396446 29.553744735396446 29.553744735396446 29.553744735396446 29.553744735396446 29.553744735396446 29.553744735396446 29.553744735396446 29.553744735396446 29.553744735396446 29.553744735396446 29.553744735396446 29.553744735396446 29.553744735396446 29.553744735396446 29.553744735396446 29.553744735396446 29.553744735396446 29.553744735396446 29.553744735396446 29.553744735396446 29.553744735396446 29.553744735396446 29.553744735396446 29.553744735396446 29.553744735396446 29.553744735396446 29.553744735396446 29.553744735396446 29.553744735396446 29.553744735396446 29.553744735396446 29.553744735396446 29.553744735396446 29.553744735396446 29.553744735396446 29.553744735396446 29.553744735396446 29.553744735396446 29.553744735396446 29.553744735396446 29.553744735396446 29.553744735396446 29.553744735396446 29.553744735396446 29.553744735396446 29.553744735396446 29.553744735396446 29.553744735396446 29.553744735396446 29.553744735396446 29.553744735396446 29.553744735396446 29.553744735396446 29.553744735396446 29.553744735396446 29.553744735396446 29.553744735396446 29.553744735396446 29.553744735396446 29.553744735396446 29.553744735396446 29.553744735396446 29.553744735396446 29.553744735396446 29.553744735396446 29.553744735396446 29.553744735396446 29.553744735396446 29.553744735396446 29.553744735396446 29.553744735396446 29.553744735396446 29.553744735396446 29.522981138985532 29.553744735396446 29.553744735396446 29.553744735396446 29.553744735396446 29.553744735396446 29.553744735396446 29.553744735396446 29.553744735396446 29.553744735396446 29.553744735396446 29.553744735396446 29.553744735396446 29.553744735396446 29.553744735396446 29.553744735396446 29.553744735396446 29.553744735396446 29.553744735396446 29.553744735396446 29.522981138985532 29.553744735396446 29.553744735396446 29.553744735396446 29.553744735396446 29.553744735396446 29.553744735396446 29.553744735396446 29.553744735396446 29.553744735396446 29.553744735396446 29.553744735396446 29.553744735396446 29.553744735396446 29.553744735396446 29.553744735396446 29.553744735396446 29.553744735396446 29.553744735396446 29.553744735396446 29.553744735396446 29.553744735396446 29.553744735396446 29.553744735396446 29.553744735396446 29.553744735396446 29.553744735396446 29.553744735396446 29.553744735396446 29.553744735396446 29.553744735396446 29.553744735396446 29.553744735396446 29.553744735396446 29.553744735396446 29.553744735396446 29.553744735396446 29.553744735396446 29.553744735396446 29.553744735396446 29.553744735396446 29.553744735396446 29.553744735396446 29.553744735396446 29.553744735396446 29.553744735396446 29.553744735396446 29.553744735396446 29.553744735396446 29.553744735396446 29.553744735396446 29.553744735396446 29.553744735396446 29.553744735396446 29.553744735396446 29.553744735396446 29.553744735396446 29.553744735396446 29.553744735396446 29.553744735396446 29.553744735396446 29.553744735396446 29.553744735396446 29.553744735396446 29.553744735396446 29.553744735396446 29.553744735396446 29.553744735396446 29.553744735396446 29.553744735396446 29.553744735396446 29.553744735396446 29.553744735396446 29.553744735396446 29.522981138985532 29.553744735396446 29.553744735396446 29.553744735396446 29.553744735396446 29.553744735396446 29.553744735396446 29.553744735396446 29.553744735396446 29.553744735396446 29.553744735396446 29.553744735396446 29.553744735396446 29.553744735396446 29.553744735396446 29.553744735396446 29.553744735396446 29.553744735396446 29.553744735396446 29.553744735396446 29.553744735396446 29.553744735396446 29.553744735396446 29.553744735396446 29.553744735396446 29.553744735396446 29.553744735396446 29.553744735396446 29.553744735396446 29.553744735396446 29.553744735396446 29.553744735396446 29.553744735396446 29.553744735396446 29.553744735396446 29.553744735396446 29.553744735396446 29.553744735396446 29.553744735396446 29.553744735396446 29.553744735396446 29.553744735396446 29.553744735396446 29.553744735396446 29.553744735396446 29.553744735396446 29.553744735396446 29.553744735396446 29.553744735396446 29.553744735396446 29.553744735396446 29.553744735396446 29.553744735396446 29.522981138985532 29.553744735396446 29.553744735396446 29.553744735396446 29.553744735396446 29.553744735396446 29.553744735396446 29.553744735396446 29.553744735396446 29.553744735396446 29.553744735396446 29.553744735396446 29.553744735396446 29.553744735396446 29.553744735396446 29.553744735396446 29.553744735396446 29.553744735396446 29.553744735396446 29.553744735396446 29.553744735396446 29.553744735396446 29.553744735396446 29.553744735396446 29.553744735396446 29.553744735396446 29.553744735396446 29.553744735396446 29.553744735396446 29.553744735396446 29.553744735396446 29.553744735396446 29.553744735396446 29.553744735396446 29.553744735396446 29.553744735396446 29.553744735396446 29.553744735396446 29.553744735396446 29.553744735396446 29.553744735396446 29.553744735396446 29.553744735396446 29.553744735396446 29.553744735396446 29.553744735396446 29.553744735396446 29.553744735396446 29.553744735396446 29.553744735396446 29.553744735396446 29.553744735396446 29.553744735396446 29.522981138985532 29.553744735396446 29.553744735396446 29.553744735396446 29.553744735396446 29.553744735396446 29.553744735396446 29.553744735396446 29.553744735396446 29.553744735396446 29.553744735396446 29.553744735396446 29.553744735396446 29.553744735396446 29.553744735396446 29.553744735396446 29.553744735396446 29.553744735396446 29.553744735396446 29.553744735396446 29.553744735396446 29.553744735396446 29.553744735396446 29.522981138985532 29.553744735396446 29.553744735396446 29.553744735396446 29.553744735396446 29.553744735396446 29.553744735396446 29.553744735396446 29.553744735396446 29.553744735396446 29.553744735396446 29.553744735396446 29.553744735396446 29.553744735396446 29.553744735396446 29.553744735396446 29.553744735396446 29.553744735396446 29.553744735396446 29.553744735396446 29.553744735396446 29.522981138985532 29.553744735396446 29.553744735396446 29.553744735396446 29.553744735396446 29.553744735396446 29.553744735396446 29.553744735396446 29.553744735396446 29.553744735396446 29.553744735396446 29.553744735396446 29.553744735396446 29.553744735396446 29.553744735396446 29.553744735396446 29.553744735396446 