29.0 29.0 29.0 29.0 29.0 29.0 29.0 29.0 29.0 29.0 28.969236403589086 29.0 29.0 28.969236403589086 29.0 29.0 29.0 28.969236403589086 29.0 28.969236403589086 29.0 29.0 28.969236403589086 28.969236403589086 29.0 28.969236403589086 29.0 29.0 29.0 29.0 29.0 29.0 29.0 29.0 29.0 29.0 29.0 29.0 29.0 28.969236403589086 29.0 28.969236403589086 29.0 28.969236403589086 29.0 29.0 29.0 29.0 28.969236403589086 29.0 28.969236403589086 29.0 29.0 29.0 29.0 29.0 29.0 29.0 29.0 29.0 29.0 29.0 28.969236403589086 29.0 29.0 29.0 29.0 28.969236403589086 29.0 29.0 29.0 28.969236403589086 29.0 29.0 29.0 29.0 29.0 29.0 29.0 29.0 29.0 29.0 28.969236403589086 29.0 29.0 29.0 28.969236403589086 29.0 28.969236403589086 29.0 29.0 29.0 29.0 29.0 29.0 29.0 28.969236403589086 28.969236403589086 29.0 29.0 28.969236403589086 29.0 29.0 29.0 29.0 29.0 29.0 29.0 29.0 29.0 28.969236403589086 29.0 28.969236403589086 29.0 28.969236403589086 29.0 29.0 29.0 29.0 28.969236403589086 29.0 29.0 29.0 29.0 29.0 29.0 29.0 29.0 28.969236403589086 29.0 29.0 29.0 29.0 29.0 28.969236403589086 29.0 29.0 29.0 29.0 29.0 29.0 29.0 29.0 28.969236403589086 29.0 29.0 29.0 29.0 29.0 29.0 28.969236403589086 29.0 29.0 29.0 29.0 29.0 29.0 29.0 29.0 29.0 29.0 29.0 29.0 29.0 28.969236403589086 29.0 29.0 28.969236403589086 29.0 29.0 29.0 29.0 29.0 29.0 29.0 29.0 29.0 29.0 29.0 29.0 29.0 28.969236403589086 29.0 29.0 29.0 29.0 29.0 29.0 28.969236403589086 29.0 29.0 28.969236403589086 29.0 29.0 29.0 29.0 29.0 29.0 29.0 29.0 29.0 29.0 29.0 29.0 29.0 29.0 29.0 29.0 29.0 29.0 29.0 29.0 29.0 29.0 29.0 29.0 29.0 29.0 29.0 28.969236403589086 29.0 29.0 29.0 29.0 29.0 29.0 29.0 28.969236403589086 28.969236403589086 29.0 29.0 29.0 29.0 29.0 28.969236403589086 29.0 29.0 29.0 28.969236403589086 29.0 28.969236403589086 29.0 28.969236403589086 29.0 29.0 29.0 29.0 29.0 29.0 29.0 29.0 29.0 29.0 28.969236403589086 29.0 29.0 29.0 29.0 29.0 29.0 29.0 29.0 28.969236403589086 29.0 29.0 29.0 29.0 29.0 28.969236403589086 29.0 29.0 28.969236403589086 29.0 28.969236403589086 29.0 29.0 29.0 29.0 29.0 29.0 29.0 28.969236403589086 29.0 29.0 29.0 29.0 29.0 29.0 29.0 29.0 29.0 29.0 29.0 28.969236403589086 29.0 28.969236403589086 29.0 29.0 29.0 28.969236403589086 29.0 29.0 28.969236403589086 29.0 29.0 29.0 29.0 28.969236403589086 29.0 29.0 29.0 28.969236403589086 29.0 29.0 28.969236403589086 29.0 29.0 29.0 29.0 29.0 29.0 28.969236403589086 29.0 28.969236403589086 29.0 29.0 29.0 28.969236403589086 29.0 29.0 29.0 29.0 29.0 29.0 29.0 29.0 29.0 29.0 29.0 29.0 29.0 29.0 29.0 29.0 29.0 29.0 29.0 29.0 29.0 29.0 29.0 29.0 29.0 29.0 28.969236403589086 28.969236403589086 29.0 29.0 29.0 29.0 29.0 29.0 29.0 29.0 29.0 29.0 29.0 29.0 29.0 28.969236403589086 28.969236403589086 29.0 28.969236403589086 28.969236403589086 29.0 29.0 29.0 29.0 28.969236403589086 29.0 29.0 29.0 29.0 29.0 28.969236403589086 29.0 29.0 28.969236403589086 29.0 29.0 29.0 29.0 29.0 29.0 29.0 29.0 29.0 29.0 29.0 28.969236403589086 29.0 28.969236403589086 28.969236403589086 29.0 29.0 28.969236403589086 28.969236403589086 29.0 29.0 29.0 29.0 29.0 29.0 29.0 29.0 29.0 29.0 29.0 29.0 28.969236403589086 29.0 29.0 29.0 29.0 28.969236403589086 29.0 29.0 29.0 29.0 29.0 29.0 29.0 29.0 29.0 28.969236403589086 29.0 29.0 29.0 29.0 29.0 29.0 29.0 29.0 29.0 29.0 29.0 28.969236403589086 29.0 28.969236403589086 29.0 29.0 29.0 28.969236403589086 29.0 29.0 29.0 29.0 29.0 29.0 29.0 29.0 29.0 29.0 29.0 29.0 29.0 29.0 28.969236403589086 29.0 29.0 29.0 29.0 29.0 29.0 29.0 29.0 29.0 28.969236403589086 28.969236403589086 29.0 29.0 29.0 29.0 29.0 29.0 29.0 29.0 28.969236403589086 29.0 29.0 29.0 29.0 29.0 29.0 29.0 29.0 29.0 29.0 29.0 29.0 29.0 29.0 29.0 28.969236403589086 29.0 28.969236403589086 29.0 28.969236403589086 29.0 29.0 29.0 29.0 29.0 29.0 29.0 29.0 29.0 29.0 29.0 29.0 28.969236403589086 29.0 29.0 29.0 29.0 29.0 29.0 29.0 29.0 29.0 28.969236403589086 29.0 29.0 29.0 29.0 29.0 29.0 29.0 29.0 29.0 29.0 29.0 29.0 29.0 29.0 29.0 29.0 29.0 29.0 29.0 28.969236403589086 29.0 29.0 29.0 29.0 29.0 29.0 29.0 29.0 29.0 29.0 29.0 29.0 29.0 29.0 29.0 29.0 29.0 29.0 29.0 29.0 29.0 29.0 29.030763596410914 29.030763596410914 29.030763596410914 29.0 29.030763596410914 29.030763596410914 29.030763596410914 29.030763596410914 29.030763596410914 29.030763596410914 29.030763596410914 29.061527192821828 29.061527192821828 29.061527192821828 29.061527192821828 29.09229078923274 29.09229078923274 29.15381798205457 29.215345174876397 29.30763596410914 29.39992675334188 29.49221754257462 29.615271928218274 29.73832631386193 29.8921442959165 30.045962277971068 30.169016663614723 30.38436183849112 30.507416224134772 30.5689434169566 30.630470609778428 30.72276139901117 30.784288591832997 30.845815784654825 30.938106573887566 31.030397363120308 31.12268815235305 31.21497894158579 31.338033327229446 31.430324116462188 31.522614905694926 31.614905694927668 31.70719648416041 31.86101446621498 32.04559604468046 32.29170481596777 32.507049990844166 32.78392235854239 33.09155832265153 33.39919428676067 33.76835744369163 34.10675700421168 34.41439296832082 34.72202893242996 35.029664896539096 35.337300860648234 35.61417322834646 35.89104559604468 36.13715436733199 36.444790331441126 36.78318989196118 37.060062259659404 37.306171030946714 37.61380699505585 37.89067936275407 38.19831532686321 38.44442409815052 38.721296465848745 38.99816883354697 39.30580479765611 39.582677165354326 39.82878593664164 40.10565830433986 40.35176707562717 40.65940303973631 40.96703900384545 41.27467496795458 41.55154733565281 41.797656106940124 42.105292071049256 42.35140084233657 42.659036806445705 42.905145577733016 43.18201794543124 43.39736312030763 43.64347189159494 43.92034425929317 44.16645303058048 44.4433253982787 44.68943416956601 44.935542940853324 45.21241530855154 45.427760483427946 45.67386925471526 45.88921442959165 46.16608679728987 46.41219556857718 46.658304339864486 46.93517670756272 47.18128547885003 47.42739425013734 47.70426661783556 47.98113898553378 48.22724775682109 48.50412012451932 48.780992492217536 49.08862845632668 49.365500824024906 49.61160959531221 49.91924555942135 50.19611792711957 50.50375389122871 50.81138985533785 51.05749862662516 51.30360739791247 51.61124336202161 51.85735213330892 52.13422450100714 52.411096868705364 52.68796923640359 52.99560520051273 53.21095037538912 53.48782274308734 53.85698590001831 54.10309467130563 54.47225782823658 54.872184581578466 55.11829335286578 55.48745650979674 55.73356528108405 56.225782823658676 56.502655191356894 56.748763962644205 57.179454312397 57.517853872917044 57.79472624061527 58.163889397546235 58.533052554477194 58.87145211499725 59.086797289873644 59.332906061160955 59.64054202527009 60.07123237502289 60.28657754989928 60.62497711041934 60.84032228529573 61.11719465299395 61.39406702069218 61.57864859915766 61.82475737044497 62.07086614173228 62.255447720197765 62.47079289507416 62.68613806995056 62.96301043764878 63.20911920893609 63.4552279802234 63.76286394433254 63.978209119208934 64.40889946896172 64.68577183665994 64.93188060794725 65.39333455411096 65.67020692180918 65.9163156930965 66.43929683208202 66.71616919978025 67.08533235671122 67.45449551364219 67.73136788134042 68.06976744186046 68.43893059879143 68.68503937007873 69.02343893059879 69.300311298297 69.60794726240616 69.9463468229262 70.28474638344625 70.50009155832265 70.80772752243178 71.05383629371909 71.36147225782824 71.57681743270463 71.97674418604652 72.22285295733383 72.43819813221022 72.68430690349753 72.93041567478483 73.05347006042848 73.36110602453763 73.5149240065922 73.7302691814686 73.94561435634498 74.09943233839957 74.25325032045413 74.43783189891961 74.53012268815235 74.653177073796 74.74546786302875 74.8685222486724 75.05310382713789 75.14539461637062 75.39150338765793 75.5453213697125 75.66837575535615 75.7606665445889 75.88372093023256 75.9760117194653 76.16059329793077 76.2221204907526 76.31441127998534 76.40670206921808 76.43746566562899 76.49899285845083 76.59128364768358 76.6528108405054 76.68357443691632 76.71433803332724 76.74510162973814 76.74510162973814 76.74510162973814 76.74510162973814 76.74510162973814 76.74510162973814 76.74510162973814 76.74510162973814 76.74510162973814 76.74510162973814 76.74510162973814 76.74510162973814 76.74510162973814 76.74510162973814 76.77586522614905 76.77586522614905 76.77586522614905 76.77586522614905 76.77586522614905 76.77586522614905 76.77586522614905 76.77586522614905 76.77586522614905 76.77586522614905 76.77586522614905 76.77586522614905 76.77586522614905 76.77586522614905 76.77586522614905 76.77586522614905 76.77586522614905 76.77586522614905 76.77586522614905 76.77586522614905 76.77586522614905 76.74510162973814 76.77586522614905 76.77586522614905 76.77586522614905 76.77586522614905 76.77586522614905 76.77586522614905 76.77586522614905 76.77586522614905 76.77586522614905 76.77586522614905 76.77586522614905 76.77586522614905 76.74510162973814 76.77586522614905 76.77586522614905 76.77586522614905 76.74510162973814 76.77586522614905 76.77586522614905 76.77586522614905 76.77586522614905 76.77586522614905 76.77586522614905 76.77586522614905 76.77586522614905 76.77586522614905 76.74510162973814 76.74510162973814 76.77586522614905 76.74510162973814 76.74510162973814 76.74510162973814 76.74510162973814 76.74510162973814 76.74510162973814 76.74510162973814 76.74510162973814 76.74510162973814 76.74510162973814 76.74510162973814 76.74510162973814 76.74510162973814 76.74510162973814 76.74510162973814 76.74510162973814 76.74510162973814 76.74510162973814 76.74510162973814 76.74510162973814 76.74510162973814 76.74510162973814 76.74510162973814 76.74510162973814 76.74510162973814 76.71433803332724 76.71433803332724 76.74510162973814 76.74510162973814 76.71433803332724 76.71433803332724 76.74510162973814 76.74510162973814 76.74510162973814 76.74510162973814 76.74510162973814 76.71433803332724 76.71433803332724 76.71433803332724 76.68357443691632 76.6528108405054 76.6528108405054 76.62204724409449 76.62204724409449 76.62204724409449 76.62204724409449 76.62204724409449 76.62204724409449 76.62204724409449 76.62204724409449 76.62204724409449 76.62204724409449 76.62204724409449 76.62204724409449 76.62204724409449 76.59128364768358 76.59128364768358 76.56052005127265 76.52975645486174 76.49899285845083 76.46822926203993 76.46822926203993 76.46822926203993 76.43746566562899 76.43746566562899 76.43746566562899 76.40670206921808 76.40670206921808 76.40670206921808 76.40670206921808 76.40670206921808 76.40670206921808 76.40670206921808 76.40670206921808 76.37593847280718 76.37593847280718 76.37593847280718 76.37593847280718 76.37593847280718 76.37593847280718 76.37593847280718 76.37593847280718 76.37593847280718 76.37593847280718 76.37593847280718 76.37593847280718 76.37593847280718 76.37593847280718 76.37593847280718 76.37593847280718 76.31441127998534 76.28364768357443 76.25288408716352 76.1913568943417 76.16059329793077 76.09906610510895 76.06830250869804 76.00677531587621 75.94524812305438 75.88372093023256 75.85295733382165 75.82219373741073 75.79143014099981 75.7606665445889 75.729902948178 75.729902948178 75.729902948178 75.729902948178 75.729902948178 75.729902948178 75.729902948178 75.729902948178 75.729902948178 75.69913935176706 75.69913935176706 75.66837575535615 75.66837575535615 75.66837575535615 75.66837575535615 75.66837575535615 75.63761215894525 75.60684856253434 75.60684856253434 75.60684856253434 75.57608496612343 75.5453213697125 75.51455777330159 75.45303058047976 75.42226698406884 75.39150338765793 75.39150338765793 75.39150338765793 75.36073979124703 75.36073979124703 75.36073979124703 75.36073979124703 75.3299761948361 75.3299761948361 75.29921259842519 75.29921259842519 75.26844900201428 75.23768540560337 75.20692180919245 75.20692180919245 75.14539461637062 75.11463101995972 75.11463101995972 75.11463101995972 75.11463101995972 75.11463101995972 75.11463101995972 75.11463101995972 75.11463101995972 75.11463101995972 75.11463101995972 75.11463101995972 75.11463101995972 75.11463101995972 75.11463101995972 75.11463101995972 75.11463101995972 75.11463101995972 75.11463101995972 75.11463101995972 75.11463101995972 75.11463101995972 75.11463101995972 75.11463101995972 75.0838674235488 75.11463101995972 75.0838674235488 75.11463101995972 75.0838674235488 75.0838674235488 75.0838674235488 75.0838674235488 75.05310382713789 75.02234023072697 74.99157663431606 74.96081303790514 74.93004944149423 74.89928584508331 74.89928584508331 74.8685222486724 74.8685222486724 74.8377586522615 74.8377586522615 74.8377586522615 74.8377586522615 74.8377586522615 74.80699505585056 74.80699505585056 74.77623145943966 74.77623145943966 74.77623145943966 74.77623145943966 74.77623145943966 74.77623145943966 74.77623145943966 74.74546786302875 74.77623145943966 74.77623145943966 74.77623145943966 74.74546786302875 74.74546786302875 74.77623145943966 74.77623145943966 74.74546786302875 74.77623145943966 74.74546786302875 74.74546786302875 74.71470426661784 74.71470426661784 74.71470426661784 74.71470426661784 74.68394067020691 74.68394067020691 74.68394067020691 74.68394067020691 74.653177073796 74.653177073796 74.6224134773851 74.6224134773851 74.6224134773851 74.59164988097417 74.56088628456325 74.53012268815235 74.49935909174144 74.46859549533052 74.43783189891961 74.40706830250869 74.37630470609778 74.34554110968686 74.31477751327596 74.28401391686504 74.25325032045413 74.22248672404322 74.1917231276323 74.16095953122138 74.13019593481047 74.06866874198865 74.03790514557772 74.00714154916682 73.97637795275591 73.97637795275591 73.94561435634498 73.94561435634498 73.91485075993407 73.88408716352316 73.85332356711226 73.82255997070132 73.79179637429041 73.7610327778795 73.7302691814686 73.69950558505768 73.69950558505768 73.66874198864676 73.66874198864676 73.63797839223585 73.60721479582494 73.60721479582494 73.57645119941402 73.57645119941402 73.5456876030031 73.5456876030031 73.5149240065922 73.5149240065922 73.42263321735945 73.29957883171579 73.11499725325032 72.89965207837392 72.74583409631936 72.56125251785386 72.43819813221022 72.22285295733383 72.03827137886833 71.91521699322467 71.7306354147592 71.5152902398828 71.2999450650064 71.08459989013001 70.90001831166452 70.6231459439663 70.4078007690899 70.25398278703534 70.00787401574803 69.79252884087163 69.57718366599524 69.36183849111885 69.14649331624244 68.77733015931148 68.50045779161326 68.31587621314777 68.00824024903864 67.73136788134042 67.45449551364219 67.17762314594395 66.99304156747849 66.68540560336935 66.3470060428493 66.1316608679729 65.82402490386376 65.57791613257645 65.30104376487822 64.99340780076909 64.80882622230361 64.53195385460538 64.19355429408533 63.85515473356528 63.578282365867054 63.36293719099066 63.14759201611426 62.80919245559421 62.5630836843069 62.07086614173228 61.76323017762314 61.51712140633583 61.17872184581578 60.932613074528476 60.594213514008416 60.25581395348837 60.040468778611974 59.70206921809192 59.39443325398278 59.14832448269547 58.809924922175426 58.59457974729903 58.163889397546235 57.94854422266984 57.73319904779344 57.4255630836843 57.117927119575164 56.90258194469877 56.47189159494598 56.195019227247755 55.91814685954953 55.70280168467313 55.48745650979674 55.026002563633035 54.68760300311298 54.44149423182567 54.10309467130563 53.88774949642922 53.580113532320084 53.27247756821095 53.08789598974546 52.811023622047244 52.503387657938106 52.31880607947262 52.0419337117744 51.88811572971983 51.488188976377955 51.27284380150155 51.11902581944699 50.74986266251602 50.442226698406884 50.22688152353049 49.76542757736678 49.51931880607947 49.21168284197033 48.96557407068302 48.719465299395715 48.28877494964292 48.04266617835561 47.73503021424648 47.39663065372642 47.1197582860282 46.84288591832997 46.504486357809924 46.28914118293353 45.950741622413474 45.67386925471526 45.427760483427946 45.05859732649698 44.81248855520967 44.4433253982787 44.01263504852591 43.70499908441677 43.5511811023622 43.33583592748581 43.058963559787585 42.8743819813221 42.68980040285662 42.32063724592565 42.04376487822743 41.951474088994686 41.58231093206372 41.39772935359824 41.15162058231093 40.87474821461271 40.6286394433254 40.413294268449 40.10565830433986 39.890313129463465 39.582677165354326 39.30580479765611 38.99816883354697 38.69053286943783 38.35213330891778 38.13678813404138 37.859915766343164 37.70609778428859 37.552279802234025 37.36769822376854 37.18311664530306 37.02929866324849 36.84471708478301 36.66013550631752 36.444790331441126 36.3832631386193 36.106390770921074 35.952572788866505 35.737227613990115 35.55264603552463 35.36806445705915 35.24501007141549 35.029664896539096 34.937374107306354 34.783556125251785 34.69126533601904 34.50668375755356 34.26057498626625 34.137520600622594 33.983702618568024 33.860648232924376 33.7068302508698 33.58377586522615 33.522248672404324 33.42995788317158 33.368430690349754 33.30690349752793 33.214612708295185 33.18384911188427 33.12232191906244 33.060794726240616 33.0300311298297 32.93774034059696 32.84544955136422 32.75315876213148 32.69163156930965 32.660867972898735 32.507049990844166 32.44552279802234 32.38399560520051 32.29170481596777 32.19941402673503 32.1378868339132 32.014832448269544 31.95330525544772 31.830250869804065 31.768723676982237 31.70719648416041 31.614905694927668 31.491851309284012 31.461087712873102 31.430324116462188 31.430324116462188 31.430324116462188 31.399560520051274 31.399560520051274 31.36879692364036 31.36879692364036 31.338033327229446 31.307269730818533 31.27650613440762 31.245742537996705 31.21497894158579 31.184215345174877 31.153451748763963 31.12268815235305 31.06116095953122 31.030397363120308 30.938106573887566 30.87657938106574 30.81505218824391 30.784288591832997 30.630470609778428 30.538179820545686 30.507416224134772 30.415125434902034 30.353598242080206 30.29207104925838 30.29207104925838 30.29207104925838 30.261307452847465 30.261307452847465 30.23054385643655 30.199780260025637 30.169016663614723 30.169016663614723 30.13825306720381 30.13825306720381 30.107489470792896 30.107489470792896 30.07672587438198 30.045962277971068 30.045962277971068 30.015198681560154 29.98443508514924 29.953671488738326 29.922907892327412 29.922907892327412 29.8921442959165 29.8921442959165 29.861380699505585 29.83061710309467 29.799853506683757 29.799853506683757 29.769089910272843 29.769089910272843 29.73832631386193 29.707562717451015 29.707562717451015 29.6767991210401 29.6767991210401 29.646035524629188 29.646035524629188 29.646035524629188 29.646035524629188 29.615271928218274 29.615271928218274 29.615271928218274 29.615271928218274 29.58450833180736 29.58450833180736 29.58450833180736 29.58450833180736 29.58450833180736 29.58450833180736 29.553744735396446 29.553744735396446 29.553744735396446 29.553744735396446 29.553744735396446 29.553744735396446 29.553744735396446 29.522981138985532 29.522981138985532 29.522981138985532 29.522981138985532 29.522981138985532 29.522981138985532 29.522981138985532 29.522981138985532 29.49221754257462 29.49221754257462 29.49221754257462 29.49221754257462 29.49221754257462 29.49221754257462 29.49221754257462 29.49221754257462 29.49221754257462 29.49221754257462 29.49221754257462 29.49221754257462 29.49221754257462 29.49221754257462 29.461453946163708 29.49221754257462 29.49221754257462 29.461453946163708 29.461453946163708 29.461453946163708 29.461453946163708 29.461453946163708 29.461453946163708 29.461453946163708 29.461453946163708 29.461453946163708 29.461453946163708 29.461453946163708 29.461453946163708 29.461453946163708 29.430690349752794 29.430690349752794 29.430690349752794 29.430690349752794 29.430690349752794 29.430690349752794 29.430690349752794 29.430690349752794 29.430690349752794 29.430690349752794 29.430690349752794 29.430690349752794 29.430690349752794 29.430690349752794 29.430690349752794 29.430690349752794 29.430690349752794 29.39992675334188 29.39992675334188 29.430690349752794 29.39992675334188 29.39992675334188 29.39992675334188 29.39992675334188 29.39992675334188 29.39992675334188 29.39992675334188 29.39992675334188 29.369163156930966 29.39992675334188 29.39992675334188 29.369163156930966 29.369163156930966 29.369163156930966 29.338399560520052 29.338399560520052 29.338399560520052 29.338399560520052 29.338399560520052 29.30763596410914 29.30763596410914 29.30763596410914 29.30763596410914 29.30763596410914 29.30763596410914 29.30763596410914 29.30763596410914 29.30763596410914 29.30763596410914 29.276872367698225 29.276872367698225 29.276872367698225 29.276872367698225 29.276872367698225 29.276872367698225 29.276872367698225 29.276872367698225 29.276872367698225 29.276872367698225 29.276872367698225 29.276872367698225 29.276872367698225 29.276872367698225 29.276872367698225 29.276872367698225 29.276872367698225 29.276872367698225 29.24610877128731 29.24610877128731 29.276872367698225 29.24610877128731 29.24610877128731 29.24610877128731 29.24610877128731 29.24610877128731 29.24610877128731 29.24610877128731 29.24610877128731 29.24610877128731 29.24610877128731 29.24610877128731 29.24610877128731 29.24610877128731 29.24610877128731 29.24610877128731 29.24610877128731 29.215345174876397 29.215345174876397 29.215345174876397 29.24610877128731 29.215345174876397 29.215345174876397 29.215345174876397 29.215345174876397 29.215345174876397 29.215345174876397 29.215345174876397 29.215345174876397 29.215345174876397 29.215345174876397 29.215345174876397 29.215345174876397 29.215345174876397 29.215345174876397 29.215345174876397 29.215345174876397 29.215345174876397 29.215345174876397 29.215345174876397 29.215345174876397 29.215345174876397 29.215345174876397 29.215345174876397 29.215345174876397 29.215345174876397 29.215345174876397 29.215345174876397 29.215345174876397 29.215345174876397 29.215345174876397 29.184581578465483 29.215345174876397 29.215345174876397 29.215345174876397 29.184581578465483 29.184581578465483 29.184581578465483 29.184581578465483 29.184581578465483 29.184581578465483 29.215345174876397 29.215345174876397 29.215345174876397 29.184581578465483 29.184581578465483 29.184581578465483 29.184581578465483 29.215345174876397 29.184581578465483 29.184581578465483 29.184581578465483 29.184581578465483 29.215345174876397 29.184581578465483 29.184581578465483 29.184581578465483 29.184581578465483 29.184581578465483 29.184581578465483 29.184581578465483 29.184581578465483 29.184581578465483 29.184581578465483 29.184581578465483 29.184581578465483 29.184581578465483 29.184581578465483 29.184581578465483 29.184581578465483 29.184581578465483 29.184581578465483 29.184581578465483 29.184581578465483 29.184581578465483 29.184581578465483 29.184581578465483 29.184581578465483 29.184581578465483 29.184581578465483 29.184581578465483 29.184581578465483 29.184581578465483 29.184581578465483 29.184581578465483 29.184581578465483 29.184581578465483 29.184581578465483 29.184581578465483 29.184581578465483 29.184581578465483 29.184581578465483 29.184581578465483 29.184581578465483 29.184581578465483 29.184581578465483 29.184581578465483 29.184581578465483 29.184581578465483 29.184581578465483 29.184581578465483 29.184581578465483 29.184581578465483 29.184581578465483 29.184581578465483 29.184581578465483 29.184581578465483 29.184581578465483 29.184581578465483 29.184581578465483 29.184581578465483 29.184581578465483 29.184581578465483 29.184581578465483 29.184581578465483 29.184581578465483 29.184581578465483 29.184581578465483 29.184581578465483 29.184581578465483 29.184581578465483 29.184581578465483 29.184581578465483 29.15381798205457 29.184581578465483 29.184581578465483 29.184581578465483 29.184581578465483 29.15381798205457 29.15381798205457 29.184581578465483 29.184581578465483 29.184581578465483 29.15381798205457 29.184581578465483 29.184581578465483 29.184581578465483 29.184581578465483 29.15381798205457 29.15381798205457 29.15381798205457 29.15381798205457 29.15381798205457 29.15381798205457 29.15381798205457 29.15381798205457 29.15381798205457 29.15381798205457 29.15381798205457 29.15381798205457 29.15381798205457 29.15381798205457 29.15381798205457 29.15381798205457 29.15381798205457 29.15381798205457 29.15381798205457 29.15381798205457 29.15381798205457 29.15381798205457 29.123054385643655 29.15381798205457 29.15381798205457 29.15381798205457 29.15381798205457 29.15381798205457 29.15381798205457 29.15381798205457 29.15381798205457 29.15381798205457 29.15381798205457 29.15381798205457 29.15381798205457 29.15381798205457 29.15381798205457 29.123054385643655 29.15381798205457 29.15381798205457 29.123054385643655 29.15381798205457 29.15381798205457 29.15381798205457 29.15381798205457 29.123054385643655 29.123054385643655 29.15381798205457 29.15381798205457 29.123054385643655 29.15381798205457 29.15381798205457 29.123054385643655 29.15381798205457 29.15381798205457 29.15381798205457 29.15381798205457 29.15381798205457 29.123054385643655 29.15381798205457 29.15381798205457 29.123054385643655 29.123054385643655 29.15381798205457 29.15381798205457 29.123054385643655 29.123054385643655 29.123054385643655 29.123054385643655 29.123054385643655 29.123054385643655 29.123054385643655 29.123054385643655 29.15381798205457 29.123054385643655 29.123054385643655 29.123054385643655 29.123054385643655 29.123054385643655 29.15381798205457 29.15381798205457 29.15381798205457 29.123054385643655 29.123054385643655 29.15381798205457 29.123054385643655 29.123054385643655 29.15381798205457 29.15381798205457 29.123054385643655 29.123054385643655 29.15381798205457 29.15381798205457 29.123054385643655 29.123054385643655 29.15381798205457 29.15381798205457 29.15381798205457 29.15381798205457 29.123054385643655 29.123054385643655 29.123054385643655 29.123054385643655 29.15381798205457 29.123054385643655 29.123054385643655 29.123054385643655 29.123054385643655 29.15381798205457 29.123054385643655 29.123054385643655 29.123054385643655 29.15381798205457 29.123054385643655 29.123054385643655 29.123054385643655 29.15381798205457 29.15381798205457 29.15381798205457 29.123054385643655 29.123054385643655 29.123054385643655 29.123054385643655 29.123054385643655 29.123054385643655 29.123054385643655 29.15381798205457 29.15381798205457 29.123054385643655 29.123054385643655 29.15381798205457 29.15381798205457 29.123054385643655 29.123054385643655 29.123054385643655 29.15381798205457 29.15381798205457 29.15381798205457 29.123054385643655 29.123054385643655 29.123054385643655 29.123054385643655 29.123054385643655 29.123054385643655 29.123054385643655 29.123054385643655 29.123054385643655 29.123054385643655 29.123054385643655 29.123054385643655 29.123054385643655 29.123054385643655 29.123054385643655 29.123054385643655 29.123054385643655 29.123054385643655 29.15381798205457 29.123054385643655 29.123054385643655 29.15381798205457 29.123054385643655 29.15381798205457 29.123054385643655 29.123054385643655 29.123054385643655 29.123054385643655 29.123054385643655 29.123054385643655 29.123054385643655 29.123054385643655 29.123054385643655 29.123054385643655 29.123054385643655 29.123054385643655 29.123054385643655 29.123054385643655 29.123054385643655 29.123054385643655 29.123054385643655 29.123054385643655 29.123054385643655 29.123054385643655 29.123054385643655 29.123054385643655 29.123054385643655 29.123054385643655 29.123054385643655 29.123054385643655 29.123054385643655 29.123054385643655 29.123054385643655 29.123054385643655 29.123054385643655 29.123054385643655 29.123054385643655 29.123054385643655 29.123054385643655 29.123054385643655 29.123054385643655 29.123054385643655 29.123054385643655 29.123054385643655 29.123054385643655 29.15381798205457 29.123054385643655 29.123054385643655 29.15381798205457 29.123054385643655 29.123054385643655 29.123054385643655 29.123054385643655 29.123054385643655 29.123054385643655 29.123054385643655 29.123054385643655 29.123054385643655 29.123054385643655 29.123054385643655 29.123054385643655 29.123054385643655 29.123054385643655 29.123054385643655 29.123054385643655 29.123054385643655 29.123054385643655 29.123054385643655 29.123054385643655 29.123054385643655 29.123054385643655 29.123054385643655 29.123054385643655 29.123054385643655 29.123054385643655 29.123054385643655 29.123054385643655 29.123054385643655 29.123054385643655 29.123054385643655 29.123054385643655 29.123054385643655 29.123054385643655 29.123054385643655 29.123054385643655 29.123054385643655 29.123054385643655 29.123054385643655 29.123054385643655 29.123054385643655 29.123054385643655 29.123054385643655 29.123054385643655 29.123054385643655 29.123054385643655 29.123054385643655 29.123054385643655 29.123054385643655 29.123054385643655 29.123054385643655 29.123054385643655 29.123054385643655 29.123054385643655 29.123054385643655 29.123054385643655 29.123054385643655 29.123054385643655 29.15381798205457 29.123054385643655 29.123054385643655 29.123054385643655 29.123054385643655 29.123054385643655 29.123054385643655 29.123054385643655 29.123054385643655 29.123054385643655 29.123054385643655 29.123054385643655 29.123054385643655 29.123054385643655 29.123054385643655 29.123054385643655 29.123054385643655 29.123054385643655 29.123054385643655 29.123054385643655 29.123054385643655 29.123054385643655 29.123054385643655 29.123054385643655 29.123054385643655 29.123054385643655 29.123054385643655 29.123054385643655 29.123054385643655 29.123054385643655 29.123054385643655 29.123054385643655 29.123054385643655 29.123054385643655 29.123054385643655 29.123054385643655 29.09229078923274 29.123054385643655 29.123054385643655 29.09229078923274 29.123054385643655 29.09229078923274 29.09229078923274 29.09229078923274 29.09229078923274 29.09229078923274 29.09229078923274 29.09229078923274 29.09229078923274 29.09229078923274 29.09229078923274 29.09229078923274 29.09229078923274 29.09229078923274 29.09229078923274 29.09229078923274 29.09229078923274 29.09229078923274 29.09229078923274 29.09229078923274 29.09229078923274 29.09229078923274 29.09229078923274 29.09229078923274 29.09229078923274 29.09229078923274 29.09229078923274 29.09229078923274 29.09229078923274 29.09229078923274 29.09229078923274 29.09229078923274 29.09229078923274 29.09229078923274 29.09229078923274 29.09229078923274 29.09229078923274 29.09229078923274 29.09229078923274 29.09229078923274 29.09229078923274 29.09229078923274 29.09229078923274 29.09229078923274 29.09229078923274 29.09229078923274 29.09229078923274 29.09229078923274 29.09229078923274 29.09229078923274 29.09229078923274 29.09229078923274 29.09229078923274 29.09229078923274 29.09229078923274 29.09229078923274 29.09229078923274 29.09229078923274 29.09229078923274 29.061527192821828 29.09229078923274 29.09229078923274 29.09229078923274 29.09229078923274 29.09229078923274 29.09229078923274 29.09229078923274 29.061527192821828 29.09229078923274 29.09229078923274 29.09229078923274 29.09229078923274 29.09229078923274 29.09229078923274 29.09229078923274 29.09229078923274 29.09229078923274 29.09229078923274 29.09229078923274 29.09229078923274 29.09229078923274 29.09229078923274 29.09229078923274 29.09229078923274 29.09229078923274 29.09229078923274 29.09229078923274 29.09229078923274 29.09229078923274 29.09229078923274 29.09229078923274 29.061527192821828 29.09229078923274 29.09229078923274 29.09229078923274 29.09229078923274 29.09229078923274 29.09229078923274 29.09229078923274 29.09229078923274 29.09229078923274 29.09229078923274 29.09229078923274 29.09229078923274 29.09229078923274 29.09229078923274 29.09229078923274 29.09229078923274 29.09229078923274 29.09229078923274 29.09229078923274 29.09229078923274 29.09229078923274 29.09229078923274 29.09229078923274 29.09229078923274 29.09229078923274 29.09229078923274 29.061527192821828 29.09229078923274 29.09229078923274 29.09229078923274 29.09229078923274 29.09229078923274 29.09229078923274 29.09229078923274 29.09229078923274 29.09229078923274 29.09229078923274 29.09229078923274 29.09229078923274 29.09229078923274 29.09229078923274 29.09229078923274 29.09229078923274 29.061527192821828 29.09229078923274 29.09229078923274 29.09229078923274 29.09229078923274 29.09229078923274 29.09229078923274 29.09229078923274 29.09229078923274 29.123054385643655 29.09229078923274 29.123054385643655 29.123054385643655 29.123054385643655 29.123054385643655 29.123054385643655 29.123054385643655 29.123054385643655 29.123054385643655 29.15381798205457 29.123054385643655 29.15381798205457 29.15381798205457 29.15381798205457 29.15381798205457 29.15381798205457 29.15381798205457 29.15381798205457 29.15381798205457 29.15381798205457 29.184581578465483 29.184581578465483 29.184581578465483 29.184581578465483 29.184581578465483 29.215345174876397 29.215345174876397 29.24610877128731 29.24610877128731 29.30763596410914 29.338399560520052 29.430690349752794 29.522981138985532 29.58450833180736 29.707562717451015 29.799853506683757 29.8921442959165 30.015198681560154 30.169016663614723 30.322834645669293 30.38436183849112 30.445889031312948 30.507416224134772 30.5689434169566 30.630470609778428 30.691997802600255 30.753524995422083 30.907342977476652 31.030397363120308 31.12268815235305 31.307269730818533 31.430324116462188 31.584142098516754 31.830250869804065 32.04559604468046 32.3532320087896 32.69163156930965 32.93774034059696 33.2453763047061 33.460721479582496 33.79912104010255 34.137520600622594 34.41439296832082 34.8143197216627 35.21424647500458 35.64493682475737 36.044863578099246 36.41402673503021 36.81395348837209 37.09082585607032 37.398461820179456 37.9522065555759 38.38289690532869 38.65976927302692 39.028932429957884 39.275041201245195 39.582677165354326 39.921076725874386 40.16718549716169 40.50558505768174 40.843984618201794 41.090093389489105 41.42849295000916 41.73612891411829 42.07452847463834 42.28987364951474 42.53598242080205 42.905145577733016 43.15125434902033 43.67423548800586 44.04339864493682 44.35103460904596 44.72019776597693 44.96630653726424 45.21241530855154 45.70463285112616 45.98150521882439 46.38143197216627 46.750595129097235 47.02746749679545 47.42739425013734 47.85808459989013 48.13495696758835 48.411829335286576 48.62717451016297 48.96557407068302 49.30397363120308 49.55008240249039 49.980772752243176 50.31917231276323 50.596044680461446 50.81138985533785 50.995971433803334 51.242080205090645 51.58047976561069 51.79582494048709 52.0419337117744 52.31880607947262 52.44186046511628 52.811023622047244 52.99560520051273 53.303241164621866 53.580113532320084 53.85698590001831 54.13385826771653 54.47225782823658 54.7183665995239 55.087529756454856 55.36440212415309 55.73356528108405 56.13349203442593 56.441127998535066 57.056399926753336 57.517853872917044 57.88701702984801 58.22541659036806 58.59457974729903 59.17908807910639 59.67130562168101 60.07123237502289 60.53268632118659 60.994140267350296 61.20948544222669 61.82475737044497 62.16315693096502 62.59384728071782 63.024537630470604 63.424464383812484 63.79362754074345 64.07049990844168 64.50119025819447 64.87035341512544 65.17798937923456 65.57791613257645 65.97784288591834 66.43929683208202 66.68540560336935 66.96227797106756 67.51602270646401 67.82365867057315 68.10053103827138 68.62351217725691 69.02343893059879 69.33107489470792 69.76176524446072 70.03863761215894 70.46932796191174 70.90001831166452 71.20765427577366 71.60758102911555 72.00750778245742 72.34590734297747 72.71507049990844 72.96117927119576 73.36110602453763 73.7610327778795 74.06866874198865 74.43783189891961 74.8377586522615 75.23768540560337 75.60684856253434 75.85295733382165 76.09906610510895 76.46822926203993 76.74510162973814 77.17579197949092 77.48342794360008 77.69877311847647 77.97564548617468 78.12946346822926 78.4370994323384 78.59091741439296 78.71397180003662 78.8677897820912 79.05237136055666 79.17542574620032 79.29848013184399 79.42153451748763 79.54458890313128 79.63687969236403 79.72917048159677 79.85222486724042 80.006042849295 80.15986083134956 80.28291521699322 80.40596960263687 80.59055118110236 80.71360556674601 80.83665995238968 80.99047793444424 81.17505951290971 81.35964109137521 81.48269547701886 81.54422266984068 81.6057498626625 81.63651345907343 81.66727705548433 81.66727705548433 81.63651345907343 81.63651345907343 81.63651345907343 81.63651345907343 81.63651345907343 81.63651345907343 81.63651345907343 81.63651345907343 81.66727705548433 81.63651345907343 81.63651345907343 81.63651345907343 81.66727705548433 81.63651345907343 81.63651345907343 81.63651345907343 81.63651345907343 81.63651345907343 81.63651345907343 81.63651345907343 81.63651345907343 81.63651345907343 81.63651345907343 81.63651345907343 81.63651345907343 81.63651345907343 81.6057498626625 81.6057498626625 81.6057498626625 81.5749862662516 81.5749862662516 81.5749862662516 81.5749862662516 81.6057498626625 81.6057498626625 81.5749862662516 81.6057498626625 81.5749862662516 81.5749862662516 81.5749862662516 81.5749862662516 81.5749862662516 81.54422266984068 81.5749862662516 81.54422266984068 81.54422266984068 81.54422266984068 81.54422266984068 81.54422266984068 81.51345907342977 81.51345907342977 81.51345907342977 81.51345907342977 81.51345907342977 81.51345907342977 81.51345907342977 81.51345907342977 81.51345907342977 81.45193188060794 81.45193188060794 81.42116828419702 81.39040468778612 81.35964109137521 81.29811389855337 81.23658670573155 81.20582310932063 81.1442959164988 81.1135323200879 81.05200512726607 81.02124153085515 81.02124153085515 80.99047793444424 80.95971433803334 80.95971433803334 80.95971433803334 80.95971433803334 80.95971433803334 80.95971433803334 80.95971433803334 80.95971433803334 80.95971433803334 80.8981871452115 80.86742354880059 80.86742354880059 80.83665995238968 80.83665995238968 80.83665995238968 80.77513275956784 80.71360556674601 80.68284197033509 80.59055118110236 80.55978758469143 80.49826039186962 80.4674967954587 80.4367331990478 80.4367331990478 80.4367331990478 80.40596960263687 80.37520600622597 80.37520600622597 80.34444240981506 80.34444240981506 80.31367881340414 80.31367881340414 80.31367881340414 80.28291521699322 80.2213880241714 80.2213880241714 80.19062442776048 80.15986083134956 80.15986083134956 80.12909723493865 80.12909723493865 80.09833363852775 80.09833363852775 80.09833363852775 80.06757004211681 80.06757004211681 80.006042849295 79.97527925288409 79.94451565647316 79.91375206006225 79.91375206006225 79.85222486724042 79.82146127082952 79.7906976744186 79.7906976744186 79.75993407800769 79.75993407800769 79.75993407800769 79.72917048159677 79.72917048159677 79.72917048159677 79.72917048159677 79.69840688518586 79.69840688518586 79.69840688518586 79.66764328877494 79.66764328877494 79.63687969236403 79.60611609595313 79.5753524995422 79.54458890313128 79.54458890313128 79.51382530672038 79.51382530672038 79.51382530672038 79.51382530672038 79.48306171030947 79.48306171030947 79.48306171030947 79.48306171030947 79.48306171030947 79.48306171030947 79.51382530672038 79.48306171030947 79.48306171030947 79.51382530672038 79.51382530672038 79.48306171030947 79.51382530672038 79.51382530672038 79.51382530672038 79.51382530672038 79.48306171030947 79.51382530672038 79.51382530672038 79.51382530672038 79.51382530672038 79.51382530672038 79.51382530672038 79.51382530672038 79.51382530672038 79.51382530672038 79.51382530672038 79.51382530672038 79.51382530672038 79.51382530672038 79.51382530672038 79.48306171030947 79.45229811389855 79.45229811389855 79.39077092107672 79.36000732466582 79.3292437282549 79.29848013184399 79.29848013184399 79.3292437282549 79.29848013184399 79.29848013184399 79.3292437282549 79.3292437282549 79.3292437282549 79.3292437282549 79.3292437282549 79.3292437282549 79.3292437282549 79.3292437282549 79.3292437282549 79.3292437282549 79.3292437282549 79.3292437282549 79.3292437282549 79.3292437282549 79.29848013184399 79.29848013184399 79.29848013184399 79.29848013184399 79.29848013184399 79.29848013184399 79.26771653543307 79.23695293902216 79.17542574620032 79.14466214978941 79.0831349569676 79.05237136055666 79.05237136055666 79.02160776414576 79.02160776414576 79.02160776414576 79.02160776414576 79.02160776414576 79.02160776414576 79.02160776414576 79.02160776414576 79.02160776414576 79.02160776414576 78.99084416773485 78.99084416773485 78.99084416773485 78.96008057132393 78.96008057132393 78.99084416773485 78.99084416773485 78.96008057132393 78.92931697491301 78.92931697491301 78.92931697491301 78.92931697491301 78.92931697491301 78.92931697491301 78.92931697491301 78.92931697491301 78.96008057132393 78.92931697491301 78.92931697491301 78.92931697491301 78.92931697491301 78.92931697491301 78.92931697491301 78.92931697491301 78.92931697491301 78.8985533785021 78.8677897820912 78.8677897820912 78.83702618568027 78.83702618568027 78.80626258926935 78.80626258926935 78.77549899285845 78.80626258926935 78.77549899285845 78.77549899285845 78.77549899285845 78.77549899285845 78.74473539644754 78.74473539644754 78.74473539644754 78.74473539644754 78.71397180003662 78.71397180003662 78.71397180003662 78.71397180003662 78.71397180003662 78.68320820362571 78.65244460721479 78.65244460721479 78.65244460721479 78.65244460721479 78.65244460721479 78.65244460721479 78.65244460721479 78.65244460721479 78.65244460721479 78.65244460721479 78.62168101080388 78.56015381798206 78.49862662516023 78.40633583592748 78.28328145028382 78.22175425746201 78.06793627540742 78.0064090825856 77.85259110053104 77.69877311847647 77.5449551364219 77.36037355795642 77.11426478666911 76.8989196117927 76.71433803332724 76.52975645486174 76.28364768357443 76.03753891228712 75.85295733382165 75.45303058047976 75.23768540560337 74.93004944149423 74.71470426661784 74.49935909174144 74.16095953122138 73.63797839223585 73.36110602453763 72.96117927119576 72.65354330708661 72.19208936092289 71.76139901117011 71.45376304706097 70.99230910089727 70.50009155832265 70.19245559421351 69.73100164804981 69.42336568394066 68.93114814136604 68.68503937007873 68.28511261673685 68.03900384544954 67.60831349569676 67.33144112799853 66.93151437465664 66.50082402490386 66.1624244643838 65.9163156930965 65.63944332539828 65.17798937923456 64.77806262589269 64.50119025819447 64.1320271012635 63.88591832997619 63.48599157663431 63.11682841970335 62.870719648416035 62.47079289507416 62.07086614173228 61.79399377403406 61.36330342428126 61.086431056583045 60.686504303241165 60.25581395348837 59.978941585790146 59.60977842885918 59.24061527192821 58.87145211499725 58.50228895806629 58.22541659036806 57.88701702984801 57.6409082585607 57.39479948727339 56.87181834828786 56.59494598058963 56.195019227247755 55.82585607031679 55.54898370261857 55.149056949276684 54.77989379234572 54.47225782823658 54.0415674784838 53.73393151437466 53.33400476103277 52.74949642922542 52.47262406152719 52.0419337117744 51.73429774766526 51.39589818714521 50.96520783739241 50.688335469694195 50.19611792711957 49.91924555942135 49.70390038454495 49.27321003479216 48.96557407068302 48.719465299395715 48.473356528108404 48.22724775682109 47.85808459989013 47.519685039370074 47.24281267167186 46.81212232191906 46.442959164988096 46.16608679728987 45.82768723676982 45.58157846548251 45.181651712140635 44.781724958798755 44.35103460904596 43.981871452114994 43.581944698773114 43.24354513825307 42.966672770554844 42.659036806445705 42.13605566746017 41.797656106940124 41.58231093206372 41.27467496795458 40.96703900384545 40.843984618201794 40.47482146127083 40.32100347921626 40.10565830433986 39.85954953305256 39.70573155099798 39.5211499725325 39.30580479765611 39.121223219190625 38.90587804431423 38.721296465848745 38.475187694561434 38.19831532686321 37.98297015198681 37.58304339864493 37.36769822376854 37.09082585607032 36.81395348837209 36.598608313495696 36.26020875297564 36.01409998168833 35.82951840322285 35.61417322834646 35.429591649880976 35.21424647500458 35.09119208936092 34.96813770371727 34.84508331807361 34.72202893242996 34.5989745467863 34.475920161142646 34.35286577549899 34.229811389855335 34.10675700421168 34.04522981138985 33.922175425746204 33.76835744369163 33.7068302508698 33.58377586522615 33.42995788317158 33.30690349752793 33.2453763047061 33.15308551547336 33.0300311298297 32.968503937007874 32.906976744186046 32.814685954953305 32.75315876213148 32.69163156930965 32.63010437648782 32.568577183665994 32.507049990844166 32.44552279802234 32.38399560520051 32.32246841237868 32.260941219556855 32.19941402673503 32.107123237502286 32.04559604468046 31.891778062625892 31.737960080571323 31.70719648416041 31.676432887749495 31.64566929133858 31.614905694927668 31.584142098516754 31.522614905694926 31.461087712873102 31.399560520051274 31.338033327229446 31.245742537996705 31.21497894158579 31.153451748763963 31.12268815235305 31.06116095953122 30.999633766709394 30.96887017029848 30.907342977476652 30.87657938106574 30.81505218824391 30.72276139901117 30.66123420618934 30.599707013367514 30.507416224134772 30.38436183849112 30.322834645669293 30.322834645669293 30.322834645669293 30.29207104925838 30.261307452847465 30.261307452847465 30.23054385643655 30.23054385643655 30.199780260025637 30.199780260025637 30.169016663614723 30.169016663614723 30.13825306720381 30.107489470792896 30.107489470792896 30.107489470792896 30.107489470792896 30.07672587438198 30.07672587438198 30.07672587438198 30.045962277971068 30.045962277971068 30.015198681560154 29.98443508514924 29.98443508514924 29.953671488738326 29.922907892327412 29.922907892327412 29.8921442959165 29.861380699505585 29.83061710309467 29.83061710309467 29.799853506683757 29.769089910272843 29.73832631386193 29.707562717451015 29.6767991210401 29.6767991210401 29.646035524629188 29.646035524629188 29.646035524629188 29.646035524629188 29.646035524629188 29.646035524629188 29.615271928218274 29.615271928218274 29.646035524629188 29.646035524629188 29.615271928218274 29.615271928218274 29.615271928218274 29.615271928218274 29.615271928218274 29.615271928218274 29.615271928218274 29.615271928218274 29.615271928218274 29.58450833180736 29.615271928218274 29.58450833180736 29.58450833180736 29.58450833180736 29.553744735396446 29.553744735396446 29.553744735396446 29.553744735396446 29.522981138985532 29.522981138985532 29.522981138985532 29.522981138985532 29.522981138985532 29.522981138985532 29.522981138985532 29.522981138985532 29.49221754257462 29.49221754257462 29.49221754257462 29.49221754257462 29.49221754257462 29.49221754257462 29.49221754257462 29.49221754257462 29.49221754257462 29.49221754257462 29.461453946163708 29.461453946163708 29.461453946163708 29.461453946163708 29.461453946163708 29.461453946163708 29.461453946163708 29.461453946163708 29.461453946163708 29.461453946163708 29.461453946163708 29.461453946163708 29.461453946163708 29.461453946163708 29.430690349752794 29.430690349752794 29.430690349752794 29.430690349752794 29.430690349752794 29.430690349752794 29.430690349752794 29.430690349752794 29.430690349752794 29.430690349752794 29.430690349752794 29.430690349752794 29.430690349752794 29.430690349752794 29.430690349752794 29.430690349752794 29.430690349752794 29.39992675334188 29.430690349752794 29.430690349752794 29.430690349752794 29.430690349752794 29.430690349752794 29.430690349752794 29.430690349752794 29.430690349752794 29.430690349752794 29.430690349752794 29.39992675334188 29.39992675334188 29.39992675334188 29.39992675334188 29.39992675334188 29.39992675334188 29.39992675334188 29.39992675334188 29.39992675334188 29.430690349752794 29.39992675334188 29.39992675334188 29.39992675334188 29.39992675334188 29.39992675334188 29.39992675334188 29.39992675334188 29.39992675334188 29.39992675334188 29.39992675334188 29.39992675334188 29.39992675334188 29.39992675334188 29.39992675334188 29.39992675334188 29.39992675334188 29.39992675334188 29.39992675334188 29.39992675334188 29.39992675334188 29.39992675334188 29.39992675334188 29.39992675334188 29.430690349752794 29.39992675334188 29.39992675334188 29.39992675334188 29.39992675334188 29.39992675334188 29.39992675334188 29.39992675334188 29.39992675334188 29.39992675334188 29.39992675334188 29.39992675334188 29.39992675334188 29.39992675334188 29.39992675334188 29.39992675334188 29.39992675334188 29.39992675334188 29.39992675334188 29.39992675334188 29.39992675334188 29.39992675334188 29.39992675334188 29.39992675334188 29.39992675334188 29.39992675334188 29.39992675334188 29.39992675334188 29.39992675334188 29.39992675334188 29.39992675334188 29.39992675334188 29.39992675334188 29.39992675334188 29.39992675334188 29.39992675334188 29.39992675334188 29.39992675334188 29.39992675334188 29.39992675334188 29.39992675334188 29.39992675334188 29.39992675334188 29.39992675334188 29.39992675334188 29.39992675334188 29.39992675334188 29.39992675334188 29.39992675334188 29.39992675334188 29.39992675334188 29.39992675334188 29.39992675334188 29.39992675334188 29.39992675334188 29.39992675334188 29.39992675334188 29.39992675334188 29.39992675334188 29.39992675334188 29.39992675334188 29.39992675334188 29.369163156930966 29.369163156930966 29.39992675334188 29.39992675334188 29.39992675334188 29.369163156930966 29.369163156930966 29.369163156930966 29.369163156930966 29.369163156930966 29.369163156930966 29.369163156930966 29.369163156930966 29.369163156930966 29.369163156930966 29.369163156930966 29.369163156930966 29.369163156930966 29.369163156930966 29.369163156930966 29.369163156930966 29.369163156930966 29.369163156930966 29.369163156930966 29.369163156930966 29.369163156930966 29.369163156930966 29.369163156930966 29.369163156930966 29.369163156930966 29.369163156930966 29.369163156930966 29.369163156930966 29.369163156930966 29.369163156930966 29.338399560520052 29.369163156930966 29.338399560520052 29.369163156930966 29.338399560520052 29.369163156930966 29.369163156930966 29.369163156930966 29.369163156930966 29.338399560520052 29.338399560520052 29.338399560520052 29.369163156930966 29.369163156930966 29.338399560520052 29.338399560520052 29.369163156930966 29.338399560520052 29.338399560520052 29.338399560520052 29.338399560520052 29.338399560520052 29.338399560520052 29.338399560520052 29.338399560520052 29.338399560520052 29.338399560520052 29.338399560520052 29.338399560520052 29.338399560520052 29.338399560520052 29.338399560520052 29.338399560520052 29.338399560520052 29.338399560520052 29.338399560520052 29.338399560520052 29.338399560520052 29.338399560520052 29.338399560520052 29.338399560520052 29.338399560520052 29.338399560520052 29.338399560520052 29.338399560520052 29.338399560520052 29.30763596410914 29.338399560520052 29.338399560520052 29.30763596410914 29.30763596410914 29.30763596410914 29.30763596410914 29.30763596410914 29.338399560520052 29.30763596410914 29.30763596410914 29.30763596410914 29.30763596410914 29.30763596410914 29.30763596410914 29.30763596410914 29.30763596410914 29.30763596410914 29.30763596410914 29.30763596410914 29.30763596410914 29.30763596410914 29.30763596410914 29.30763596410914 29.30763596410914 29.30763596410914 29.30763596410914 29.30763596410914 29.30763596410914 29.30763596410914 29.30763596410914 29.30763596410914 29.30763596410914 29.30763596410914 29.30763596410914 29.30763596410914 29.30763596410914 29.30763596410914 29.30763596410914 29.30763596410914 29.30763596410914 29.30763596410914 29.30763596410914 29.30763596410914 29.30763596410914 29.30763596410914 29.30763596410914 29.30763596410914 29.30763596410914 29.30763596410914 29.276872367698225 29.30763596410914 29.30763596410914 29.30763596410914 29.30763596410914 29.30763596410914 29.30763596410914 29.30763596410914 29.30763596410914 29.276872367698225 29.30763596410914 29.30763596410914 29.30763596410914 29.30763596410914 29.30763596410914 29.30763596410914 29.30763596410914 29.30763596410914 29.30763596410914 29.30763596410914 29.30763596410914 29.30763596410914 29.30763596410914 29.30763596410914 29.30763596410914 29.30763596410914 29.30763596410914 29.30763596410914 29.30763596410914 29.30763596410914 29.30763596410914 29.30763596410914 29.30763596410914 29.30763596410914 29.30763596410914 29.30763596410914 29.30763596410914 29.30763596410914 29.276872367698225 29.30763596410914 29.276872367698225 29.30763596410914 29.30763596410914 29.30763596410914 29.30763596410914 29.30763596410914 29.30763596410914 29.30763596410914 29.30763596410914 29.30763596410914 29.30763596410914 29.30763596410914 29.30763596410914 29.30763596410914 29.30763596410914 29.30763596410914 29.30763596410914 29.30763596410914 29.30763596410914 29.30763596410914 29.30763596410914 29.276872367698225 29.276872367698225 29.30763596410914 29.30763596410914 29.30763596410914 29.30763596410914 29.30763596410914 29.30763596410914 29.30763596410914 29.30763596410914 29.30763596410914 29.30763596410914 29.30763596410914 29.30763596410914 29.30763596410914 29.30763596410914 29.30763596410914 29.30763596410914 29.30763596410914 29.30763596410914 29.30763596410914 29.30763596410914 29.30763596410914 29.276872367698225 29.30763596410914 29.30763596410914 29.30763596410914 29.30763596410914 29.30763596410914 29.30763596410914 29.30763596410914 29.30763596410914 29.30763596410914 29.276872367698225 29.30763596410914 29.276872367698225 29.30763596410914 29.30763596410914 29.30763596410914 29.30763596410914 29.30763596410914 29.30763596410914 29.30763596410914 29.30763596410914 29.276872367698225 29.30763596410914 29.30763596410914 29.30763596410914 29.30763596410914 29.30763596410914 29.30763596410914 29.276872367698225 29.30763596410914 29.30763596410914 29.30763596410914 29.30763596410914 29.30763596410914 29.276872367698225 29.30763596410914 29.276872367698225 29.276872367698225 29.30763596410914 29.30763596410914 29.30763596410914 29.30763596410914 29.30763596410914 29.276872367698225 29.30763596410914 29.30763596410914 29.30763596410914 29.30763596410914 29.276872367698225 29.276872367698225 29.30763596410914 29.30763596410914 29.30763596410914 29.30763596410914 29.30763596410914 29.276872367698225 29.30763596410914 29.30763596410914 29.30763596410914 29.30763596410914 29.30763596410914 29.30763596410914 29.30763596410914 29.30763596410914 29.30763596410914 29.30763596410914 29.30763596410914 29.30763596410914 29.30763596410914 29.30763596410914 29.276872367698225 29.30763596410914 29.30763596410914 29.30763596410914 29.30763596410914 29.30763596410914 29.276872367698225 29.30763596410914 29.30763596410914 29.30763596410914 29.30763596410914 29.30763596410914 29.30763596410914 29.30763596410914 29.30763596410914 29.30763596410914 29.30763596410914 29.30763596410914 29.30763596410914 29.30763596410914 29.30763596410914 29.30763596410914 29.30763596410914 29.30763596410914 29.30763596410914 29.30763596410914 29.30763596410914 29.30763596410914 29.30763596410914 29.30763596410914 29.276872367698225 29.276872367698225 29.276872367698225 29.30763596410914 29.276872367698225 29.276872367698225 29.276872367698225 29.276872367698225 29.276872367698225 29.276872367698225 29.276872367698225 29.276872367698225 29.276872367698225 29.276872367698225 29.276872367698225 29.276872367698225 29.276872367698225 29.276872367698225 29.276872367698225 29.276872367698225 29.276872367698225 29.276872367698225 29.276872367698225 29.276872367698225 29.276872367698225 29.276872367698225 29.276872367698225 29.276872367698225 29.276872367698225 29.276872367698225 29.276872367698225 29.276872367698225 29.276872367698225 29.276872367698225 29.276872367698225 29.276872367698225 29.276872367698225 29.276872367698225 29.276872367698225 29.276872367698225 29.276872367698225 29.276872367698225 29.276872367698225 29.276872367698225 29.276872367698225 29.276872367698225 29.276872367698225 29.276872367698225 29.276872367698225 29.276872367698225 29.276872367698225 29.276872367698225 29.276872367698225 29.276872367698225 29.276872367698225 29.276872367698225 29.276872367698225 29.276872367698225 29.276872367698225 29.276872367698225 29.276872367698225 29.276872367698225 29.276872367698225 29.276872367698225 29.276872367698225 29.276872367698225 29.276872367698225 29.276872367698225 29.276872367698225 29.276872367698225 29.276872367698225 29.276872367698225 29.276872367698225 29.276872367698225 29.276872367698225 29.276872367698225 29.276872367698225 29.276872367698225 29.276872367698225 29.276872367698225 29.276872367698225 29.276872367698225 29.276872367698225 29.276872367698225 29.276872367698225 29.276872367698225 29.276872367698225 29.276872367698225 29.276872367698225 29.276872367698225 29.276872367698225 29.276872367698225 29.276872367698225 29.276872367698225 29.276872367698225 29.276872367698225 29.276872367698225 29.276872367698225 29.276872367698225 29.276872367698225 29.276872367698225 29.276872367698225 29.276872367698225 29.276872367698225 29.276872367698225 29.276872367698225 29.276872367698225 29.276872367698225 29.276872367698225 29.276872367698225 29.276872367698225 29.276872367698225 29.276872367698225 29.276872367698225 29.276872367698225 29.276872367698225 29.276872367698225 29.276872367698225 29.276872367698225 29.276872367698225 29.276872367698225 29.276872367698225 29.276872367698225 29.276872367698225 29.276872367698225 29.276872367698225 29.276872367698225 29.276872367698225 29.276872367698225 29.276872367698225 29.276872367698225 29.276872367698225 29.276872367698225 29.276872367698225 29.276872367698225 29.276872367698225 29.276872367698225 29.276872367698225 29.276872367698225 29.276872367698225 29.276872367698225 29.276872367698225 29.276872367698225 29.276872367698225 29.276872367698225 29.276872367698225 29.276872367698225 29.276872367698225 29.276872367698225 29.276872367698225 29.276872367698225 29.276872367698225 29.276872367698225 29.276872367698225 29.276872367698225 29.276872367698225 29.276872367698225 29.276872367698225 29.276872367698225 29.276872367698225 29.276872367698225 29.276872367698225 29.276872367698225 29.276872367698225 29.276872367698225 29.276872367698225 29.276872367698225 29.276872367698225 29.276872367698225 29.276872367698225 29.276872367698225 29.276872367698225 29.276872367698225 29.276872367698225 29.276872367698225 29.276872367698225 29.276872367698225 29.276872367698225 29.276872367698225 29.276872367698225 29.276872367698225 29.276872367698225 29.276872367698225 29.276872367698225 29.276872367698225 29.276872367698225 29.276872367698225 29.276872367698225 29.276872367698225 29.276872367698225 29.276872367698225 29.276872367698225 29.276872367698225 29.276872367698225 29.276872367698225 29.276872367698225 29.276872367698225 29.276872367698225 29.276872367698225 29.276872367698225 29.276872367698225 29.276872367698225 29.276872367698225 29.276872367698225 29.276872367698225 29.276872367698225 29.276872367698225 29.276872367698225 29.276872367698225 29.276872367698225 29.276872367698225 29.276872367698225 29.276872367698225 29.276872367698225 29.276872367698225 29.276872367698225 29.276872367698225 29.276872367698225 29.276872367698225 29.276872367698225 29.30763596410914 29.30763596410914 29.30763596410914 29.30763596410914 29.30763596410914 29.30763596410914 29.30763596410914 29.30763596410914 29.30763596410914 29.338399560520052 29.338399560520052 29.338399560520052 29.338399560520052 29.338399560520052 29.338399560520052 29.338399560520052 29.338399560520052 29.338399560520052 29.338399560520052 29.369163156930966 29.369163156930966 29.369163156930966 29.369163156930966 29.369163156930966 29.369163156930966 29.369163156930966 29.369163156930966 29.369163156930966 29.369163156930966 29.369163156930966 29.369163156930966 29.39992675334188 29.369163156930966 29.369163156930966 29.369163156930966 29.39992675334188 29.39992675334188 29.430690349752794 29.430690349752794 29.39992675334188 29.430690349752794 29.461453946163708 29.522981138985532 29.615271928218274 29.707562717451015 29.799853506683757 29.861380699505585 29.953671488738326 30.169016663614723 30.38436183849112 30.415125434902034 30.47665262772386 30.507416224134772 30.630470609778428 30.691997802600255 30.784288591832997 30.87657938106574 30.999633766709394 31.091924555942136 31.245742537996705 31.399560520051274 31.491851309284012 31.584142098516754 31.676432887749495 31.79948727339315 31.95330525544772 32.107123237502286 32.38399560520051 32.568577183665994 32.78392235854239 32.93774034059696 33.15308551547336 33.55301226881524 33.860648232924376 34.10675700421168 34.44515656473173 34.69126533601904 35.09119208936092 35.491118842702804 35.706464017579194 36.07562717451016 36.41402673503021 36.66013550631752 36.96777147042666 37.21388024171397 37.61380699505585 37.859915766343164 38.075260941219554 38.44442409815052 38.69053286943783 39.121223219190625 39.644204358176154 39.95184032228529 40.32100347921626 40.597875846914484 40.96703900384545 41.3054385643655 41.5207837392419 41.85918329976195 42.197582860282 42.505218824391136 42.812854788500275 43.15125434902033 43.42812671671855 43.828053470060425 44.074162241347736 44.381798205456874 44.75096136238784 45.02783373008606 45.58157846548251 45.950741622413474 46.31990477934444 46.62754074345358 46.904413111151804 47.33510346090459 47.64273942501373 48.011902581944696 48.35030214246475 48.719465299395715 48.84251968503936 49.30397363120308 49.51931880607947 49.85771836659953 50.16535433070866 50.442226698406884 50.71909906610511 51.02673503021424 51.242080205090645 51.61124336202161 51.88811572971983 52.22651529023988 52.68796923640359 52.9340780076909 53.18018677897821 53.54934993590917 53.826222303607395 54.16462186412745 54.5030214246475 54.81065738875664 55.149056949276684 55.36440212415309 55.61051089544039 55.88738326313862 56.13349203442593 56.37960080571324 56.56418238417872 56.841054751876946 57.08716352316425 57.302508698040654 57.54861746932796 57.79472624061527 57.97930781908075 58.22541659036806 58.40999816883354 58.62534334370994 58.96374290422999 59.14832448269547 59.39443325398278 59.579014832448266 59.82512360373558 59.978941585790146 60.132759567844715 60.40963193554294 60.62497711041934 60.778795092473906 60.994140267350296 61.14795824940487 61.36330342428126 61.609412195568574 61.76323017762314 61.97857535249954 62.19392052737594 62.37850210584142 62.65537447353964 62.901483244826956 63.14759201611426 63.33217359457974 63.516755173045226 63.79362754074345 64.03973631203075 64.28584508331807 64.5627174510163 64.74729902948178 64.96264420435817 65.14722578282365 65.30104376487822 65.54715253616553 65.76249771104193 65.9163156930965 66.10089727156199 66.22395165720565 66.37776963926021 66.53158762131477 66.65464200695843 66.77769639260208 66.90075077824574 66.96227797106756 67.11609595312214 67.20838674235489 67.36220472440945 67.48525911005311 67.54678630287492 67.73136788134042 67.88518586339498 68.03900384544954 68.28511261673685 68.43893059879143 68.65427577366782 68.8080937557224 69.02343893059879 69.2695477018861 69.51565647317341 69.70023805163889 69.9463468229262 70.13092840139169 70.377037172679 70.59238234755539 70.77696392602087 70.99230910089727 71.14612708295184 71.36147225782824 71.54605383629371 71.66910822193736 71.82292620399194 72.00750778245742 72.06903497527925 72.19208936092289 72.28438015015564 72.4074345357993 72.49972532503205 72.56125251785386 72.68430690349753 72.74583409631936 72.80736128914117 72.93041567478483 73.02270646401757 73.14576084966123 73.26881523530488 73.39186962094854 73.5456876030031 73.69950558505768 73.82255997070132 73.97637795275591 74.13019593481047 74.28401391686504 74.49935909174144 74.653177073796 74.8377586522615 74.96081303790514 75.0838674235488 75.26844900201428 75.45303058047976 75.57608496612343 75.729902948178 75.82219373741073 75.91448452664346 76.03753891228712 76.06830250869804 76.2221204907526 76.28364768357443 76.37593847280718 76.49899285845083 76.56052005127265 76.68357443691632 76.80662882255997 76.8989196117927 76.96044680461453 77.08350119025819 77.14502838308002 77.26808276872367 77.36037355795642 77.45266434718914 77.51419154001098 77.60648232924373 77.66800952206555 77.69877311847647 77.7910639077092 77.85259110053104 77.91411829335286 77.97564548617468 78.03717267899651 78.09869987181834 78.12946346822926 78.19099066105107 78.19099066105107 78.19099066105107 78.22175425746201 78.22175425746201 78.22175425746201 78.22175425746201 78.25251785387292 78.25251785387292 78.28328145028382 78.28328145028382 78.28328145028382 78.28328145028382 78.28328145028382 78.31404504669473 78.31404504669473 78.31404504669473 78.34480864310567 78.34480864310567 78.34480864310567 78.34480864310567 78.34480864310567 78.34480864310567 78.34480864310567 78.34480864310567 78.34480864310567 78.34480864310567 78.34480864310567 78.34480864310567 78.34480864310567 78.34480864310567 78.34480864310567 78.34480864310567 78.31404504669473 78.34480864310567 78.31404504669473 78.31404504669473 78.28328145028382 78.25251785387292 78.25251785387292 78.22175425746201 78.19099066105107 78.19099066105107 78.16022706464017 78.16022706464017 78.16022706464017 78.12946346822926 78.16022706464017 78.12946346822926 78.12946346822926 78.12946346822926 78.12946346822926 78.09869987181834 78.06793627540742 78.03717267899651 77.97564548617468 77.94488188976378 77.91411829335286 77.88335469694195 77.88335469694195 77.85259110053104 77.85259110053104 77.82182750412012 77.7910639077092 77.7603003112983 77.69877311847647 77.66800952206555 77.63724592565464 77.60648232924373 77.57571873283281 77.5449551364219 77.51419154001098 77.48342794360008 77.42190075077824 77.39113715436733 77.32960996154551 77.23731917231275 77.20655557590185 77.17579197949092 77.14502838308002 77.14502838308002 77.14502838308002 77.14502838308002 77.11426478666911 77.11426478666911 77.11426478666911 77.11426478666911 77.11426478666911 77.11426478666911 77.11426478666911 77.11426478666911 77.11426478666911 77.11426478666911 77.08350119025819 77.05273759384727 76.96044680461453 76.8989196117927 76.8681560153818 76.83739241897088 76.77586522614905 76.71433803332724 76.6528108405054 76.59128364768358 76.56052005127265 76.52975645486174 76.49899285845083 76.49899285845083 76.46822926203993 76.46822926203993 76.46822926203993 76.46822926203993 76.46822926203993 76.46822926203993 76.46822926203993 76.49899285845083 76.49899285845083 76.49899285845083 76.49899285845083 76.49899285845083 76.49899285845083 76.49899285845083 76.49899285845083 76.49899285845083 76.49899285845083 76.46822926203993 76.46822926203993 76.43746566562899 76.40670206921808 76.37593847280718 76.37593847280718 76.34517487639626 76.31441127998534 76.28364768357443 76.28364768357443 76.25288408716352 76.28364768357443 76.28364768357443 76.25288408716352 76.28364768357443 76.25288408716352 76.2221204907526 76.1913568943417 76.16059329793077 76.16059329793077 76.16059329793077 76.12982970151987 76.12982970151987 76.12982970151987 76.12982970151987 76.09906610510895 76.06830250869804 76.03753891228712 76.00677531587621 75.9760117194653 75.88372093023256 75.82219373741073 75.7606665445889 75.69913935176706 75.63761215894525 75.57608496612343 75.48379417689067 75.42226698406884 75.3299761948361 75.26844900201428 75.23768540560337 75.20692180919245 75.20692180919245 75.20692180919245 75.17615821278153 75.17615821278153 75.14539461637062 75.0838674235488 75.05310382713789 74.96081303790514 74.93004944149423 74.8685222486724 74.8377586522615 74.8377586522615 74.80699505585056 74.77623145943966 74.71470426661784 74.68394067020691 74.653177073796 74.6224134773851 74.56088628456325 74.56088628456325 74.53012268815235 74.53012268815235 74.53012268815235 74.49935909174144 74.49935909174144 74.49935909174144 74.49935909174144 74.49935909174144 74.49935909174144 74.46859549533052 74.46859549533052 74.43783189891961 74.43783189891961 74.43783189891961 74.43783189891961 74.43783189891961 74.43783189891961 74.43783189891961 74.40706830250869 74.37630470609778 74.37630470609778 74.34554110968686 74.34554110968686 74.34554110968686 74.31477751327596 74.28401391686504 74.25325032045413 74.1917231276323 74.13019593481047 74.09943233839957 74.00714154916682 73.97637795275591 73.91485075993407 73.88408716352316 73.85332356711226 73.79179637429041 73.7302691814686 73.69950558505768 73.66874198864676 73.60721479582494 73.57645119941402 73.5149240065922 73.45339681377037 73.39186962094854 73.33034242812671 73.29957883171579 73.23805163889398 73.17652444607214 73.0842336568394 72.99194286760667 72.93041567478483 72.83812488555209 72.77659769273026 72.74583409631936 72.68430690349753 72.6227797106757 72.5920161142648 72.53048892144295 72.4074345357993 72.28438015015564 72.13056216810108 72.00750778245742 71.85368980040286 71.7306354147592 71.57681743270463 71.42299945065005 71.33070866141732 71.17689067936274 71.02307269730818 70.93078190807545 70.71543673319906 70.59238234755539 70.50009155832265 70.31550997985717 70.22321919062442 70.06940120856986 69.82329243728255 69.70023805163889 69.4848928767625 69.36183849111885 69.20802050906427 69.08496612342061 68.90038454495513 68.71580296648965 68.53122138802416 68.3774034059696 68.13129463468229 67.97747665262773 67.7006042849295 67.45449551364219 67.2699139351767 67.02380516388939 66.83922358542392 66.71616919978025 66.3470060428493 66.1624244643838 65.9163156930965 65.73173411463102 65.54715253616553 65.27028016846731 64.93188060794725 64.74729902948178 64.50119025819447 64.34737227613991 64.1320271012635 63.94744552279802 63.824391137154365 63.48599157663431 63.30140999816883 63.024537630470604 62.77842885918329 62.53232008789599 62.28621131660868 61.97857535249954 61.82475737044497 61.51712140633583 61.33253982787035 60.994140267350296 60.655740706830244 60.3173411463102 59.94817798937923 59.579014832448266 59.30214246475004 58.99450650064091 58.779161325764505 58.533052554477194 58.071598608313494 57.82548983702618 57.48709027650613 57.117927119575164 56.994872733931516 56.56418238417872 56.31807361289141 55.97967405237136 55.67203808826222 55.395165720563995 55.087529756454856 54.74913019593481 54.5030214246475 54.10309467130563 53.826222303607395 53.518586339498256 53.18018677897821 52.9340780076909 52.59567844717085 52.34956967588353 52.16498809741805 51.98040651895257 51.76506134407617 51.39589818714521 51.02673503021424 50.78062625892693 50.380699505585056 50.01153634865409 49.79619117377769 49.45779161325764 49.24244643838125 48.96557407068302 48.719465299395715 48.59641091375206 48.44259293169749 48.319538546053835 48.22724775682109 48.073429774766524 47.98113898553378 47.7965574070683 47.48892144295917 47.304339864493684 47.1197582860282 46.81212232191906 46.504486357809924 46.2276139901117 46.0122688152353 45.58157846548251 45.30470609778429 45.089360922907886 44.781724958798755 44.56637978392236 44.25874381981322 43.92034425929317 43.73576268082768 43.48965390954038 43.24354513825307 43.0897271561985 42.72056399926753 42.53598242080205 42.38216443874748 42.13605566746017 41.9822376854056 41.7668925105292 41.490020142830986 41.336202160776416 41.12085698590002 40.96703900384545 40.78245742537997 40.56711225050357 40.25947628639443 39.95184032228529 39.61344076176525 39.367331990477936 39.0596960263688 38.8443508514924 38.44442409815052 38.321369712506865 38.075260941219554 37.82915216993224 37.58304339864493 37.398461820179456 37.152353048892145 36.87548068119392 36.66013550631752 36.506317524262954 36.352499542208385 36.1679179637429 35.952572788866505 35.737227613990115 35.55264603552463 35.46035524629189 35.27577366782641 35.15271928218275 35.029664896539096 34.87584691448453 34.5989745467863 34.475920161142646 34.29133858267716 34.19904779344442 34.04522981138985 33.95293902215711 33.860648232924376 33.73759384728072 33.67606665445889 33.55301226881524 33.42995788317158 33.33766709393884 33.214612708295185 33.15308551547336 33.09155832265153 32.99926753341879 32.906976744186046 32.84544955136422 32.72239516572056 32.660867972898735 32.59934078007691 32.507049990844166 32.47628639443325 32.3532320087896 32.260941219556855 32.1378868339132 31.984068851858634 31.891778062625892 31.768723676982237 31.676432887749495 31.64566929133858 31.614905694927668 31.584142098516754 31.55337850210584 31.491851309284012 31.430324116462188 31.307269730818533 31.153451748763963 31.12268815235305 30.96887017029848 30.87657938106574 30.72276139901117 30.630470609778428 30.5689434169566 30.507416224134772 30.445889031312948 30.38436183849112 30.261307452847465 30.23054385643655 30.199780260025637 30.169016663614723 30.169016663614723 30.169016663614723 30.169016663614723 30.13825306720381 30.13825306720381 30.107489470792896 30.07672587438198 30.045962277971068 30.045962277971068 30.015198681560154 30.015198681560154 30.015198681560154 30.015198681560154 29.98443508514924 29.922907892327412 29.922907892327412 29.8921442959165 29.861380699505585 29.861380699505585 29.83061710309467 29.799853506683757 29.799853506683757 29.769089910272843 29.73832631386193 29.707562717451015 29.6767991210401 29.646035524629188 29.646035524629188 29.615271928218274 29.615271928218274 29.615271928218274 29.615271928218274 29.615271928218274 29.615271928218274 29.615271928218274 29.58450833180736 29.58450833180736 29.58450833180736 29.58450833180736 29.58450833180736 29.553744735396446 29.553744735396446 29.553744735396446 29.553744735396446 29.553744735396446 29.522981138985532 29.522981138985532 29.522981138985532 29.522981138985532 29.522981138985532 29.49221754257462 29.49221754257462 29.49221754257462 29.49221754257462 29.49221754257462 29.49221754257462 29.49221754257462 29.49221754257462 29.49221754257462 29.49221754257462 29.461453946163708 29.461453946163708 29.461453946163708 29.461453946163708 29.461453946163708 29.461453946163708 29.461453946163708 29.430690349752794 29.461453946163708 29.430690349752794 29.430690349752794 29.430690349752794 29.39992675334188 29.39992675334188 29.39992675334188 29.39992675334188 29.369163156930966 29.369163156930966 29.369163156930966 29.369163156930966 29.369163156930966 29.369163156930966 29.369163156930966 29.369163156930966 29.369163156930966 29.369163156930966 29.369163156930966 29.369163156930966 29.338399560520052 29.369163156930966 29.369163156930966 29.369163156930966 29.338399560520052 29.369163156930966 29.338399560520052 29.338399560520052 29.338399560520052 29.338399560520052 29.338399560520052 29.338399560520052 29.338399560520052 29.30763596410914 29.30763596410914 29.30763596410914 29.30763596410914 29.30763596410914 29.30763596410914 29.30763596410914 29.30763596410914 29.276872367698225 29.30763596410914 29.30763596410914 29.276872367698225 29.276872367698225 29.276872367698225 29.276872367698225 29.276872367698225 29.276872367698225 29.276872367698225 29.276872367698225 29.276872367698225 29.276872367698225 29.276872367698225 29.276872367698225 29.276872367698225 29.276872367698225 29.276872367698225 29.276872367698225 29.276872367698225 29.276872367698225 29.276872367698225 29.276872367698225 29.276872367698225 29.276872367698225 29.276872367698225 29.276872367698225 29.276872367698225 29.276872367698225 29.276872367698225 29.276872367698225 29.276872367698225 29.276872367698225 29.24610877128731 29.276872367698225 29.276872367698225 29.24610877128731 29.24610877128731 29.24610877128731 29.24610877128731 29.24610877128731 29.24610877128731 29.24610877128731 29.24610877128731 29.24610877128731 29.24610877128731 29.24610877128731 29.24610877128731 29.24610877128731 29.24610877128731 29.24610877128731 29.24610877128731 29.24610877128731 29.24610877128731 29.24610877128731 29.24610877128731 29.215345174876397 29.215345174876397 29.24610877128731 29.215345174876397 29.24610877128731 29.215345174876397 29.215345174876397 29.215345174876397 29.215345174876397 29.215345174876397 29.215345174876397 29.215345174876397 29.215345174876397 29.215345174876397 29.215345174876397 29.215345174876397 29.215345174876397 29.184581578465483 29.215345174876397 29.215345174876397 29.215345174876397 29.215345174876397 29.184581578465483 29.184581578465483 29.215345174876397 29.215345174876397 29.215345174876397 29.215345174876397 29.215345174876397 29.215345174876397 29.184581578465483 29.215345174876397 29.215345174876397 29.184581578465483 29.215345174876397 29.184581578465483 29.184581578465483 29.184581578465483 29.184581578465483 29.215345174876397 29.184581578465483 29.215345174876397 29.215345174876397 29.215345174876397 29.184581578465483 29.184581578465483 29.184581578465483 29.215345174876397 29.215345174876397 29.184581578465483 29.215345174876397 29.184581578465483 29.184581578465483 29.184581578465483 29.184581578465483 29.184581578465483 29.184581578465483 29.184581578465483 29.184581578465483 29.215345174876397 29.184581578465483 29.184581578465483 29.184581578465483 29.184581578465483 29.184581578465483 29.184581578465483 29.184581578465483 29.184581578465483 29.184581578465483 29.184581578465483 29.184581578465483 29.184581578465483 29.184581578465483 29.184581578465483 29.184581578465483 29.184581578465483 29.184581578465483 29.184581578465483 29.184581578465483 29.184581578465483 29.184581578465483 29.184581578465483 29.184581578465483 29.184581578465483 29.184581578465483 29.184581578465483 29.184581578465483 29.184581578465483 29.184581578465483 29.184581578465483 29.184581578465483 29.184581578465483 29.184581578465483 29.184581578465483 29.184581578465483 29.184581578465483 29.184581578465483 29.184581578465483 29.184581578465483 29.184581578465483 29.184581578465483 29.184581578465483 29.184581578465483 29.184581578465483 29.184581578465483 29.184581578465483 29.184581578465483 29.184581578465483 29.184581578465483 29.184581578465483 29.184581578465483 29.184581578465483 29.15381798205457 29.184581578465483 29.184581578465483 29.184581578465483 29.15381798205457 29.184581578465483 29.15381798205457 29.184581578465483 29.15381798205457 29.184581578465483 29.15381798205457 29.184581578465483 29.15381798205457 29.184581578465483 29.15381798205457 29.184581578465483 29.15381798205457 29.184581578465483 29.15381798205457 29.15381798205457 29.15381798205457 29.184581578465483 29.15381798205457 29.15381798205457 29.15381798205457 29.184581578465483 29.15381798205457 29.184581578465483 29.15381798205457 29.15381798205457 29.15381798205457 29.15381798205457 29.15381798205457 29.184581578465483 29.15381798205457 29.15381798205457 29.15381798205457 29.15381798205457 29.15381798205457 29.15381798205457 29.15381798205457 29.15381798205457 29.15381798205457 29.15381798205457 29.15381798205457 29.15381798205457 29.15381798205457 29.15381798205457 29.15381798205457 29.15381798205457 29.15381798205457 29.184581578465483 29.15381798205457 29.15381798205457 29.15381798205457 29.184581578465483 29.15381798205457 29.15381798205457 29.15381798205457 29.15381798205457 29.184581578465483 29.15381798205457 29.15381798205457 29.15381798205457 29.15381798205457 29.15381798205457 29.15381798205457 29.15381798205457 29.15381798205457 29.15381798205457 29.15381798205457 29.15381798205457 29.15381798205457 29.15381798205457 29.15381798205457 29.15381798205457 29.15381798205457 29.184581578465483 29.15381798205457 29.15381798205457 29.15381798205457 29.15381798205457 29.15381798205457 29.15381798205457 29.15381798205457 29.15381798205457 29.15381798205457 29.15381798205457 29.15381798205457 29.15381798205457 29.15381798205457 29.15381798205457 29.15381798205457 29.15381798205457 29.15381798205457 29.15381798205457 29.15381798205457 29.15381798205457 29.15381798205457 29.15381798205457 29.15381798205457 29.15381798205457 29.15381798205457 29.15381798205457 29.15381798205457 29.15381798205457 29.15381798205457 29.15381798205457 29.15381798205457 29.15381798205457 29.15381798205457 29.15381798205457 29.15381798205457 29.15381798205457 29.15381798205457 29.15381798205457 29.15381798205457 29.15381798205457 29.15381798205457 29.15381798205457 29.15381798205457 29.15381798205457 29.15381798205457 29.15381798205457 29.15381798205457 29.15381798205457 29.15381798205457 29.15381798205457 29.15381798205457 29.15381798205457 29.15381798205457 29.15381798205457 29.15381798205457 29.15381798205457 29.15381798205457 29.15381798205457 29.15381798205457 29.15381798205457 29.15381798205457 29.15381798205457 29.15381798205457 29.15381798205457 29.15381798205457 29.15381798205457 29.15381798205457 29.15381798205457 29.15381798205457 29.15381798205457 29.15381798205457 29.15381798205457 29.15381798205457 29.15381798205457 29.15381798205457 29.15381798205457 29.15381798205457 29.15381798205457 29.15381798205457 29.15381798205457 29.15381798205457 29.15381798205457 29.15381798205457 29.15381798205457 29.15381798205457 29.15381798205457 29.15381798205457 29.15381798205457 29.15381798205457 29.15381798205457 29.15381798205457 29.15381798205457 29.15381798205457 29.15381798205457 29.15381798205457 29.15381798205457 29.15381798205457 29.15381798205457 29.15381798205457 29.15381798205457 29.15381798205457 29.15381798205457 29.15381798205457 29.15381798205457 29.15381798205457 29.15381798205457 29.15381798205457 29.15381798205457 29.15381798205457 29.15381798205457 29.15381798205457 29.15381798205457 29.15381798205457 29.15381798205457 29.15381798205457 29.15381798205457 29.15381798205457 29.15381798205457 29.123054385643655 29.123054385643655 29.15381798205457 29.123054385643655 29.123054385643655 29.123054385643655 29.123054385643655 29.123054385643655 29.123054385643655 29.123054385643655 29.123054385643655 29.123054385643655 29.123054385643655 29.123054385643655 29.123054385643655 29.123054385643655 29.123054385643655 29.123054385643655 29.123054385643655 29.123054385643655 29.123054385643655 29.123054385643655 29.123054385643655 29.123054385643655 29.123054385643655 29.123054385643655 29.123054385643655 29.123054385643655 29.123054385643655 29.123054385643655 29.123054385643655 29.123054385643655 29.123054385643655 29.123054385643655 29.123054385643655 29.123054385643655 29.123054385643655 29.123054385643655 29.123054385643655 29.123054385643655 29.123054385643655 29.123054385643655 29.123054385643655 29.123054385643655 29.123054385643655 29.123054385643655 29.123054385643655 29.123054385643655 29.123054385643655 29.123054385643655 29.123054385643655 29.123054385643655 29.123054385643655 29.123054385643655 29.123054385643655 29.123054385643655 29.123054385643655 29.123054385643655 29.123054385643655 29.123054385643655 29.123054385643655 29.123054385643655 29.123054385643655 29.123054385643655 29.123054385643655 29.123054385643655 29.123054385643655 29.123054385643655 29.123054385643655 29.123054385643655 29.123054385643655 29.123054385643655 29.123054385643655 29.123054385643655 29.123054385643655 29.123054385643655 29.123054385643655 29.123054385643655 29.123054385643655 29.123054385643655 29.123054385643655 29.123054385643655 29.123054385643655 29.123054385643655 29.123054385643655 29.123054385643655 29.123054385643655 29.123054385643655 29.123054385643655 29.123054385643655 29.123054385643655 29.123054385643655 29.123054385643655 29.123054385643655 29.123054385643655 29.123054385643655 29.123054385643655 29.09229078923274 29.123054385643655 29.09229078923274 29.123054385643655 29.123054385643655 29.123054385643655 29.09229078923274 29.123054385643655 29.123054385643655 29.123054385643655 29.09229078923274 29.123054385643655 29.123054385643655 29.123054385643655 29.09229078923274 29.123054385643655 29.123054385643655 29.123054385643655 29.123054385643655 29.123054385643655 29.123054385643655 29.123054385643655 29.09229078923274 29.09229078923274 29.123054385643655 29.123054385643655 29.123054385643655 29.09229078923274 29.123054385643655 29.123054385643655 29.123054385643655 29.123054385643655 29.123054385643655 29.09229078923274 29.123054385643655 29.123054385643655 29.123054385643655 29.123054385643655 29.123054385643655 29.123054385643655 29.123054385643655 29.123054385643655 29.123054385643655 29.123054385643655 29.123054385643655 29.123054385643655 29.123054385643655 29.123054385643655 29.123054385643655 29.123054385643655 29.123054385643655 29.123054385643655 29.09229078923274 29.123054385643655 29.123054385643655 29.123054385643655 29.123054385643655 29.123054385643655 29.123054385643655 29.123054385643655 29.09229078923274 29.123054385643655 29.123054385643655 29.123054385643655 29.123054385643655 29.123054385643655 29.123054385643655 29.123054385643655 29.123054385643655 29.123054385643655 29.123054385643655 29.123054385643655 29.09229078923274 29.123054385643655 29.123054385643655 29.123054385643655 29.123054385643655 29.09229078923274 29.09229078923274 29.123054385643655 29.123054385643655 29.123054385643655 29.123054385643655 29.123054385643655 29.123054385643655 29.123054385643655 29.123054385643655 29.123054385643655 29.09229078923274 29.123054385643655 29.123054385643655 29.09229078923274 29.09229078923274 29.123054385643655 29.123054385643655 29.123054385643655 29.123054385643655 29.123054385643655 29.123054385643655 29.09229078923274 29.123054385643655 29.123054385643655 29.123054385643655 29.09229078923274 29.123054385643655 29.123054385643655 29.123054385643655 29.123054385643655 29.123054385643655 29.123054385643655 29.123054385643655 29.123054385643655 29.09229078923274 29.123054385643655 29.123054385643655 29.09229078923274 29.123054385643655 29.123054385643655 29.123054385643655 29.123054385643655 29.09229078923274 29.123054385643655 29.123054385643655 29.09229078923274 29.123054385643655 29.123054385643655 29.123054385643655 29.09229078923274 29.123054385643655 29.123054385643655 29.123054385643655 29.123054385643655 29.09229078923274 29.09229078923274 29.09229078923274 29.123054385643655 29.09229078923274 29.123054385643655 29.09229078923274 29.123054385643655 29.123054385643655 29.123054385643655 29.123054385643655 29.123054385643655 29.123054385643655 29.09229078923274 29.09229078923274 29.123054385643655 29.123054385643655 29.09229078923274 29.123054385643655 29.09229078923274 29.09229078923274 29.09229078923274 29.123054385643655 29.123054385643655 29.123054385643655 29.09229078923274 29.123054385643655 29.09229078923274 29.09229078923274 29.123054385643655 29.123054385643655 29.123054385643655 29.123054385643655 29.09229078923274 29.09229078923274 29.123054385643655 29.123054385643655 29.123054385643655 29.09229078923274 29.123054385643655 29.123054385643655 29.09229078923274 29.123054385643655 29.09229078923274 29.123054385643655 29.09229078923274 29.123054385643655 29.123054385643655 29.09229078923274 29.123054385643655 29.123054385643655 29.123054385643655 29.123054385643655 29.123054385643655 29.09229078923274 29.09229078923274 29.123054385643655 29.123054385643655 29.123054385643655 29.123054385643655 29.123054385643655 29.123054385643655 29.123054385643655 29.123054385643655 29.123054385643655 29.09229078923274 29.123054385643655 29.123054385643655 29.123054385643655 29.123054385643655 29.15381798205457 29.123054385643655 29.15381798205457 29.15381798205457 29.15381798205457 29.15381798205457 29.15381798205457 29.15381798205457 29.184581578465483 29.15381798205457 29.184581578465483 29.184581578465483 29.184581578465483 29.184581578465483 29.184581578465483 29.184581578465483 29.215345174876397 29.215345174876397 29.276872367698225 29.30763596410914 29.338399560520052 29.39992675334188 29.49221754257462 29.615271928218274 29.707562717451015 29.83061710309467 29.98443508514924 30.107489470792896 30.23054385643655 30.322834645669293 30.507416224134772 30.599707013367514 30.66123420618934 30.753524995422083 30.81505218824391 30.87657938106574 31.030397363120308 31.091924555942136 31.153451748763963 31.27650613440762 31.430324116462188 31.522614905694926 31.614905694927668 31.79948727339315 31.922541659036806 32.014832448269544 32.19941402673503 32.32246841237868 32.44552279802234 32.84544955136422 33.18384911188427 33.522248672404324 33.95293902215711 34.29133858267716 34.69126533601904 35.06042849295001 35.429591649880976 36.044863578099246 36.352499542208385 36.81395348837209 37.24464383812489 37.61380699505585 37.859915766343164 38.25984251968504 38.629005676616 39.028932429957884 39.30580479765611 39.890313129463465 40.22871268998352 40.536348654092656 40.90551181102362 41.21314777513276 41.705365317707376 42.197582860282 42.566746017212964 43.12049075260941 43.581944698773114 43.88958066288225 44.19721662699139 44.535616187511444 44.99707013367515 45.61234206189343 45.91997802600257 46.38143197216627 46.84288591832997 47.1197582860282 47.45815784654825 47.7965574070683 48.35030214246475 48.81175608862846 49.119392052737595 49.580845998901296 50.01153634865409 50.380699505585056 50.71909906610511 50.995971433803334 51.39589818714521 51.79582494048709 52.07269730818531 52.411096868705364 52.78026002563632 53.118659586156376 53.33400476103277 53.610877128731005 53.980040285661964 54.31843984618202 54.59531221388024 55.026002563633035 55.27211133492034 55.67203808826222 55.91814685954953 56.195019227247755 56.62570957700055 57.02563633034242 57.27174510162973 57.6409082585607 57.917780626258924 58.25618018677898 58.59457974729903 58.84068851858633 59.2098516755173 59.579014832448266 59.85588720014648 60.19428676066654 60.47115912836477 60.932613074528476 61.14795824940487 61.39406702069218 61.73246658121223 62.16315693096502 62.37850210584142 62.65537447353964 62.870719648416035 63.11682841970335 63.30140999816883 63.578282365867054 63.85515473356528 64.1012635048526 64.25508148690716 64.50119025819447 64.68577183665994 64.93188060794725 65.17798937923456 65.33180736128914 65.54715253616553 65.76249771104193 65.9163156930965 66.22395165720565 66.40853323567111 66.56235121772569 66.74693279619117 66.93151437465664 67.17762314594395 67.48525911005311 67.7006042849295 67.94671305621681 68.13129463468229 68.3466398095587 68.53122138802416 68.77733015931148 69.08496612342061 69.2695477018861 69.4848928767625 69.73100164804981 69.88481963010437 70.19245559421351 70.34627357626809 70.53085515473356 70.71543673319906 70.86925471525362 71.11536348654093 71.42299945065005 71.60758102911555 71.82292620399194 71.97674418604652 72.13056216810108 72.37667093938839 72.53048892144295 72.83812488555209 73.02270646401757 73.20728804248306 73.42263321735945 73.63797839223585 73.7610327778795 74.00714154916682 74.16095953122138 74.34554110968686 74.56088628456325 74.71470426661784 74.89928584508331 75.14539461637062 75.29921259842519 75.39150338765793 75.51455777330159 75.66837575535615 75.85295733382165 76.03753891228712 76.2221204907526 76.40670206921808 76.49899285845083 76.68357443691632 76.80662882255997 76.99121040102546 77.20655557590185 77.32960996154551 77.45266434718914 77.57571873283281 77.60648232924373 77.7603003112983 77.82182750412012 77.88335469694195 77.97564548617468 78.0064090825856 78.12946346822926 78.28328145028382 78.34480864310567 78.40633583592748 78.49862662516023 78.62168101080388 78.71397180003662 78.77549899285845 78.92931697491301 78.99084416773485 79.1138985533785 79.14466214978941 79.23695293902216 79.29848013184399 79.3292437282549 79.36000732466582 79.36000732466582 79.36000732466582 79.36000732466582 79.36000732466582 79.36000732466582 79.39077092107672 79.45229811389855 79.45229811389855 79.48306171030947 79.51382530672038 79.54458890313128 79.60611609595313 79.63687969236403 79.69840688518586 79.69840688518586 79.69840688518586 79.72917048159677 79.75993407800769 79.72917048159677 79.72917048159677 79.72917048159677 79.72917048159677 79.72917048159677 79.72917048159677 79.72917048159677 79.72917048159677 79.72917048159677 79.72917048159677 79.72917048159677 79.72917048159677 79.72917048159677 79.72917048159677 79.72917048159677 79.72917048159677 79.72917048159677 79.72917048159677 79.72917048159677 79.72917048159677 79.72917048159677 79.72917048159677 79.72917048159677 79.72917048159677 79.69840688518586 79.69840688518586 79.69840688518586 79.69840688518586 79.69840688518586 79.69840688518586 79.69840688518586 79.69840688518586 79.69840688518586 79.69840688518586 79.69840688518586 79.69840688518586 79.69840688518586 79.69840688518586 79.66764328877494 79.63687969236403 79.60611609595313 79.5753524995422 79.54458890313128 79.48306171030947 79.42153451748763 79.36000732466582 79.29848013184399 79.29848013184399 79.26771653543307 79.26771653543307 79.26771653543307 79.26771653543307 79.26771653543307 79.26771653543307 79.26771653543307 79.26771653543307 79.26771653543307 79.26771653543307 79.26771653543307 79.26771653543307 79.23695293902216 79.14466214978941 79.0831349569676 79.02160776414576 78.99084416773485 78.99084416773485 78.96008057132393 78.96008057132393 78.96008057132393 78.96008057132393 78.96008057132393 78.96008057132393 78.96008057132393 78.96008057132393 78.92931697491301 78.92931697491301 78.92931697491301 78.8985533785021 78.8985533785021 78.8677897820912 78.8677897820912 78.8677897820912 78.8677897820912 78.8677897820912 78.8677897820912 78.8677897820912 78.83702618568027 78.8677897820912 78.83702618568027 78.83702618568027 78.80626258926935 78.80626258926935 78.77549899285845 78.77549899285845 78.77549899285845 78.77549899285845 78.74473539644754 78.74473539644754 78.74473539644754 78.71397180003662 78.71397180003662 78.68320820362571 78.65244460721479 78.65244460721479 78.62168101080388 78.59091741439296 78.59091741439296 78.56015381798206 78.56015381798206 78.52939022157113 78.49862662516023 78.46786302874932 78.4370994323384 78.4370994323384 78.37557223951657 78.37557223951657 78.34480864310567 78.31404504669473 78.28328145028382 78.25251785387292 78.22175425746201 78.16022706464017 78.12946346822926 78.09869987181834 78.06793627540742 78.06793627540742 78.06793627540742 78.03717267899651 78.03717267899651 78.0064090825856 77.97564548617468 77.97564548617468 77.94488188976378 77.94488188976378 77.91411829335286 77.91411829335286 77.88335469694195 77.88335469694195 77.88335469694195 77.85259110053104 77.85259110053104 77.85259110053104 77.85259110053104 77.85259110053104 77.85259110053104 77.85259110053104 77.82182750412012 77.82182750412012 77.82182750412012 77.82182750412012 77.7910639077092 77.7910639077092 77.7603003112983 77.7910639077092 77.7910639077092 77.7603003112983 77.7603003112983 77.7910639077092 77.7603003112983 77.7910639077092 77.7910639077092 77.7910639077092 77.7910639077092 77.7910639077092 77.7910639077092 77.7603003112983 77.7603003112983 77.7603003112983 77.7603003112983 77.7603003112983 77.7603003112983 77.7603003112983 77.7603003112983 77.7603003112983 77.7603003112983 77.7603003112983 77.7603003112983 77.72953671488739 77.72953671488739 77.72953671488739 77.69877311847647 77.66800952206555 77.63724592565464 77.57571873283281 77.5449551364219 77.51419154001098 77.51419154001098 77.51419154001098 77.51419154001098 77.51419154001098 77.51419154001098 77.51419154001098 77.51419154001098 77.51419154001098 77.51419154001098 77.51419154001098 77.51419154001098 77.51419154001098 77.51419154001098 77.51419154001098 77.51419154001098 77.51419154001098 77.51419154001098 77.51419154001098 77.51419154001098 77.45266434718914 77.39113715436733 77.32960996154551 77.29884636513458 77.29884636513458 77.29884636513458 77.26808276872367 77.23731917231275 77.23731917231275 77.23731917231275 77.23731917231275 77.20655557590185 77.23731917231275 77.23731917231275 77.23731917231275 77.23731917231275 77.20655557590185 77.17579197949092 77.17579197949092 77.14502838308002 77.14502838308002 77.11426478666911 77.11426478666911 77.08350119025819 77.08350119025819 77.08350119025819 77.08350119025819 77.08350119025819 77.05273759384727 77.05273759384727 77.05273759384727 77.05273759384727 77.08350119025819 77.05273759384727 77.05273759384727 77.05273759384727 77.05273759384727 77.05273759384727 77.05273759384727 77.05273759384727 77.05273759384727 77.05273759384727 77.08350119025819 77.08350119025819 77.08350119025819 77.08350119025819 77.08350119025819 77.05273759384727 77.05273759384727 77.05273759384727 77.05273759384727 77.05273759384727 77.05273759384727 77.05273759384727 77.02197399743636 76.99121040102546 76.96044680461453 76.92968320820361 76.8989196117927 76.83739241897088 76.83739241897088 76.80662882255997 76.77586522614905 76.71433803332724 76.68357443691632 76.6528108405054 76.59128364768358 76.52975645486174 76.49899285845083 76.43746566562899 76.40670206921808 76.40670206921808 76.37593847280718 76.37593847280718 76.31441127998534 76.28364768357443 76.2221204907526 76.16059329793077 76.09906610510895 76.03753891228712 75.91448452664346 75.88372093023256 75.79143014099981 75.69913935176706 75.60684856253434 75.48379417689067 75.39150338765793 75.20692180919245 75.05310382713789 74.93004944149423 74.8377586522615 74.71470426661784 74.53012268815235 74.37630470609778 74.22248672404322 74.00714154916682 73.79179637429041 73.60721479582494 73.39186962094854 73.20728804248306 73.02270646401757 72.80736128914117 72.68430690349753 72.46896172862114 72.25361655374473 72.09979857169017 71.82292620399194 71.63834462552646 71.33070866141732 70.99230910089727 70.77696392602087 70.53085515473356 70.25398278703534 70.00787401574803 69.70023805163889 69.33107489470792 68.93114814136604 68.56198498443507 68.28511261673685 67.85442226698407 67.48525911005311 67.20838674235489 66.86998718183483 66.65464200695843 66.28547885002746 65.94707928950741 65.7009705182201 65.2395165720564 64.83958981871451 64.62424464383813 64.34737227613991 64.1320271012635 63.76286394433254 63.33217359457974 63.055301226881525 62.716901666361466 62.47079289507416 62.009338948910454 61.91704815967771 61.64017579197949 61.20948544222669 60.87108588170665 60.62497711041934 60.28657754989928 60.07123237502289 59.579014832448266 59.332906061160955 59.117560886284565 58.7483977293536 58.40999816883354 58.13312580113532 57.70243545138253 57.4255630836843 57.179454312397 56.93334554110969 56.718000366233284 56.31807361289141 55.91814685954953 55.48745650979674 55.087529756454856 54.77989379234572 54.379967039003844 54.10309467130563 53.73393151437466 53.33400476103277 52.99560520051273 52.68796923640359 52.288042483061716 52.0419337117744 51.64200695843252 51.211316608679724 50.934444240981506 50.596044680461446 50.22688152353049 50.01153634865409 49.73466398095587 49.51931880607947 49.1501556491485 48.99633766709394 48.780992492217536 48.53488372093023 48.165720563999265 48.073429774766524 47.7965574070683 47.64273942501373 47.45815784654825 47.33510346090459 47.08899468961728 46.84288591832997 46.596777147042665 46.38143197216627 46.07379600805713 45.85845083318073 45.5508148690716 45.27394250137337 45.05859732649698 44.75096136238784 44.535616187511444 44.135689434169564 43.828053470060425 43.612708295184035 43.42812671671855 43.21278154184215 43.0897271561985 42.905145577733016 42.72056399926753 42.505218824391136 42.28987364951474 42.105292071049256 41.797656106940124 41.55154733565281 41.336202160776416 41.05932979307819 40.81322102179088 40.56711225050357 40.25947628639443 40.01336751510712 39.55191356894342 39.30580479765611 39.0596960263688 38.69053286943783 38.413660501739606 38.04449734480864 37.64457059146676 37.459989013001284 37.21388024171397 37.02929866324849 36.906244277604834 36.69089910272844 36.47555392785204 36.26020875297564 36.044863578099246 35.86028199963376 35.67570042116829 35.337300860648234 35.15271928218275 34.937374107306354 34.72202893242996 34.50668375755356 34.32210217908808 34.19904779344442 34.075993407800766 33.922175425746204 33.829884636513455 33.7068302508698 33.64530305804798 33.522248672404324 33.30690349752793 33.214612708295185 33.0300311298297 32.87621314777513 32.814685954953305 32.69163156930965 32.63010437648782 32.47628639443325 32.38399560520051 32.29170481596777 32.19941402673503 32.107123237502286 32.014832448269544 31.922541659036806 31.891778062625892 31.830250869804065 31.79948727339315 31.768723676982237 31.737960080571323 31.70719648416041 31.614905694927668 31.55337850210584 31.491851309284012 31.430324116462188 31.36879692364036 31.27650613440762 31.184215345174877 31.153451748763963 31.091924555942136 31.030397363120308 30.96887017029848 30.87657938106574 30.753524995422083 30.66123420618934 30.5689434169566 30.47665262772386 30.38436183849112 30.261307452847465 30.199780260025637 30.13825306720381 30.07672587438198 30.045962277971068 30.045962277971068 30.045962277971068 30.015198681560154 29.98443508514924 29.953671488738326 29.922907892327412 29.861380699505585 29.861380699505585 29.83061710309467 29.769089910272843 29.73832631386193 29.707562717451015 29.6767991210401 29.6767991210401 29.646035524629188 29.646035524629188 29.646035524629188 29.615271928218274 29.615271928218274 29.58450833180736 29.58450833180736 29.58450833180736 29.553744735396446 29.522981138985532 29.49221754257462 29.461453946163708 29.430690349752794 29.430690349752794 29.39992675334188 29.369163156930966 29.369163156930966 29.338399560520052 29.338399560520052 29.30763596410914 29.30763596410914 29.30763596410914 29.276872367698225 29.276872367698225 29.276872367698225 29.276872367698225 29.24610877128731 29.24610877128731 29.24610877128731 29.24610877128731 29.24610877128731 29.24610877128731 29.215345174876397 29.215345174876397 29.215345174876397 29.215345174876397 29.215345174876397 29.215345174876397 29.215345174876397 29.184581578465483 29.184581578465483 29.15381798205457 29.15381798205457 29.184581578465483 29.15381798205457 29.15381798205457 29.15381798205457 29.15381798205457 29.15381798205457 29.123054385643655 29.123054385643655 29.123054385643655 29.123054385643655 29.123054385643655 29.123054385643655 29.123054385643655 29.123054385643655 29.123054385643655 29.09229078923274 29.09229078923274 29.09229078923274 29.061527192821828 29.061527192821828 29.061527192821828 29.030763596410914 29.030763596410914 29.030763596410914 29.030763596410914 29.0 29.0 29.030763596410914 29.0 29.0 29.0 29.0 29.0 29.0 29.0 28.969236403589086 28.969236403589086 28.969236403589086 28.969236403589086 28.969236403589086 28.969236403589086 28.969236403589086 28.969236403589086 28.969236403589086 28.969236403589086 28.969236403589086 28.969236403589086 28.969236403589086 28.969236403589086 28.938472807178172 28.938472807178172 28.969236403589086 28.938472807178172 28.938472807178172 28.938472807178172 28.938472807178172 28.938472807178172 28.938472807178172 28.938472807178172 28.938472807178172 28.938472807178172 28.969236403589086 28.938472807178172 28.938472807178172 28.938472807178172 28.938472807178172 28.938472807178172 28.938472807178172 28.938472807178172 28.938472807178172 28.938472807178172 28.938472807178172 28.938472807178172 28.938472807178172 28.938472807178172 28.938472807178172 28.938472807178172 28.938472807178172 28.938472807178172 28.938472807178172 28.938472807178172 28.938472807178172 28.938472807178172 28.938472807178172 28.938472807178172 28.938472807178172 28.938472807178172 28.938472807178172 28.938472807178172 28.938472807178172 28.938472807178172 28.938472807178172 28.938472807178172 28.938472807178172 28.90770921076726 28.938472807178172 28.90770921076726 28.938472807178172 28.938472807178172 28.938472807178172 28.90770921076726 28.938472807178172 28.90770921076726 28.938472807178172 28.90770921076726 28.90770921076726 28.938472807178172 28.90770921076726 28.938472807178172 28.938472807178172 28.90770921076726 28.90770921076726 28.90770921076726 28.90770921076726 28.90770921076726 28.90770921076726 28.90770921076726 28.90770921076726 28.90770921076726 28.90770921076726 28.90770921076726 28.90770921076726 28.90770921076726 28.90770921076726 28.90770921076726 28.90770921076726 28.90770921076726 28.90770921076726 28.90770921076726 28.90770921076726 28.90770921076726 28.90770921076726 28.90770921076726 28.90770921076726 28.90770921076726 28.90770921076726 28.90770921076726 28.90770921076726 28.90770921076726 28.90770921076726 28.90770921076726 28.90770921076726 28.90770921076726 28.90770921076726 28.90770921076726 28.90770921076726 28.90770921076726 28.90770921076726 28.90770921076726 28.90770921076726 28.90770921076726 28.90770921076726 28.90770921076726 28.90770921076726 28.90770921076726 28.90770921076726 28.90770921076726 28.90770921076726 28.90770921076726 28.90770921076726 28.90770921076726 28.90770921076726 28.90770921076726 28.90770921076726 28.90770921076726 28.876945614356345 28.90770921076726 28.90770921076726 28.90770921076726 28.90770921076726 28.90770921076726 28.876945614356345 28.90770921076726 28.90770921076726 28.90770921076726 28.90770921076726 28.90770921076726 28.90770921076726 28.90770921076726 28.90770921076726 28.90770921076726 28.876945614356345 28.90770921076726 28.876945614356345 28.876945614356345 28.876945614356345 28.876945614356345 28.876945614356345 28.876945614356345 28.876945614356345 28.876945614356345 28.876945614356345 28.876945614356345 28.876945614356345 28.876945614356345 28.876945614356345 28.876945614356345 28.876945614356345 28.876945614356345 28.876945614356345 28.84618201794543 28.876945614356345 28.876945614356345 28.876945614356345 28.876945614356345 28.876945614356345 28.876945614356345 28.876945614356345 28.876945614356345 28.876945614356345 28.876945614356345 28.876945614356345 28.876945614356345 28.876945614356345 28.876945614356345 28.876945614356345 28.876945614356345 28.876945614356345 28.876945614356345 28.876945614356345 28.876945614356345 28.84618201794543 28.876945614356345 28.876945614356345 28.876945614356345 28.876945614356345 28.876945614356345 28.876945614356345 28.876945614356345 28.876945614356345 28.876945614356345 28.876945614356345 28.876945614356345 28.876945614356345 28.876945614356345 28.876945614356345 28.876945614356345 28.84618201794543 28.876945614356345 28.84618201794543 28.876945614356345 28.876945614356345 28.876945614356345 28.876945614356345 28.876945614356345 28.876945614356345 28.876945614356345 28.84618201794543 28.876945614356345 28.84618201794543 28.876945614356345 28.84618201794543 28.84618201794543 28.84618201794543 28.876945614356345 28.84618201794543 28.876945614356345 28.876945614356345 28.84618201794543 28.84618201794543 28.876945614356345 28.876945614356345 28.84618201794543 28.84618201794543 28.876945614356345 28.84618201794543 28.84618201794543 28.876945614356345 28.84618201794543 28.84618201794543 28.84618201794543 28.84618201794543 28.876945614356345 28.876945614356345 28.876945614356345 28.84618201794543 28.876945614356345 28.84618201794543 28.84618201794543 28.876945614356345 28.84618201794543 28.84618201794543 28.876945614356345 28.84618201794543 28.84618201794543 28.84618201794543 28.84618201794543 28.84618201794543 28.84618201794543 28.876945614356345 28.84618201794543 28.84618201794543 28.84618201794543 28.84618201794543 28.84618201794543 28.84618201794543 28.84618201794543 28.84618201794543 28.84618201794543 28.84618201794543 28.876945614356345 28.876945614356345 28.84618201794543 28.84618201794543 28.84618201794543 28.84618201794543 28.84618201794543 28.84618201794543 28.84618201794543 28.876945614356345 28.876945614356345 28.84618201794543 28.84618201794543 28.84618201794543 28.84618201794543 28.84618201794543 28.876945614356345 28.84618201794543 28.84618201794543 28.84618201794543 28.84618201794543 28.84618201794543 28.84618201794543 28.876945614356345 28.84618201794543 28.84618201794543 28.84618201794543 28.84618201794543 28.876945614356345 28.84618201794543 28.876945614356345 28.84618201794543 28.84618201794543 28.84618201794543 28.84618201794543 28.84618201794543 28.84618201794543 28.84618201794543 28.84618201794543 28.84618201794543 28.84618201794543 28.84618201794543 28.84618201794543 28.84618201794543 28.84618201794543 28.84618201794543 28.84618201794543 28.84618201794543 28.84618201794543 28.84618201794543 28.84618201794543 28.84618201794543 28.84618201794543 28.84618201794543 28.84618201794543 28.84618201794543 28.84618201794543 28.84618201794543 28.84618201794543 28.84618201794543 28.84618201794543 28.84618201794543 28.84618201794543 28.84618201794543 28.84618201794543 28.84618201794543 28.84618201794543 28.84618201794543 28.84618201794543 28.84618201794543 28.84618201794543 28.84618201794543 28.84618201794543 28.84618201794543 28.84618201794543 28.84618201794543 28.84618201794543 28.84618201794543 28.84618201794543 28.876945614356345 28.84618201794543 28.84618201794543 28.84618201794543 28.84618201794543 28.84618201794543 28.84618201794543 28.84618201794543 28.84618201794543 28.84618201794543 28.84618201794543 28.84618201794543 28.84618201794543 28.84618201794543 28.84618201794543 28.84618201794543 28.84618201794543 28.84618201794543 28.84618201794543 28.84618201794543 28.84618201794543 28.84618201794543 28.84618201794543 28.84618201794543 28.84618201794543 28.84618201794543 28.84618201794543 28.84618201794543 28.84618201794543 28.84618201794543 28.84618201794543 28.84618201794543 28.84618201794543 28.84618201794543 28.84618201794543 28.84618201794543 28.84618201794543 28.84618201794543 28.84618201794543 28.84618201794543 28.84618201794543 28.84618201794543 28.84618201794543 28.84618201794543 28.84618201794543 28.84618201794543 28.84618201794543 28.84618201794543 28.84618201794543 28.84618201794543 28.84618201794543 28.84618201794543 28.84618201794543 28.84618201794543 28.84618201794543 28.84618201794543 28.84618201794543 28.84618201794543 28.84618201794543 28.84618201794543 28.84618201794543 28.84618201794543 28.84618201794543 28.876945614356345 28.84618201794543 28.84618201794543 28.84618201794543 28.84618201794543 28.84618201794543 28.84618201794543 28.84618201794543 28.84618201794543 28.84618201794543 28.84618201794543 28.84618201794543 28.84618201794543 28.84618201794543 28.84618201794543 28.84618201794543 28.84618201794543 28.84618201794543 28.84618201794543 28.84618201794543 28.84618201794543 28.84618201794543 28.84618201794543 28.84618201794543 28.84618201794543 28.84618201794543 28.84618201794543 28.84618201794543 28.84618201794543 28.84618201794543 28.84618201794543 28.84618201794543 28.84618201794543 28.84618201794543 28.84618201794543 28.84618201794543 28.84618201794543 28.84618201794543 28.84618201794543 28.84618201794543 28.84618201794543 28.84618201794543 28.84618201794543 28.84618201794543 28.84618201794543 28.84618201794543 28.84618201794543 28.84618201794543 28.84618201794543 28.84618201794543 28.84618201794543 28.84618201794543 28.84618201794543 28.84618201794543 28.84618201794543 28.84618201794543 28.84618201794543 28.84618201794543 28.84618201794543 28.84618201794543 28.84618201794543 28.84618201794543 28.84618201794543 28.84618201794543 28.84618201794543 28.84618201794543 28.84618201794543 28.84618201794543 28.84618201794543 28.84618201794543 28.84618201794543 28.84618201794543 28.84618201794543 28.84618201794543 28.84618201794543 28.84618201794543 28.84618201794543 28.84618201794543 28.84618201794543 28.84618201794543 28.84618201794543 28.84618201794543 28.84618201794543 28.84618201794543 28.84618201794543 28.84618201794543 28.84618201794543 28.84618201794543 28.84618201794543 28.84618201794543 28.84618201794543 28.84618201794543 28.84618201794543 28.84618201794543 28.84618201794543 28.84618201794543 28.84618201794543 28.84618201794543 28.84618201794543 28.84618201794543 28.84618201794543 28.84618201794543 28.84618201794543 28.84618201794543 28.84618201794543 28.815418421534517 28.815418421534517 28.815418421534517 28.815418421534517 28.815418421534517 28.84618201794543 28.815418421534517 28.815418421534517 28.815418421534517 28.815418421534517 28.815418421534517 28.815418421534517 28.815418421534517 28.815418421534517 28.815418421534517 28.84618201794543 28.815418421534517 28.815418421534517 28.84618201794543 28.815418421534517 28.815418421534517 28.815418421534517 28.815418421534517 28.815418421534517 28.815418421534517 28.815418421534517 28.815418421534517 28.815418421534517 28.815418421534517 28.815418421534517 28.815418421534517 28.815418421534517 28.815418421534517 28.815418421534517 28.815418421534517 28.815418421534517 28.815418421534517 28.815418421534517 28.815418421534517 28.815418421534517 28.815418421534517 28.84618201794543 28.815418421534517 28.815418421534517 28.815418421534517 28.815418421534517 28.815418421534517 28.815418421534517 28.815418421534517 28.815418421534517 28.84618201794543 28.815418421534517 28.815418421534517 28.815418421534517 28.815418421534517 28.815418421534517 28.815418421534517 28.815418421534517 28.815418421534517 28.815418421534517 28.815418421534517 28.815418421534517 28.815418421534517 28.815418421534517 28.815418421534517 28.815418421534517 28.815418421534517 28.815418421534517 28.815418421534517 28.815418421534517 28.815418421534517 28.815418421534517 28.815418421534517 28.815418421534517 28.815418421534517 28.815418421534517 28.815418421534517 28.815418421534517 28.815418421534517 28.815418421534517 28.815418421534517 28.815418421534517 28.815418421534517 28.815418421534517 28.815418421534517 28.815418421534517 28.815418421534517 28.815418421534517 28.815418421534517 28.815418421534517 28.815418421534517 28.815418421534517 28.815418421534517 28.815418421534517 28.815418421534517 28.815418421534517 28.815418421534517 28.815418421534517 28.815418421534517 28.815418421534517 28.815418421534517 28.815418421534517 28.815418421534517 28.815418421534517 28.815418421534517 28.84618201794543 28.815418421534517 28.815418421534517 28.815418421534517 28.815418421534517 28.815418421534517 28.815418421534517 28.815418421534517 28.815418421534517 28.815418421534517 28.815418421534517 28.815418421534517 28.815418421534517 28.815418421534517 28.815418421534517 28.815418421534517 28.815418421534517 28.815418421534517 28.815418421534517 28.815418421534517 28.815418421534517 28.815418421534517 28.815418421534517 28.815418421534517 28.815418421534517 28.815418421534517 28.815418421534517 28.815418421534517 28.815418421534517 28.815418421534517 28.815418421534517 28.815418421534517 28.815418421534517 28.815418421534517 28.815418421534517 28.815418421534517 28.815418421534517 28.815418421534517 28.815418421534517 28.815418421534517 28.84618201794543 28.815418421534517 28.815418421534517 28.84618201794543 28.815418421534517 28.84618201794543 28.84618201794543 28.84618201794543 28.84618201794543 28.84618201794543 28.84618201794543 28.876945614356345 28.876945614356345 28.938472807178172 29.0 29.09229078923274 29.15381798205457 29.215345174876397 29.24610877128731 29.30763596410914 29.39992675334188 29.430690349752794 29.522981138985532 29.615271928218274 29.707562717451015 29.861380699505585 30.107489470792896 30.199780260025637 30.29207104925838 30.322834645669293 30.415125434902034 30.5689434169566 30.66123420618934 30.784288591832997 30.938106573887566 31.030397363120308 31.12268815235305 31.245742537996705 31.430324116462188 31.584142098516754 31.70719648416041 31.922541659036806 32.19941402673503 32.414759201611425 32.63010437648782 32.78392235854239 33.0300311298297 33.30690349752793 33.55301226881524 33.829884636513455 34.229811389855335 34.44515656473173 34.66050173960813 34.87584691448453 35.183482878593665 35.52188243911371 35.82951840322285 36.22944515656473 36.598608313495696 36.87548068119392 37.09082585607032 37.42922541659037 37.798388573521336 38.167551730452296 38.413660501739606 38.78282365867057 39.18275041201245 39.49038637612159 39.890313129463465 40.16718549716169 40.597875846914484 40.997802600256364 41.27467496795458 41.58231093206372 41.82841970335103 42.13605566746017 42.47445522798022 42.68980040285662 42.99743636696576 43.45889031312946 43.67423548800586 43.92034425929317 44.25874381981322 44.59714338033327 44.84325215162058 45.21241530855154 45.61234206189343 45.98150521882439 46.28914118293353 46.62754074345358 46.904413111151804 47.304339864493684 47.67350302142465 47.95037538912287 48.35030214246475 48.75022889580663 49.027101263504846 49.51931880607947 49.76542757736678 50.042299945065004 50.288408716352315 50.534517487639626 50.87291704815968 51.33437099432338 51.58047976561069 51.88811572971983 52.07269730818531 52.31880607947262 52.503387657938106 52.74949642922542 52.96484160410181 53.18018677897821 53.364768357443694 53.580113532320084 53.85698590001831 54.13385826771653 54.2876762497711 54.44149423182567 54.7183665995239 54.9644753708112 55.179820545687605 55.57974729902948 55.79509247390588 56.10272843801501 56.31807361289141 56.53341878776781 56.87181834828786 57.302508698040654 57.517853872917044 57.82548983702618 58.071598608313494 58.34847097601172 58.563816150888115 58.90221571140816 59.2098516755173 59.51748763962644 59.79436000732467 60.1019959714338 60.3173411463102 60.655740706830244 60.994140267350296 61.17872184581578 61.51712140633583 61.76323017762314 62.101629738143195 62.47079289507416 62.83995605200513 63.239882805347 63.63980955868888 63.79362754074345 64.16279069767441 64.59348104742722 64.87035341512544 65.36257095770006 65.73173411463102 66.03937007874015 66.40853323567111 66.65464200695843 67.02380516388939 67.33144112799853 67.60831349569676 67.91594945980589 68.19282182750412 68.53122138802416 68.86962094854422 69.08496612342061 69.42336568394066 69.66947445522797 70.06940120856986 70.34627357626809 70.6231459439663 71.26918146859549 71.82292620399194 72.03827137886833 72.5920161142648 73.20728804248306 73.7610327778795 74.28401391686504 74.68394067020691 75.0838674235488 75.51455777330159 75.79143014099981 76.16059329793077 76.37593847280718 76.77586522614905 77.05273759384727 77.26808276872367 77.5449551364219 77.82182750412012 77.97564548617468 78.22175425746201 78.40633583592748 78.62168101080388 78.92931697491301 79.0831349569676 79.29848013184399 79.42153451748763 79.60611609595313 79.75993407800769 79.85222486724042 79.97527925288409 80.09833363852775 80.2213880241714 80.34444240981506 80.4674967954587 80.59055118110236 80.74436916315693 80.83665995238968 80.9289507416224 81.02124153085515 81.05200512726607 81.08276872367698 81.1135323200879 81.17505951290971 81.23658670573155 81.26735030214246 81.29811389855337 81.32887749496429 81.32887749496429 81.32887749496429 81.32887749496429 81.32887749496429 81.32887749496429 81.42116828419702 81.51345907342977 81.5749862662516 81.63651345907343 81.63651345907343 81.66727705548433 81.69804065189524 81.72880424830618 81.75956784471708 81.79033144112799 81.8210950375389 81.8210950375389 81.8210950375389 81.8210950375389 81.8210950375389 81.8210950375389 81.8210950375389 81.8210950375389 81.8210950375389 81.8210950375389 81.8210950375389 81.8210950375389 81.8210950375389 81.8210950375389 81.8210950375389 81.79033144112799 81.79033144112799 81.8210950375389 81.79033144112799 81.8210950375389 81.79033144112799 81.79033144112799 81.8210950375389 81.8210950375389 81.79033144112799 81.79033144112799 81.79033144112799 81.79033144112799 81.75956784471708 81.75956784471708 81.75956784471708 81.75956784471708 81.75956784471708 81.75956784471708 81.75956784471708 81.75956784471708 81.75956784471708 81.75956784471708 81.75956784471708 81.75956784471708 81.75956784471708 81.75956784471708 81.75956784471708 81.75956784471708 81.75956784471708 81.75956784471708 81.75956784471708 81.75956784471708 81.75956784471708 81.75956784471708 81.75956784471708 81.75956784471708 81.72880424830618 81.72880424830618 81.72880424830618 81.72880424830618 81.72880424830618 81.69804065189524 81.69804065189524 81.69804065189524 81.69804065189524 81.69804065189524 81.66727705548433 81.69804065189524 81.66727705548433 81.63651345907343 81.63651345907343 81.63651345907343 81.6057498626625 81.6057498626625 81.6057498626625 81.63651345907343 81.6057498626625 81.6057498626625 81.6057498626625 81.5749862662516 81.5749862662516 81.54422266984068 81.54422266984068 81.54422266984068 81.51345907342977 81.48269547701886 81.42116828419702 81.39040468778612 81.35964109137521 81.29811389855337 81.26735030214246 81.23658670573155 81.23658670573155 81.20582310932063 81.20582310932063 81.17505951290971 81.17505951290971 81.17505951290971 81.17505951290971 81.17505951290971 81.17505951290971 81.17505951290971 81.17505951290971 81.17505951290971 81.17505951290971 81.17505951290971 81.1442959164988 81.1135323200879 81.1135323200879 81.1135323200879 81.08276872367698 81.08276872367698 81.05200512726607 81.05200512726607 