29.0 29.0 29.0 29.0 29.0 29.0 29.0 29.0 29.0 29.0 29.0 29.0 29.0 29.0 29.0 29.0 29.0 29.0 29.0 29.0 29.0 29.0 29.0 29.0 29.0 29.0 29.0 29.0 29.0 29.0 29.0 29.0 29.0 29.0 29.0 29.0 29.0 29.0 29.0 29.0 29.0 29.0 29.0 29.0 29.0 29.0 29.0 29.0 29.0 29.0 29.0 29.0 29.0 29.0 29.0 29.0 29.0 29.0 29.0 29.0 29.0 29.0 29.0 29.0 29.0 29.0 29.0 29.0 29.0 29.0 29.0 29.0 29.0 29.0 29.0 29.0 29.0 29.0 29.0 29.0 29.0 29.0 29.0 29.0 29.0 29.0 28.969236403589086 29.0 29.0 29.0 29.0 29.0 29.0 29.0 29.0 29.0 29.0 29.0 29.0 29.0 29.0 29.0 29.0 29.0 29.0 29.0 29.0 29.0 29.0 29.0 29.0 29.0 29.0 29.0 29.0 29.0 29.0 29.0 29.0 29.0 29.0 29.0 29.0 29.0 29.0 29.0 29.0 29.0 29.0 29.0 29.0 29.0 29.0 29.0 29.0 29.0 29.0 29.0 29.0 29.0 29.0 29.0 29.0 29.0 29.0 29.0 29.0 29.0 29.0 29.0 29.0 29.0 29.0 29.0 29.0 29.0 29.0 29.0 29.0 29.0 29.0 29.0 29.0 29.0 29.0 29.0 29.0 29.0 29.0 29.0 29.0 29.0 29.0 29.0 29.0 29.0 29.0 29.0 29.0 29.0 29.0 29.0 29.0 29.0 29.0 29.0 29.0 29.0 29.0 29.0 29.0 29.0 29.0 29.0 29.0 29.0 29.0 29.0 29.0 29.0 29.0 29.0 29.0 29.0 29.0 29.0 29.0 29.0 29.0 29.0 29.0 29.0 29.0 29.0 29.0 29.0 29.0 29.0 29.0 29.0 29.0 29.0 29.0 29.0 29.0 29.0 29.0 29.0 29.0 29.0 29.0 29.0 29.0 29.0 29.0 29.0 29.0 29.0 29.0 29.0 29.0 29.0 29.0 29.0 29.0 29.0 29.0 29.0 29.0 29.0 29.0 29.0 29.0 29.0 29.0 29.0 29.0 29.0 29.0 29.0 29.0 29.0 29.0 29.0 29.0 29.0 29.0 28.969236403589086 29.0 29.0 29.0 29.0 29.0 29.0 29.0 29.0 29.0 29.0 29.0 29.0 29.0 29.0 29.0 28.969236403589086 29.0 29.0 29.0 29.0 29.0 29.0 29.0 29.0 29.0 29.0 29.0 29.0 29.0 29.0 29.0 29.0 29.0 29.0 29.0 29.0 29.0 29.0 29.0 29.0 29.0 29.0 29.0 29.0 29.0 29.0 29.0 29.0 29.0 29.0 29.0 29.0 29.0 29.0 29.0 29.0 29.0 29.0 29.0 29.0 29.0 29.0 29.0 29.0 29.0 29.0 29.0 29.0 29.0 29.0 29.0 28.969236403589086 29.0 29.0 29.0 29.0 29.0 29.0 29.0 29.0 29.0 29.0 29.0 29.0 29.0 29.0 29.0 29.0 29.0 29.0 29.0 29.0 29.0 29.0 29.0 29.0 29.0 29.0 29.0 29.0 29.0 29.0 29.0 29.0 29.0 29.0 29.0 29.0 29.0 29.0 29.0 29.0 29.0 29.0 29.0 29.0 29.0 29.0 29.0 29.0 29.0 29.0 29.0 29.0 29.0 29.0 29.0 29.0 29.0 29.0 29.0 29.0 29.0 29.0 29.0 29.0 29.0 29.0 29.0 29.0 29.0 29.0 29.0 29.0 29.0 29.0 29.0 29.0 29.0 29.0 29.0 29.0 29.0 29.0 29.0 29.0 29.0 29.0 29.0 29.0 29.0 29.0 29.0 29.0 29.0 29.0 29.0 29.0 29.0 29.0 29.0 29.0 29.0 29.0 29.0 29.0 29.0 29.0 29.0 29.0 29.0 29.0 29.0 29.0 29.0 29.0 29.0 29.0 29.0 29.0 29.0 29.0 29.0 29.0 29.0 29.0 29.0 29.0 29.0 29.0 29.0 29.0 29.0 29.0 29.0 29.0 29.0 29.0 29.0 28.969236403589086 29.0 29.0 29.0 29.0 29.0 29.0 29.0 29.0 29.0 29.0 29.0 29.0 29.0 29.0 29.0 29.0 29.0 29.0 29.0 29.0 29.0 29.0 29.0 29.0 29.0 29.0 28.969236403589086 29.0 29.0 29.0 29.0 29.0 29.0 29.0 29.0 29.0 29.0 29.0 29.0 29.0 29.0 29.0 29.0 29.0 29.0 29.0 29.0 29.0 29.0 29.0 29.0 29.0 29.0 29.0 29.0 29.0 29.0 29.0 29.0 29.0 29.0 29.0 29.0 29.0 29.0 29.0 29.0 29.0 29.0 29.0 29.0 29.0 29.0 29.0 29.0 29.0 29.0 29.0 29.0 28.969236403589086 29.0 29.0 29.0 29.0 29.0 29.0 29.0 29.0 29.0 29.0 29.0 29.0 29.0 29.0 29.0 29.0 29.0 29.0 29.0 29.0 29.0 29.0 29.0 29.0 29.0 29.0 29.0 29.0 29.0 29.0 29.0 28.969236403589086 29.0 29.0 29.0 29.0 29.0 29.0 28.969236403589086 29.0 29.0 29.0 29.0 29.0 29.0 29.0 29.030763596410914 29.0 29.0 29.030763596410914 29.030763596410914 29.030763596410914 29.030763596410914 29.061527192821828 29.061527192821828 29.09229078923274 29.09229078923274 29.123054385643655 29.123054385643655 29.123054385643655 29.15381798205457 29.15381798205457 29.184581578465483 29.184581578465483 29.184581578465483 29.215345174876397 29.215345174876397 29.215345174876397 29.24610877128731 29.276872367698225 29.24610877128731 29.276872367698225 29.276872367698225 29.30763596410914 29.30763596410914 29.338399560520052 29.369163156930966 29.369163156930966 29.39992675334188 29.430690349752794 29.461453946163708 29.522981138985532 29.58450833180736 29.6767991210401 29.799853506683757 29.98443508514924 30.13825306720381 30.23054385643655 30.38436183849112 30.538179820545686 30.66123420618934 30.81505218824391 30.96887017029848 31.12268815235305 31.27650613440762 31.430324116462188 31.614905694927668 31.79948727339315 32.014832448269544 32.19941402673503 32.38399560520051 32.59934078007691 32.78392235854239 32.99926753341879 33.214612708295185 33.460721479582496 33.67606665445889 33.922175425746204 34.16828419703351 34.44515656473173 34.69126533601904 34.96813770371727 35.27577366782641 35.55264603552463 35.82951840322285 36.106390770921074 36.3832631386193 36.62937190990661 36.906244277604834 37.12158945248123 37.33693462735763 37.552279802234025 37.521516205823104 37.64457059146676 37.98297015198681 38.321369712506865 38.65976927302692 39.028932429957884 39.39809558688884 39.7364951474089 40.07489470792895 40.444057864859914 40.81322102179088 41.18238417872185 41.61307452847464 42.07452847463834 42.566746017212964 43.028199963376665 43.73576268082768 44.16645303058048 44.874015748031496 45.3354696941952 46.07379600805713 46.78135872550815 47.27357626808276 47.91961179271196 48.565647317341146 49.027101263504846 49.91924555942135 50.41146310199597 50.903680644570585 51.457425379967034 51.949642922541656 52.718732832814496 53.73393151437466 54.31843984618202 55.149056949276684 55.641274491851306 56.13349203442593 57.08716352316425 57.57938106573887 58.010071415491666 58.90221571140816 59.425196850393704 60.19428676066654 60.932613074528476 61.48635780992492 62.31697491301959 62.83995605200513 63.60904596227797 64.34737227613991 64.87035341512544 65.7009705182201 66.22395165720565 66.86998718183483 67.54678630287492 67.97747665262773 68.56198498443507 69.11572971983153 69.51565647317341 70.16169199780259 70.43856436550081 70.8384911188427 71.23841787218458 71.5152902398828 71.9459805896356 72.43819813221022 72.86888848196301 73.42263321735945 73.85332356711226 74.46859549533052 75.02234023072697 75.42226698406884 75.9760117194653 76.59128364768358 77.05273759384727 77.42190075077824 77.7910639077092 78.52939022157113 78.8677897820912 79.48306171030947 79.97527925288409 80.4367331990478 80.74436916315693 81.20582310932063 81.48269547701886 81.75956784471708 82.28254898370261 82.52865775498992 82.89782091192089 83.29774766526276 83.57462003296098 83.94378318989196 84.18989196117926 84.55905511811024 84.92821827504119 85.1435634499176 85.54349020325947 85.91265336019043 86.3125801135323 86.65097967405237 86.89708844533968 87.08167002380517 87.26625160227064 87.3893059879143 87.48159677714705 87.51236037355795 87.51236037355795 87.51236037355795 87.51236037355795 87.51236037355795 87.51236037355795 87.45083318073613 87.35854239150339 87.29701519868155 87.23548800585974 87.2047244094488 87.14319721662699 87.14319721662699 87.11243362021608 87.11243362021608 87.08167002380517 87.08167002380517 87.05090642739424 87.08167002380517 87.05090642739424 87.05090642739424 87.02014283098333 87.02014283098333 87.02014283098333 86.98937923457241 86.9586156381615 86.98937923457241 86.9586156381615 86.9586156381615 86.9586156381615 86.9586156381615 86.89708844533968 86.89708844533968 86.89708844533968 86.86632484892877 86.86632484892877 86.83556125251785 86.80479765610693 86.77403405969602 86.7125068668742 86.7125068668742 86.68174327046327 86.68174327046327 86.65097967405237 86.65097967405237 86.68174327046327 86.65097967405237 86.65097967405237 86.65097967405237 86.65097967405237 86.62021607764146 86.65097967405237 86.65097967405237 86.65097967405237 86.62021607764146 86.62021607764146 86.62021607764146 86.65097967405237 86.62021607764146 86.58945248123054 86.58945248123054 86.52792528840871 86.52792528840871 86.4971616919978 86.46639809558688 86.40487090276505 86.34334370994324 86.3125801135323 86.2818165171214 86.25105292071049 86.22028932429959 86.22028932429959 86.18952572788865 86.18952572788865 86.15876213147774 86.15876213147774 86.12799853506684 86.12799853506684 86.09723493865592 86.03570774583409 86.03570774583409 86.03570774583409 86.00494414942318 86.00494414942318 85.97418055301226 85.97418055301226 85.97418055301226 85.97418055301226 86.00494414942318 85.97418055301226 85.97418055301226 85.97418055301226 85.97418055301226 85.97418055301226 85.97418055301226 85.97418055301226 85.97418055301226 85.97418055301226 85.97418055301226 85.97418055301226 85.97418055301226 85.97418055301226 85.97418055301226 85.94341695660134 85.91265336019043 85.88188976377953 85.8511261673686 85.8203625709577 85.78959897454678 85.78959897454678 85.75883537813587 85.72807178172496 85.66654458890312 85.60501739608131 85.54349020325947 85.48196301043765 85.358908624794 85.23585423915033 85.1435634499176 84.92821827504119 84.80516388939753 84.68210950375389 84.58981871452116 84.55905511811024 84.52829152169932 84.49752792528841 84.49752792528841 84.43600073246657 84.37447353964475 84.31294634682291 84.2514191540011 84.12836476835744 84.12836476835744 84.09760117194652 84.09760117194652 84.09760117194652 84.09760117194652 84.09760117194652 84.06683757553562 84.06683757553562 83.94378318989196 83.88225599707013 83.88225599707013 83.8207288042483 83.75920161142648 83.72843801501557 83.66691082219373 83.63614722578282 83.57462003296098 83.54385643655007 83.51309284013917 83.51309284013917 83.51309284013917 83.51309284013917 83.54385643655007 83.51309284013917 83.51309284013917 83.54385643655007 83.54385643655007 83.54385643655007 83.54385643655007 83.54385643655007 83.54385643655007 83.54385643655007 83.51309284013917 83.51309284013917 83.45156564731735 83.39003845449551 83.35927485808459 83.26698406885185 83.26698406885185 83.23622047244095 83.20545687603003 83.23622047244095 83.20545687603003 83.20545687603003 83.23622047244095 83.23622047244095 83.23622047244095 83.23622047244095 83.23622047244095 83.23622047244095 83.23622047244095 83.23622047244095 83.23622047244095 83.20545687603003 83.20545687603003 83.20545687603003 83.23622047244095 83.23622047244095 83.23622047244095 83.23622047244095 83.20545687603003 83.23622047244095 83.20545687603003 83.23622047244095 83.23622047244095 83.23622047244095 83.23622047244095 83.26698406885185 83.26698406885185 83.26698406885185 83.26698406885185 83.26698406885185 83.26698406885185 83.26698406885185 83.26698406885185 83.26698406885185 83.29774766526276 83.26698406885185 83.26698406885185 83.26698406885185 83.26698406885185 83.26698406885185 83.26698406885185 83.26698406885185 83.23622047244095 83.26698406885185 83.26698406885185 83.26698406885185 83.23622047244095 83.23622047244095 83.23622047244095 83.23622047244095 83.23622047244095 83.23622047244095 83.23622047244095 83.23622047244095 83.23622047244095 83.23622047244095 83.20545687603003 83.20545687603003 83.20545687603003 83.20545687603003 83.20545687603003 83.20545687603003 83.20545687603003 83.20545687603003 83.20545687603003 83.20545687603003 83.20545687603003 83.20545687603003 83.20545687603003 83.20545687603003 83.20545687603003 83.20545687603003 83.23622047244095 83.23622047244095 83.23622047244095 83.26698406885185 83.26698406885185 83.26698406885185 83.26698406885185 83.26698406885185 83.26698406885185 83.26698406885185 83.29774766526276 83.32851126167368 83.32851126167368 83.32851126167368 83.32851126167368 83.32851126167368 83.32851126167368 83.32851126167368 83.32851126167368 83.32851126167368 83.32851126167368 83.32851126167368 83.32851126167368 83.32851126167368 83.32851126167368 83.32851126167368 83.32851126167368 83.29774766526276 83.32851126167368 83.32851126167368 83.32851126167368 83.32851126167368 83.32851126167368 83.32851126167368 83.32851126167368 83.32851126167368 83.35927485808459 83.32851126167368 83.32851126167368 83.32851126167368 83.32851126167368 83.32851126167368 83.32851126167368 83.29774766526276 83.29774766526276 83.29774766526276 83.29774766526276 83.29774766526276 83.29774766526276 83.29774766526276 83.26698406885185 83.29774766526276 83.29774766526276 83.29774766526276 83.29774766526276 83.26698406885185 83.26698406885185 83.20545687603003 83.20545687603003 83.1746932796191 83.1439296832082 83.08240249038637 83.05163889397545 83.02087529756454 82.95934810474272 82.92858450833181 82.83629371909906 82.83629371909906 82.77476652627723 82.68247573704448 82.59018494781176 82.4671305621681 82.28254898370261 82.19025819446988 81.97491301959349 81.85185863394983 81.72880424830618 81.54422266984068 81.42116828419702 81.1135323200879 80.86742354880059 80.68284197033509 80.4674967954587 80.28291521699322 80.0368064457059 79.75993407800769 79.5753524995422 79.26771653543307 79.0831349569676 78.96008057132393 78.74473539644754 78.59091741439296 78.40633583592748 78.09869987181834 77.82182750412012 77.60648232924373 77.26808276872367 76.92968320820361 76.56052005127265 76.31441127998534 76.06830250869804 75.51455777330159 75.23768540560337 74.77623145943966 74.28401391686504 73.94561435634498 73.45339681377037 73.0842336568394 72.49972532503205 71.91521699322467 71.4845266434719 70.86925471525362 70.28474638344625 69.85405603369347 69.2695477018861 68.71580296648965 68.3774034059696 67.94671305621681 67.57754989928584 67.14685954953305 66.74693279619117 66.47006042849296 66.1624244643838 65.9163156930965 65.7009705182201 65.33180736128914 65.11646218641275 64.83958981871451 64.65500824024903 64.37813587255081 64.1012635048526 63.916681926387106 63.578282365867054 63.14759201611426 63.024537630470604 62.65537447353964 62.409265702252334 61.947811756088626 61.609412195568574 61.48635780992492 61.11719465299395 60.778795092473906 60.47115912836477 60.040468778611974 59.82512360373558 59.45596044680461 59.025270097051816 58.71763413294268 58.28694378318989 57.88701702984801 57.61014466214979 57.240981505218826 56.994872733931516 56.59494598058963 56.25654642006958 55.85661966672771 55.48745650979674 55.30287493133125 55.05676616004395 54.74913019593481 54.53378502105841 54.10309467130563 53.73393151437466 53.33400476103277 53.057132393334555 52.74949642922542 52.411096868705364 51.91887932613075 51.64200695843252 51.27284380150155 50.903680644570585 50.688335469694195 50.34993590917414 50.01153634865409 49.76542757736678 49.365500824024906 49.18091924555942 49.027101263504846 48.81175608862846 48.65793810657389 48.28877494964292 48.13495696758835 47.98113898553378 47.73503021424648 47.61197582860282 47.42739425013734 47.212049075260936 47.08899468961728 46.904413111151804 46.78135872550815 46.658304339864486 46.442959164988096 46.38143197216627 46.16608679728987 45.98150521882439 45.82768723676982 45.643105658304336 45.396996887017025 45.24317890496246 44.96630653726424 44.81248855520967 44.56637978392236 44.32027101263505 44.10492583775865 43.85881706647134 43.581944698773114 43.42812671671855 43.0897271561985 42.812854788500275 42.566746017212964 42.38216443874748 42.197582860282 41.797656106940124 41.58231093206372 41.39772935359824 41.05932979307819 40.87474821461271 40.6286394433254 40.32100347921626 40.136421900750776 39.85954953305256 39.61344076176525 39.30580479765611 39.028932429957884 38.81358725508149 38.44442409815052 38.13678813404138 37.798388573521336 37.552279802234025 37.306171030946714 36.96777147042666 36.53708112067387 36.22944515656473 35.706464017579194 35.27577366782641 34.99890130012818 34.69126533601904 34.32210217908808 34.075993407800766 33.67606665445889 33.49148507599341 33.27613990111701 33.12232191906244 33.060794726240616 33.0300311298297 32.99926753341879 32.968503937007874 32.968503937007874 32.93774034059696 32.93774034059696 32.906976744186046 32.87621314777513 32.84544955136422 32.814685954953305 32.75315876213148 32.69163156930965 32.63010437648782 32.53781358725508 32.47628639443325 32.3532320087896 32.29170481596777 32.23017762314594 32.19941402673503 32.1378868339132 32.107123237502286 32.04559604468046 31.984068851858634 31.891778062625892 31.79948727339315 31.737960080571323 31.64566929133858 31.614905694927668 31.584142098516754 31.522614905694926 31.461087712873102 31.399560520051274 31.307269730818533 31.21497894158579 31.12268815235305 30.96887017029848 30.845815784654825 30.753524995422083 30.599707013367514 30.47665262772386 30.322834645669293 30.23054385643655 30.07672587438198 29.8921442959165 29.8921442959165 29.8921442959165 29.8921442959165 29.861380699505585 29.861380699505585 29.83061710309467 29.861380699505585 29.83061710309467 29.799853506683757 29.799853506683757 29.769089910272843 29.707562717451015 29.615271928218274 29.49221754257462 29.461453946163708 29.430690349752794 29.430690349752794 29.39992675334188 29.39992675334188 29.39992675334188 29.369163156930966 29.369163156930966 29.369163156930966 29.369163156930966 29.369163156930966 29.338399560520052 29.338399560520052 29.338399560520052 29.338399560520052 29.30763596410914 29.30763596410914 29.30763596410914 29.30763596410914 29.30763596410914 29.276872367698225 29.276872367698225 29.276872367698225 29.24610877128731 29.24610877128731 29.24610877128731 29.215345174876397 29.215345174876397 29.215345174876397 29.215345174876397 29.215345174876397 29.184581578465483 29.184581578465483 29.184581578465483 29.15381798205457 29.15381798205457 29.15381798205457 29.15381798205457 29.15381798205457 29.123054385643655 29.123054385643655 29.123054385643655 29.123054385643655 29.123054385643655 29.123054385643655 29.123054385643655 29.123054385643655 29.123054385643655 29.123054385643655 29.123054385643655 29.123054385643655 29.09229078923274 29.123054385643655 29.09229078923274 29.09229078923274 29.09229078923274 29.09229078923274 29.09229078923274 29.09229078923274 29.09229078923274 29.09229078923274 29.09229078923274 29.09229078923274 29.09229078923274 29.061527192821828 29.09229078923274 29.09229078923274 29.061527192821828 29.061527192821828 29.061527192821828 29.061527192821828 29.061527192821828 29.061527192821828 29.061527192821828 29.061527192821828 29.061527192821828 29.030763596410914 29.061527192821828 29.061527192821828 29.030763596410914 29.061527192821828 29.030763596410914 29.061527192821828 29.030763596410914 29.030763596410914 29.030763596410914 29.030763596410914 29.030763596410914 29.030763596410914 29.030763596410914 29.030763596410914 29.030763596410914 29.030763596410914 29.030763596410914 29.030763596410914 29.030763596410914 29.030763596410914 29.030763596410914 29.030763596410914 29.030763596410914 29.030763596410914 29.030763596410914 29.030763596410914 29.030763596410914 29.030763596410914 29.030763596410914 29.030763596410914 29.030763596410914 29.030763596410914 29.030763596410914 29.030763596410914 29.030763596410914 29.030763596410914 29.030763596410914 29.030763596410914 29.030763596410914 29.030763596410914 29.030763596410914 29.030763596410914 29.030763596410914 29.0 29.030763596410914 29.030763596410914 29.030763596410914 29.0 29.030763596410914 29.030763596410914 29.030763596410914 29.030763596410914 29.030763596410914 29.030763596410914 29.030763596410914 29.030763596410914 29.030763596410914 29.030763596410914 29.0 29.0 29.0 29.0 29.0 29.0 29.0 29.0 29.0 29.0 29.0 29.0 29.0 29.0 29.0 29.0 29.0 29.0 29.0 29.0 29.0 29.0 29.0 29.0 29.0 29.0 29.0 29.0 29.0 29.0 29.0 29.0 29.0 29.0 29.0 29.0 29.0 29.0 29.0 29.0 29.0 29.0 29.0 29.0 29.0 28.969236403589086 29.0 28.969236403589086 28.969236403589086 28.969236403589086 28.969236403589086 28.969236403589086 28.969236403589086 28.969236403589086 28.969236403589086 28.969236403589086 28.969236403589086 28.969236403589086 28.969236403589086 28.969236403589086 28.969236403589086 28.969236403589086 28.969236403589086 28.969236403589086 28.969236403589086 28.969236403589086 28.969236403589086 28.969236403589086 28.938472807178172 28.969236403589086 28.969236403589086 28.969236403589086 28.969236403589086 28.969236403589086 28.969236403589086 28.969236403589086 28.969236403589086 28.969236403589086 28.969236403589086 28.938472807178172 28.938472807178172 28.938472807178172 28.969236403589086 28.938472807178172 28.938472807178172 28.969236403589086 28.969236403589086 28.969236403589086 28.938472807178172 28.938472807178172 28.969236403589086 28.969236403589086 28.969236403589086 28.938472807178172 28.938472807178172 28.969236403589086 28.969236403589086 28.969236403589086 28.938472807178172 28.938472807178172 28.969236403589086 28.938472807178172 28.969236403589086 28.938472807178172 28.938472807178172 28.938472807178172 28.969236403589086 28.969236403589086 28.938472807178172 28.938472807178172 28.938472807178172 28.938472807178172 28.938472807178172 28.938472807178172 28.969236403589086 28.938472807178172 28.938472807178172 28.938472807178172 28.938472807178172 28.969236403589086 28.969236403589086 28.938472807178172 28.938472807178172 28.969236403589086 28.969236403589086 28.938472807178172 28.938472807178172 28.938472807178172 28.938472807178172 28.938472807178172 28.938472807178172 28.938472807178172 28.938472807178172 28.969236403589086 28.938472807178172 28.969236403589086 28.938472807178172 28.938472807178172 28.969236403589086 28.938472807178172 28.969236403589086 28.938472807178172 28.969236403589086 28.969236403589086 28.938472807178172 28.938472807178172 28.938472807178172 28.938472807178172 28.938472807178172 28.969236403589086 28.938472807178172 28.969236403589086 28.938472807178172 28.938472807178172 28.938472807178172 28.938472807178172 28.938472807178172 28.938472807178172 28.938472807178172 28.969236403589086 28.938472807178172 28.938472807178172 28.938472807178172 28.938472807178172 28.938472807178172 28.938472807178172 28.938472807178172 28.938472807178172 28.938472807178172 28.938472807178172 28.938472807178172 28.938472807178172 28.938472807178172 28.938472807178172 28.938472807178172 28.938472807178172 28.938472807178172 28.938472807178172 28.938472807178172 28.938472807178172 28.938472807178172 28.969236403589086 28.938472807178172 28.938472807178172 28.938472807178172 28.938472807178172 28.938472807178172 28.938472807178172 28.938472807178172 28.938472807178172 28.938472807178172 28.938472807178172 28.938472807178172 28.938472807178172 28.938472807178172 28.938472807178172 28.938472807178172 28.938472807178172 28.938472807178172 28.938472807178172 28.938472807178172 28.938472807178172 28.938472807178172 28.938472807178172 28.938472807178172 28.938472807178172 28.938472807178172 28.938472807178172 28.938472807178172 28.938472807178172 28.938472807178172 28.938472807178172 28.938472807178172 28.938472807178172 28.938472807178172 28.938472807178172 28.938472807178172 28.938472807178172 28.938472807178172 28.938472807178172 28.938472807178172 28.938472807178172 28.938472807178172 28.938472807178172 28.938472807178172 28.938472807178172 28.938472807178172 28.938472807178172 28.938472807178172 28.938472807178172 28.938472807178172 28.938472807178172 28.938472807178172 28.938472807178172 28.938472807178172 28.938472807178172 28.938472807178172 28.938472807178172 28.938472807178172 28.938472807178172 28.938472807178172 28.938472807178172 28.938472807178172 28.938472807178172 28.938472807178172 28.938472807178172 28.938472807178172 28.938472807178172 28.938472807178172 28.938472807178172 28.938472807178172 28.938472807178172 28.938472807178172 28.938472807178172 28.938472807178172 28.938472807178172 28.938472807178172 28.938472807178172 28.938472807178172 28.938472807178172 28.938472807178172 28.938472807178172 28.938472807178172 28.938472807178172 28.938472807178172 28.938472807178172 28.938472807178172 28.938472807178172 28.938472807178172 28.938472807178172 28.938472807178172 28.938472807178172 28.938472807178172 28.938472807178172 28.938472807178172 28.938472807178172 28.938472807178172 28.938472807178172 28.938472807178172 28.938472807178172 28.938472807178172 28.938472807178172 28.938472807178172 28.938472807178172 28.938472807178172 28.938472807178172 28.938472807178172 28.938472807178172 28.938472807178172 28.938472807178172 28.938472807178172 28.938472807178172 28.938472807178172 28.938472807178172 28.938472807178172 28.938472807178172 28.938472807178172 28.938472807178172 28.938472807178172 28.938472807178172 28.938472807178172 28.938472807178172 28.938472807178172 28.938472807178172 28.938472807178172 28.938472807178172 28.938472807178172 28.938472807178172 28.938472807178172 28.938472807178172 28.938472807178172 28.938472807178172 28.938472807178172 28.938472807178172 28.938472807178172 28.938472807178172 28.938472807178172 28.938472807178172 28.938472807178172 28.938472807178172 28.938472807178172 28.938472807178172 28.938472807178172 28.938472807178172 28.938472807178172 28.938472807178172 28.938472807178172 28.938472807178172 28.938472807178172 28.938472807178172 28.938472807178172 28.938472807178172 28.938472807178172 28.938472807178172 28.938472807178172 28.938472807178172 28.938472807178172 28.938472807178172 28.938472807178172 28.938472807178172 28.938472807178172 28.938472807178172 28.938472807178172 28.938472807178172 28.938472807178172 28.938472807178172 28.938472807178172 28.938472807178172 28.938472807178172 28.938472807178172 28.938472807178172 28.938472807178172 28.938472807178172 28.938472807178172 28.938472807178172 28.938472807178172 28.938472807178172 28.938472807178172 28.938472807178172 28.938472807178172 28.938472807178172 28.938472807178172 28.938472807178172 28.938472807178172 28.938472807178172 28.938472807178172 28.938472807178172 28.938472807178172 28.938472807178172 28.938472807178172 28.938472807178172 28.938472807178172 28.938472807178172 28.938472807178172 28.938472807178172 28.938472807178172 28.938472807178172 28.938472807178172 28.938472807178172 28.938472807178172 28.938472807178172 28.938472807178172 28.938472807178172 28.938472807178172 28.938472807178172 28.938472807178172 28.938472807178172 28.938472807178172 28.938472807178172 28.938472807178172 28.938472807178172 28.938472807178172 28.938472807178172 28.90770921076726 28.938472807178172 28.938472807178172 28.938472807178172 28.938472807178172 28.938472807178172 28.938472807178172 28.938472807178172 28.938472807178172 28.938472807178172 28.938472807178172 28.938472807178172 28.938472807178172 28.938472807178172 28.938472807178172 28.938472807178172 28.938472807178172 28.938472807178172 28.938472807178172 28.938472807178172 28.90770921076726 28.938472807178172 28.938472807178172 28.90770921076726 28.90770921076726 28.90770921076726 28.938472807178172 28.90770921076726 28.90770921076726 28.938472807178172 28.90770921076726 28.938472807178172 28.938472807178172 28.90770921076726 28.938472807178172 28.938472807178172 28.90770921076726 28.938472807178172 28.938472807178172 28.938472807178172 28.90770921076726 28.938472807178172 28.938472807178172 28.938472807178172 28.938472807178172 28.938472807178172 28.938472807178172 28.938472807178172 28.938472807178172 28.90770921076726 28.90770921076726 28.938472807178172 28.938472807178172 28.938472807178172 28.938472807178172 28.90770921076726 28.938472807178172 28.938472807178172 28.90770921076726 28.938472807178172 28.938472807178172 28.938472807178172 28.90770921076726 28.938472807178172 28.938472807178172 28.938472807178172 28.938472807178172 28.90770921076726 28.938472807178172 28.938472807178172 28.938472807178172 28.938472807178172 28.90770921076726 28.90770921076726 28.90770921076726 28.90770921076726 28.90770921076726 28.938472807178172 28.938472807178172 28.938472807178172 28.938472807178172 28.938472807178172 28.938472807178172 28.90770921076726 28.90770921076726 28.90770921076726 28.938472807178172 28.938472807178172 28.90770921076726 28.90770921076726 28.90770921076726 28.90770921076726 28.938472807178172 28.90770921076726 28.90770921076726 28.938472807178172 28.938472807178172 28.938472807178172 28.938472807178172 28.938472807178172 28.938472807178172 28.938472807178172 28.938472807178172 28.938472807178172 28.938472807178172 28.938472807178172 28.90770921076726 28.90770921076726 28.90770921076726 28.938472807178172 28.90770921076726 28.90770921076726 28.938472807178172 28.938472807178172 28.938472807178172 28.90770921076726 28.90770921076726 28.90770921076726 28.938472807178172 28.938472807178172 28.938472807178172 28.90770921076726 28.90770921076726 28.938472807178172 28.90770921076726 28.90770921076726 28.938472807178172 28.90770921076726 28.938472807178172 28.90770921076726 28.90770921076726 28.90770921076726 28.90770921076726 28.938472807178172 28.90770921076726 28.90770921076726 28.90770921076726 28.90770921076726 28.90770921076726 28.90770921076726 28.90770921076726 28.90770921076726 28.90770921076726 28.90770921076726 28.90770921076726 28.90770921076726 28.90770921076726 28.90770921076726 28.90770921076726 28.90770921076726 28.90770921076726 28.90770921076726 28.90770921076726 28.90770921076726 28.90770921076726 28.90770921076726 28.938472807178172 28.90770921076726 28.90770921076726 28.90770921076726 28.90770921076726 28.90770921076726 28.90770921076726 28.90770921076726 28.90770921076726 28.90770921076726 28.90770921076726 28.90770921076726 28.90770921076726 28.90770921076726 28.90770921076726 28.90770921076726 28.90770921076726 28.90770921076726 28.90770921076726 28.90770921076726 28.90770921076726 28.90770921076726 28.938472807178172 28.90770921076726 28.90770921076726 28.90770921076726 28.90770921076726 28.90770921076726 28.90770921076726 28.90770921076726 28.90770921076726 28.90770921076726 28.90770921076726 28.90770921076726 28.90770921076726 28.90770921076726 28.90770921076726 28.90770921076726 28.90770921076726 28.90770921076726 28.90770921076726 28.90770921076726 28.90770921076726 28.90770921076726 28.90770921076726 28.90770921076726 28.90770921076726 28.90770921076726 28.90770921076726 28.90770921076726 28.90770921076726 28.90770921076726 28.90770921076726 28.90770921076726 28.90770921076726 28.90770921076726 28.90770921076726 28.90770921076726 28.90770921076726 28.90770921076726 28.90770921076726 28.90770921076726 28.90770921076726 28.90770921076726 28.90770921076726 28.90770921076726 28.90770921076726 28.90770921076726 28.90770921076726 28.90770921076726 28.90770921076726 28.90770921076726 28.90770921076726 28.90770921076726 28.90770921076726 28.90770921076726 28.90770921076726 28.90770921076726 28.90770921076726 28.90770921076726 28.90770921076726 28.90770921076726 28.90770921076726 28.938472807178172 28.90770921076726 28.90770921076726 28.938472807178172 28.969236403589086 28.969236403589086 28.969236403589086 29.0 29.0 29.0 29.0 29.030763596410914 29.030763596410914 29.030763596410914 29.061527192821828 29.061527192821828 29.09229078923274 29.09229078923274 29.09229078923274 29.123054385643655 29.123054385643655 29.123054385643655 29.15381798205457 29.215345174876397 29.276872367698225 29.30763596410914 29.338399560520052 29.338399560520052 29.338399560520052 29.369163156930966 29.369163156930966 29.39992675334188 29.39992675334188 29.39992675334188 29.430690349752794 29.430690349752794 29.461453946163708 29.49221754257462 29.553744735396446 29.58450833180736 29.707562717451015 29.799853506683757 29.953671488738326 30.07672587438198 30.23054385643655 30.38436183849112 30.507416224134772 30.691997802600255 30.87657938106574 31.06116095953122 31.27650613440762 31.522614905694926 31.737960080571323 32.014832448269544 32.260941219556855 32.53781358725508 32.78392235854239 33.060794726240616 33.58377586522615 33.829884636513455 34.137520600622594 34.537447353964474 34.783556125251785 34.99890130012818 35.24501007141549 35.46035524629189 35.737227613990115 35.952572788866505 36.3832631386193 36.69089910272844 36.93700787401575 37.2754074345358 37.64457059146676 37.9522065555759 38.38289690532869 38.65976927302692 39.275041201245195 39.70573155099798 40.01336751510712 40.536348654092656 40.843984618201794 41.18238417872185 41.797656106940124 42.259110053103825 42.53598242080205 43.21278154184215 43.366599523896724 43.7665262772386 44.227980223402305 44.535616187511444 45.12012451931881 45.30470609778429 45.735396447537084 46.13532320087896 46.68906793627541 46.996703900384546 47.33510346090459 47.7965574070683 48.28877494964292 48.62717451016297 49.27321003479216 49.82695477018861 50.16535433070866 50.65757187328328 50.995971433803334 51.30360739791247 51.88811572971983 52.16498809741805 52.56491485075993 52.9340780076909 53.24171397180004 53.76469511078557 53.94927668925105 54.25691265336019 54.59531221388024 54.81065738875664 55.30287493133125 55.61051089544039 56.0719648416041 56.348837209302324 56.656473173411456 56.994872733931516 57.48709027650613 57.94854422266984 58.34847097601172 59.05603369346274 59.425196850393704 59.91741439296832 60.28657754989928 60.56344991759751 61.20948544222669 61.51712140633583 62.009338948910454 62.53232008789599 62.93224684123786 63.39370078740157 63.916681926387106 64.40889946896172 64.90111701153634 65.0549349935909 65.57791613257645 66.10089727156199 66.50082402490386 67.02380516388939 67.57754989928584 67.85442226698407 68.3466398095587 68.74656656290057 69.14649331624244 69.4848928767625 69.82329243728255 70.13092840139169 70.34627357626809 70.59238234755539 70.99230910089727 71.23841787218458 71.57681743270463 71.85368980040286 72.31514374656656 72.74583409631936 73.05347006042848 73.5456876030031 74.00714154916682 74.43783189891961 74.96081303790514 75.36073979124703 76.09906610510895 76.40670206921808 76.96044680461453 77.5449551364219 77.97564548617468 78.34480864310567 78.96008057132393 79.29848013184399 79.7906976744186 80.19062442776048 80.52902398828053 80.9289507416224 81.48269547701886 81.63651345907343 82.06720380882622 82.31331258011353 82.65171214063358 83.08240249038637 83.20545687603003 83.48232924372826 83.72843801501557 84.0360739791247 84.15912836476835 84.34370994323385 84.65134590734297 84.83592748580845 84.95898187145211 85.05127266068484 85.11279985350667 85.20509064273942 85.3896722212049 85.48196301043765 85.72807178172496 85.8511261673686 85.94341695660134 86.09723493865592 86.25105292071049 86.3125801135323 86.40487090276505 86.46639809558688 86.52792528840871 86.55868888481963 86.65097967405237 86.7125068668742 86.80479765610693 86.89708844533968 86.98937923457241 87.02014283098333 87.02014283098333 87.02014283098333 86.98937923457241 86.98937923457241 86.98937923457241 86.9586156381615 86.89708844533968 86.86632484892877 86.77403405969602 86.68174327046327 86.65097967405237 86.55868888481963 86.52792528840871 86.4971616919978 86.4971616919978 86.4971616919978 86.46639809558688 86.4971616919978 86.46639809558688 86.46639809558688 86.46639809558688 86.4971616919978 86.4971616919978 86.4971616919978 86.4971616919978 86.4971616919978 86.4971616919978 86.4971616919978 86.46639809558688 86.4971616919978 86.46639809558688 86.4971616919978 86.4971616919978 86.46639809558688 86.46639809558688 86.46639809558688 86.43563449917598 86.40487090276505 86.34334370994324 86.2818165171214 86.22028932429959 86.15876213147774 86.15876213147774 86.09723493865592 85.97418055301226 85.97418055301226 85.97418055301226 85.94341695660134 85.97418055301226 85.94341695660134 85.94341695660134 85.94341695660134 85.94341695660134 85.94341695660134 85.94341695660134 85.91265336019043 85.91265336019043 85.88188976377953 85.88188976377953 85.88188976377953 85.88188976377953 85.88188976377953 85.8511261673686 85.8511261673686 85.8203625709577 85.8203625709577 85.8203625709577 85.8203625709577 85.78959897454678 85.8203625709577 85.78959897454678 85.8203625709577 85.78959897454678 85.78959897454678 85.78959897454678 85.78959897454678 85.78959897454678 85.78959897454678 85.78959897454678 85.78959897454678 85.8203625709577 85.78959897454678 85.78959897454678 85.78959897454678 85.78959897454678 85.78959897454678 85.78959897454678 85.78959897454678 85.78959897454678 85.78959897454678 85.78959897454678 85.8203625709577 85.78959897454678 85.78959897454678 85.8203625709577 85.78959897454678 85.8203625709577 85.78959897454678 85.78959897454678 85.78959897454678 85.78959897454678 85.78959897454678 85.78959897454678 85.78959897454678 85.78959897454678 85.78959897454678 85.75883537813587 85.75883537813587 85.72807178172496 85.72807178172496 85.72807178172496 85.69730818531404 85.66654458890312 85.66654458890312 85.63578099249222 85.60501739608131 85.60501739608131 85.57425379967039 85.54349020325947 85.54349020325947 85.51272660684856 85.48196301043765 85.45119941402672 85.45119941402672 85.45119941402672 85.45119941402672 85.45119941402672 85.45119941402672 85.45119941402672 85.45119941402672 85.45119941402672 85.45119941402672 85.45119941402672 85.45119941402672 85.45119941402672 85.45119941402672 85.45119941402672 85.45119941402672 85.45119941402672 85.42043581761581 85.42043581761581 85.42043581761581 85.42043581761581 85.42043581761581 85.3896722212049 85.3896722212049 85.358908624794 85.29738143197216 85.23585423915033 85.1743270463285 85.08203625709577 84.98974546786303 84.92821827504119 84.86669108221938 84.77440029298663 84.65134590734297 84.62058231093206 84.49752792528841 84.37447353964475 84.31294634682291 84.2514191540011 84.22065555759018 84.12836476835744 84.09760117194652 84.06683757553562 84.0360739791247 83.97454678630287 84.00531038271379 84.00531038271379 83.97454678630287 84.00531038271379 84.00531038271379 83.97454678630287 84.00531038271379 84.00531038271379 84.00531038271379 84.00531038271379 84.0360739791247 84.06683757553562 84.09760117194652 84.12836476835744 84.15912836476835 84.15912836476835 84.15912836476835 84.15912836476835 84.15912836476835 84.15912836476835 84.15912836476835 84.15912836476835 84.15912836476835 84.15912836476835 84.15912836476835 84.15912836476835 84.15912836476835 84.15912836476835 84.15912836476835 84.15912836476835 84.15912836476835 84.15912836476835 84.15912836476835 84.15912836476835 84.15912836476835 84.15912836476835 84.15912836476835 84.15912836476835 84.15912836476835 84.12836476835744 84.15912836476835 84.15912836476835 84.15912836476835 84.15912836476835 84.15912836476835 84.15912836476835 84.15912836476835 84.15912836476835 84.15912836476835 84.15912836476835 84.15912836476835 84.18989196117926 84.22065555759018 84.2514191540011 84.282182750412 84.282182750412 84.31294634682291 84.31294634682291 84.31294634682291 84.31294634682291 84.34370994323385 84.34370994323385 84.34370994323385 84.34370994323385 84.34370994323385 84.34370994323385 84.34370994323385 84.37447353964475 84.37447353964475 84.40523713605566 84.40523713605566 84.43600073246657 84.43600073246657 84.4667643288775 84.4667643288775 84.49752792528841 84.49752792528841 84.52829152169932 84.52829152169932 84.52829152169932 84.52829152169932 84.52829152169932 84.52829152169932 84.55905511811024 84.55905511811024 84.55905511811024 84.55905511811024 84.55905511811024 84.55905511811024 84.58981871452116 84.55905511811024 84.55905511811024 84.55905511811024 84.55905511811024 84.55905511811024 84.58981871452116 84.55905511811024 84.55905511811024 84.55905511811024 84.55905511811024 84.55905511811024 84.55905511811024 84.55905511811024 84.55905511811024 84.55905511811024 84.55905511811024 84.55905511811024 84.55905511811024 84.55905511811024 84.55905511811024 84.55905511811024 84.55905511811024 84.52829152169932 84.55905511811024 84.52829152169932 84.52829152169932 84.52829152169932 84.49752792528841 84.52829152169932 84.49752792528841 84.49752792528841 84.49752792528841 84.49752792528841 84.49752792528841 84.49752792528841 84.49752792528841 84.4667643288775 84.4667643288775 84.43600073246657 84.40523713605566 84.40523713605566 84.34370994323385 84.31294634682291 84.2514191540011 84.18989196117926 84.15912836476835 84.09760117194652 84.0360739791247 83.97454678630287 83.85149240065923 83.75920161142648 83.66691082219373 83.57462003296098 83.45156564731735 83.29774766526276 83.1746932796191 82.95934810474272 82.83629371909906 82.74400292986633 82.55942135140083 82.43636696575717 82.2517853872917 81.97491301959349 81.85185863394983 81.69804065189524 81.51345907342977 81.39040468778612 81.20582310932063 80.9289507416224 80.77513275956784 80.65207837392418 80.49826039186962 80.34444240981506 80.15986083134956 79.94451565647316 79.82146127082952 79.69840688518586 79.48306171030947 79.26771653543307 79.14466214978941 78.80626258926935 78.65244460721479 78.49862662516023 78.25251785387292 78.09869987181834 77.82182750412012 77.5449551364219 77.26808276872367 76.99121040102546 76.83739241897088 76.62204724409449 76.25288408716352 76.03753891228712 75.79143014099981 75.5453213697125 75.36073979124703 75.14539461637062 74.96081303790514 74.77623145943966 74.59164988097417 74.46859549533052 74.28401391686504 74.09943233839957 73.97637795275591 73.82255997070132 73.63797839223585 73.48416041018129 73.33034242812671 73.20728804248306 72.96117927119576 72.83812488555209 72.71507049990844 72.43819813221022 72.34590734297747 72.09979857169017 71.76139901117011 71.54605383629371 71.23841787218458 70.96154550448635 70.71543673319906 70.28474638344625 70.06940120856986 69.82329243728255 69.23878410547519 69.02343893059879 68.77733015931148 68.43893059879143 68.19282182750412 68.00824024903864 67.82365867057315 67.57754989928584 67.36220472440945 67.17762314594395 66.86998718183483 66.65464200695843 66.43929683208202 66.31624244643838 66.22395165720565 66.10089727156199 65.85478850027468 65.73173411463102 65.60867972898737 65.42409815052187 65.30104376487822 65.08569859000184 64.87035341512544 64.71653543307087 64.53195385460538 64.37813587255081 64.19355429408533 63.94744552279802 63.73210034792162 63.4552279802234 63.27064640175792 63.14759201611426 62.93224684123786 62.77842885918329 62.47079289507416 62.28621131660868 62.13239333455411 61.91704815967771 61.76323017762314 61.6709393883904 61.45559421351401 61.27101263504852 61.11719465299395 60.96337667093938 60.84032228529573 60.686504303241165 60.56344991759751 60.3173411463102 60.22505035707745 60.1019959714338 59.886650796557404 59.76359641091375 59.579014832448266 59.332906061160955 59.14832448269547 59.05603369346274 58.93297930781908 58.809924922175426 58.65610694012086 58.533052554477194 58.28694378318989 58.1023622047244 57.94854422266984 57.82548983702618 57.57938106573887 57.39479948727339 57.179454312397 57.02563633034242 56.81029115546603 56.56418238417872 56.41036440212415 56.16425563083684 55.948910455960444 55.82585607031679 55.61051089544039 55.45669291338582 55.27211133492034 55.026002563633035 54.74913019593481 54.56454861746933 54.41073063541476 54.2876762497711 53.980040285661964 53.826222303607395 53.610877128731005 53.3955319538546 53.24171397180004 53.026368796923634 52.811023622047244 52.65720563999267 52.411096868705364 52.22651529023988 51.949642922541656 51.64200695843252 51.42666178355613 51.11902581944699 50.842153451748764 50.65757187328328 50.41146310199597 50.22688152353049 49.85771836659953 49.61160959531221 49.39626442043581 49.1501556491485 48.96557407068302 48.75022889580663 48.35030214246475 48.13495696758835 47.7965574070683 47.48892144295917 47.24281267167186 46.904413111151804 46.658304339864486 46.38143197216627 46.07379600805713 45.85845083318073 45.52005127266068 45.15088811572972 44.84325215162058 44.50485259110053 44.381798205456874 44.074162241347736 43.79728987364952 43.612708295184035 43.305072331074896 43.0897271561985 42.966672770554844 42.8743819813221 42.78209119208936 42.72056399926753 42.53598242080205 42.412928035158394 42.22834645669291 42.013001281816514 41.85918329976195 41.61307452847464 41.3054385643655 41.15162058231093 40.87474821461271 40.690166636147225 40.444057864859914 40.22871268998352 39.982603918696206 39.7364951474089 39.55191356894342 39.39809558688884 39.18275041201245 38.99816883354697 38.78282365867057 38.475187694561434 38.38289690532869 38.19831532686321 38.04449734480864 37.921442959164985 37.58304339864493 37.398461820179456 37.21388024171397 36.998535066837576 36.87548068119392 36.69089910272844 36.56784471708478 36.3832631386193 36.1679179637429 35.952572788866505 35.737227613990115 35.491118842702804 35.30653726423732 35.06042849295001 34.84508331807361 34.72202893242996 34.537447353964474 34.44515656473173 34.29133858267716 34.19904779344442 34.01446621497894 33.89141182933528 33.76835744369163 33.67606665445889 33.522248672404324 33.460721479582496 33.33766709393884 33.27613990111701 33.12232191906244 32.99926753341879 32.906976744186046 32.75315876213148 32.63010437648782 32.53781358725508 32.44552279802234 32.3532320087896 32.23017762314594 32.168650430324114 32.1378868339132 32.07635964109137 32.04559604468046 32.014832448269544 31.95330525544772 31.922541659036806 31.891778062625892 31.86101446621498 31.830250869804065 31.79948727339315 31.737960080571323 31.70719648416041 31.64566929133858 31.584142098516754 31.491851309284012 31.338033327229446 31.245742537996705 31.184215345174877 31.06116095953122 30.96887017029848 30.87657938106574 30.784288591832997 30.599707013367514 30.507416224134772 30.415125434902034 30.261307452847465 30.23054385643655 30.23054385643655 30.23054385643655 30.23054385643655 30.199780260025637 30.199780260025637 30.199780260025637 30.199780260025637 30.169016663614723 30.169016663614723 30.107489470792896 30.07672587438198 29.98443508514924 29.922907892327412 29.922907892327412 29.8921442959165 29.861380699505585 29.83061710309467 29.83061710309467 29.799853506683757 29.799853506683757 29.73832631386193 29.73832631386193 29.73832631386193 29.707562717451015 29.707562717451015 29.707562717451015 29.6767991210401 29.6767991210401 29.646035524629188 29.646035524629188 29.646035524629188 29.615271928218274 29.615271928218274 29.615271928218274 29.615271928218274 29.615271928218274 29.58450833180736 29.58450833180736 29.58450833180736 29.553744735396446 29.553744735396446 29.553744735396446 29.522981138985532 29.522981138985532 29.49221754257462 29.49221754257462 29.461453946163708 29.461453946163708 29.461453946163708 29.461453946163708 29.430690349752794 29.430690349752794 29.430690349752794 29.430690349752794 29.430690349752794 29.430690349752794 29.430690349752794 29.430690349752794 29.430690349752794 29.430690349752794 29.430690349752794 29.430690349752794 29.430690349752794 29.430690349752794 29.430690349752794 29.430690349752794 29.430690349752794 29.430690349752794 29.430690349752794 29.430690349752794 29.430690349752794 29.430690349752794 29.430690349752794 29.430690349752794 29.430690349752794 29.430690349752794 29.430690349752794 29.430690349752794 29.430690349752794 29.430690349752794 29.430690349752794 29.430690349752794 29.39992675334188 29.430690349752794 29.430690349752794 29.430690349752794 29.39992675334188 29.39992675334188 29.430690349752794 29.39992675334188 29.39992675334188 29.39992675334188 29.39992675334188 29.39992675334188 29.39992675334188 29.39992675334188 29.39992675334188 29.39992675334188 29.39992675334188 29.39992675334188 29.39992675334188 29.39992675334188 29.39992675334188 29.39992675334188 29.39992675334188 29.39992675334188 29.39992675334188 29.39992675334188 29.39992675334188 29.369163156930966 29.39992675334188 29.369163156930966 29.369163156930966 29.369163156930966 29.369163156930966 29.369163156930966 29.369163156930966 29.369163156930966 29.369163156930966 29.369163156930966 29.369163156930966 29.369163156930966 29.369163156930966 29.369163156930966 29.369163156930966 29.369163156930966 29.369163156930966 29.369163156930966 29.338399560520052 29.369163156930966 29.369163156930966 29.369163156930966 29.369163156930966 29.338399560520052 29.369163156930966 29.338399560520052 29.369163156930966 29.369163156930966 29.369163156930966 29.338399560520052 29.338399560520052 29.338399560520052 29.338399560520052 29.369163156930966 29.338399560520052 29.338399560520052 29.338399560520052 29.338399560520052 29.338399560520052 29.369163156930966 29.369163156930966 29.338399560520052 29.338399560520052 29.338399560520052 29.338399560520052 29.369163156930966 29.338399560520052 29.338399560520052 29.338399560520052 29.338399560520052 29.338399560520052 29.338399560520052 29.338399560520052 29.338399560520052 29.338399560520052 29.338399560520052 29.338399560520052 29.338399560520052 29.338399560520052 29.338399560520052 29.369163156930966 29.338399560520052 29.338399560520052 29.338399560520052 29.338399560520052 29.338399560520052 29.338399560520052 29.338399560520052 29.338399560520052 29.369163156930966 29.338399560520052 29.338399560520052 29.338399560520052 29.338399560520052 29.338399560520052 29.338399560520052 29.338399560520052 29.338399560520052 29.338399560520052 29.338399560520052 29.338399560520052 29.338399560520052 29.338399560520052 29.338399560520052 29.338399560520052 29.338399560520052 29.338399560520052 29.338399560520052 29.338399560520052 29.338399560520052 29.338399560520052 29.338399560520052 29.338399560520052 29.338399560520052 29.338399560520052 29.338399560520052 29.338399560520052 29.338399560520052 29.338399560520052 29.338399560520052 29.338399560520052 29.338399560520052 29.338399560520052 29.338399560520052 29.338399560520052 29.338399560520052 29.338399560520052 29.338399560520052 29.338399560520052 29.338399560520052 29.338399560520052 29.338399560520052 29.338399560520052 29.338399560520052 29.338399560520052 29.338399560520052 29.338399560520052 29.338399560520052 29.338399560520052 29.338399560520052 29.338399560520052 29.338399560520052 29.338399560520052 29.338399560520052 29.338399560520052 29.338399560520052 29.338399560520052 29.338399560520052 29.338399560520052 29.338399560520052 29.338399560520052 29.338399560520052 29.338399560520052 29.338399560520052 29.338399560520052 29.338399560520052 29.338399560520052 29.338399560520052 29.338399560520052 29.338399560520052 29.338399560520052 29.338399560520052 29.338399560520052 29.338399560520052 29.338399560520052 29.338399560520052 29.338399560520052 29.30763596410914 29.338399560520052 29.338399560520052 29.30763596410914 29.338399560520052 29.338399560520052 29.30763596410914 29.338399560520052 29.338399560520052 29.338399560520052 29.30763596410914 29.338399560520052 29.338399560520052 29.338399560520052 29.338399560520052 29.338399560520052 29.30763596410914 29.338399560520052 29.338399560520052 29.338399560520052 29.338399560520052 29.338399560520052 29.30763596410914 29.30763596410914 29.338399560520052 29.30763596410914 29.30763596410914 29.338399560520052 29.338399560520052 29.30763596410914 29.30763596410914 29.30763596410914 29.30763596410914 29.30763596410914 29.30763596410914 29.30763596410914 29.30763596410914 29.30763596410914 29.30763596410914 29.30763596410914 29.30763596410914 29.30763596410914 29.30763596410914 29.30763596410914 29.338399560520052 29.30763596410914 29.30763596410914 29.30763596410914 29.30763596410914 29.30763596410914 29.30763596410914 29.30763596410914 29.30763596410914 29.30763596410914 29.30763596410914 29.30763596410914 29.30763596410914 29.30763596410914 29.30763596410914 29.30763596410914 29.30763596410914 29.30763596410914 29.30763596410914 29.30763596410914 29.30763596410914 29.30763596410914 29.30763596410914 29.30763596410914 29.30763596410914 29.30763596410914 29.30763596410914 29.30763596410914 29.30763596410914 29.30763596410914 29.30763596410914 29.30763596410914 29.30763596410914 29.30763596410914 29.30763596410914 29.30763596410914 29.30763596410914 29.30763596410914 29.30763596410914 29.30763596410914 29.30763596410914 29.30763596410914 29.30763596410914 29.30763596410914 29.30763596410914 29.30763596410914 29.30763596410914 29.30763596410914 29.30763596410914 29.30763596410914 29.30763596410914 29.30763596410914 29.30763596410914 29.30763596410914 29.30763596410914 29.30763596410914 29.30763596410914 29.30763596410914 29.30763596410914 29.30763596410914 29.30763596410914 29.30763596410914 29.30763596410914 29.30763596410914 29.30763596410914 29.30763596410914 29.30763596410914 29.30763596410914 29.30763596410914 29.30763596410914 29.30763596410914 29.30763596410914 29.30763596410914 29.30763596410914 29.30763596410914 29.30763596410914 29.30763596410914 29.30763596410914 29.30763596410914 29.30763596410914 29.30763596410914 29.30763596410914 29.30763596410914 29.30763596410914 29.30763596410914 29.30763596410914 29.30763596410914 29.30763596410914 29.30763596410914 29.30763596410914 29.30763596410914 29.30763596410914 29.30763596410914 29.30763596410914 29.30763596410914 29.30763596410914 29.30763596410914 29.30763596410914 29.30763596410914 29.30763596410914 29.30763596410914 29.30763596410914 29.30763596410914 29.30763596410914 29.30763596410914 29.30763596410914 29.30763596410914 29.30763596410914 29.30763596410914 29.30763596410914 29.30763596410914 29.30763596410914 29.30763596410914 29.30763596410914 29.30763596410914 29.30763596410914 29.30763596410914 29.276872367698225 29.30763596410914 29.30763596410914 29.30763596410914 29.30763596410914 29.30763596410914 29.30763596410914 29.30763596410914 29.30763596410914 29.30763596410914 29.30763596410914 29.30763596410914 29.30763596410914 29.30763596410914 29.30763596410914 29.30763596410914 29.30763596410914 29.30763596410914 29.30763596410914 29.30763596410914 29.30763596410914 29.30763596410914 29.30763596410914 29.30763596410914 29.30763596410914 29.30763596410914 29.30763596410914 29.30763596410914 29.30763596410914 29.30763596410914 29.30763596410914 29.30763596410914 29.30763596410914 29.30763596410914 29.30763596410914 29.30763596410914 29.30763596410914 29.30763596410914 29.30763596410914 29.30763596410914 29.30763596410914 29.30763596410914 29.30763596410914 29.30763596410914 29.30763596410914 29.30763596410914 29.30763596410914 29.30763596410914 29.30763596410914 29.30763596410914 29.30763596410914 29.30763596410914 29.30763596410914 29.30763596410914 29.30763596410914 29.30763596410914 29.30763596410914 29.30763596410914 29.30763596410914 29.30763596410914 29.30763596410914 29.30763596410914 29.30763596410914 29.30763596410914 29.30763596410914 29.30763596410914 29.30763596410914 29.30763596410914 29.30763596410914 29.30763596410914 29.30763596410914 29.30763596410914 29.30763596410914 29.30763596410914 29.30763596410914 29.30763596410914 29.30763596410914 29.276872367698225 29.30763596410914 29.30763596410914 29.30763596410914 29.30763596410914 29.30763596410914 29.30763596410914 29.30763596410914 29.30763596410914 29.30763596410914 29.30763596410914 29.30763596410914 29.30763596410914 29.30763596410914 29.30763596410914 29.30763596410914 29.30763596410914 29.30763596410914 29.30763596410914 29.30763596410914 29.30763596410914 29.30763596410914 29.30763596410914 29.30763596410914 29.30763596410914 29.30763596410914 29.30763596410914 29.30763596410914 29.30763596410914 29.30763596410914 29.30763596410914 29.30763596410914 29.30763596410914 29.30763596410914 29.30763596410914 29.30763596410914 29.30763596410914 29.30763596410914 29.30763596410914 29.30763596410914 29.30763596410914 29.30763596410914 29.30763596410914 29.30763596410914 29.30763596410914 29.30763596410914 29.30763596410914 29.30763596410914 29.30763596410914 29.30763596410914 29.30763596410914 29.30763596410914 29.30763596410914 29.30763596410914 29.30763596410914 29.30763596410914 29.30763596410914 29.30763596410914 29.30763596410914 29.30763596410914 29.30763596410914 29.30763596410914 29.30763596410914 29.30763596410914 29.30763596410914 29.30763596410914 29.30763596410914 29.30763596410914 29.30763596410914 29.30763596410914 29.30763596410914 29.30763596410914 29.30763596410914 29.30763596410914 29.30763596410914 29.30763596410914 29.30763596410914 29.30763596410914 29.30763596410914 29.30763596410914 29.30763596410914 29.30763596410914 29.30763596410914 29.30763596410914 29.30763596410914 29.30763596410914 29.276872367698225 29.30763596410914 29.30763596410914 29.30763596410914 29.30763596410914 29.30763596410914 29.30763596410914 29.30763596410914 29.30763596410914 29.30763596410914 29.30763596410914 29.30763596410914 29.30763596410914 29.30763596410914 29.30763596410914 29.30763596410914 29.30763596410914 29.30763596410914 29.30763596410914 29.30763596410914 29.30763596410914 29.30763596410914 29.30763596410914 29.30763596410914 29.30763596410914 29.276872367698225 29.30763596410914 29.30763596410914 29.30763596410914 29.30763596410914 29.30763596410914 29.30763596410914 29.30763596410914 29.30763596410914 29.30763596410914 29.30763596410914 29.30763596410914 29.30763596410914 29.30763596410914 29.30763596410914 29.30763596410914 29.30763596410914 29.30763596410914 29.30763596410914 29.30763596410914 29.30763596410914 29.30763596410914 29.30763596410914 29.30763596410914 29.30763596410914 29.30763596410914 29.30763596410914 29.30763596410914 29.30763596410914 29.30763596410914 29.30763596410914 29.30763596410914 29.30763596410914 29.30763596410914 29.30763596410914 29.30763596410914 29.30763596410914 29.30763596410914 29.30763596410914 29.30763596410914 29.30763596410914 29.30763596410914 29.30763596410914 29.30763596410914 29.30763596410914 29.30763596410914 29.30763596410914 29.30763596410914 29.30763596410914 29.30763596410914 29.30763596410914 29.30763596410914 29.30763596410914 29.30763596410914 29.30763596410914 29.30763596410914 29.30763596410914 29.30763596410914 29.30763596410914 29.30763596410914 29.30763596410914 29.30763596410914 29.30763596410914 29.30763596410914 29.30763596410914 29.276872367698225 29.30763596410914 29.30763596410914 29.30763596410914 29.30763596410914 29.30763596410914 29.30763596410914 29.30763596410914 29.30763596410914 29.30763596410914 29.276872367698225 29.30763596410914 29.30763596410914 29.30763596410914 29.30763596410914 29.30763596410914 29.30763596410914 29.30763596410914 29.30763596410914 29.30763596410914 29.30763596410914 29.30763596410914 29.30763596410914 29.30763596410914 29.30763596410914 29.30763596410914 29.30763596410914 29.30763596410914 29.30763596410914 29.30763596410914 29.30763596410914 29.30763596410914 29.30763596410914 29.30763596410914 29.30763596410914 29.30763596410914 29.30763596410914 29.30763596410914 29.30763596410914 29.30763596410914 29.30763596410914 29.30763596410914 29.30763596410914 29.30763596410914 29.30763596410914 29.30763596410914 29.30763596410914 29.30763596410914 29.30763596410914 29.338399560520052 29.369163156930966 29.369163156930966 29.39992675334188 29.430690349752794 29.522981138985532 29.58450833180736 29.58450833180736 29.615271928218274 29.615271928218274 29.646035524629188 29.707562717451015 29.73832631386193 29.8921442959165 29.98443508514924 30.107489470792896 30.261307452847465 30.353598242080206 30.538179820545686 30.753524995422083 30.87657938106574 31.091924555942136 31.245742537996705 31.461087712873102 31.676432887749495 31.79948727339315 32.04559604468046 32.1378868339132 32.29170481596777 32.44552279802234 32.59934078007691 32.78392235854239 32.99926753341879 33.09155832265153 33.2453763047061 33.39919428676067 33.522248672404324 33.73759384728072 33.89141182933528 34.01446621497894 34.19904779344442 34.29133858267716 34.41439296832082 34.537447353964474 34.66050173960813 34.8143197216627 34.90661051089544 35.06042849295001 35.24501007141549 35.36806445705915 35.55264603552463 35.76799121040103 35.9218091924556 36.198681560153815 36.41402673503021 36.81395348837209 37.02929866324849 37.36769822376854 37.64457059146676 37.89067936275407 38.19831532686321 38.53671488738326 38.8443508514924 39.18275041201245 39.582677165354326 39.890313129463465 40.32100347921626 40.6286394433254 41.02856619666728 41.42849295000916 41.73612891411829 42.16681926387108 42.78209119208936 43.15125434902033 43.42812671671855 43.73576268082768 44.135689434169564 44.56637978392236 44.84325215162058 45.36623329060612 45.735396447537084 45.98150521882439 46.31990477934444 46.53524995422084 46.71983153268632 47.05823109320637 47.27357626808276 47.45815784654825 47.61197582860282 47.82732100347921 48.04266617835561 48.319538546053835 48.50412012451932 48.81175608862846 49.05786485991577 49.365500824024906 49.642373191723124 50.134590734297745 50.50375389122871 50.78062625892693 51.05749862662516 51.42666178355613 51.826588536898 52.16498809741805 52.44186046511628 52.903314411279986 53.24171397180004 53.364768357443694 53.73393151437466 54.072331074894706 54.379967039003844 54.7183665995239 54.9644753708112 55.33363852774217 55.73356528108405 56.13349203442593 56.502655191356894 56.81029115546603 57.08716352316425 57.4255630836843 57.82548983702618 58.163889397546235 58.47152536165537 58.68687053653177 58.99450650064091 59.17908807910639 59.363669657571876 59.579014832448266 59.79436000732467 60.00970518220106 60.19428676066654 60.40963193554294 60.53268632118659 60.71726789965207 60.87108588170665 61.055667460172124 61.240249038637614 61.51712140633583 61.79399377403406 62.009338948910454 62.347738509430506 62.62461087712873 62.80919245559421 63.024537630470604 63.20911920893609 63.4552279802234 63.670573155099795 63.916681926387106 64.1320271012635 64.22431789049625 64.43966306537264 64.80882622230361 64.99340780076909 65.30104376487822 65.57791613257645 65.76249771104193 66.10089727156199 66.31624244643838 66.62387841054752 66.90075077824574 67.14685954953305 67.48525911005311 67.88518586339498 68.1620582310932 68.56198498443507 69.05420252700969 69.45412928035158 69.82329243728255 70.22321919062442 70.99230910089727 71.54605383629371 71.9459805896356 72.56125251785386 73.05347006042848 73.57645119941402 74.1917231276323 74.56088628456325 74.99157663431606 75.20692180919245 75.48379417689067 75.82219373741073 76.06830250869804 76.52975645486174 76.77586522614905 77.14502838308002 77.39113715436733 77.85259110053104 78.12946346822926 78.46786302874932 78.77549899285845 79.02160776414576 79.29848013184399 79.51382530672038 79.91375206006225 80.25215162058231 80.40596960263687 80.71360556674601 80.9289507416224 81.1135323200879 81.35964109137521 81.5749862662516 81.72880424830618 81.91338582677164 82.0056766160044 82.22102179088078 82.31331258011353 82.40560336934627 82.55942135140083 82.65171214063358 82.80553012268815 82.89782091192089 83.1746932796191 83.42080205090642 83.63614722578282 83.8207288042483 84.06683757553562 84.31294634682291 84.62058231093206 84.77440029298663 84.92821827504119 85.08203625709577 85.1743270463285 85.29738143197216 85.48196301043765 85.57425379967039 85.66654458890312 85.72807178172496 85.78959897454678 85.8511261673686 85.8511261673686 85.88188976377953 85.8511261673686 85.8511261673686 85.8511261673686 85.88188976377953 85.88188976377953 85.8511261673686 85.8511261673686 85.8511261673686 85.8511261673686 85.8511261673686 85.8511261673686 85.8511261673686 85.8511261673686 85.8511261673686 85.8511261673686 85.8203625709577 85.78959897454678 85.75883537813587 85.72807178172496 85.69730818531404 85.69730818531404 85.66654458890312 85.66654458890312 85.66654458890312 85.63578099249222 85.60501739608131 85.57425379967039 85.54349020325947 85.51272660684856 85.48196301043765 85.48196301043765 85.45119941402672 85.45119941402672 85.42043581761581 85.42043581761581 85.42043581761581 85.3896722212049 85.3896722212049 85.358908624794 85.358908624794 85.32814502838306 85.29738143197216 85.23585423915033 85.23585423915033 85.23585423915033 85.20509064273942 85.20509064273942 85.1743270463285 85.1743270463285 85.1743270463285 85.1435634499176 85.1435634499176 85.1743270463285 85.1435634499176 85.1435634499176 85.1743270463285 85.1743270463285 85.1435634499176 85.1435634499176 85.1435634499176 85.1435634499176 85.1435634499176 85.1435634499176 85.1435634499176 85.11279985350667 85.1435634499176 85.11279985350667 85.11279985350667 85.08203625709577 85.05127266068484 84.95898187145211 84.80516388939753 84.7128731001648 84.62058231093206 84.55905511811024 84.40523713605566 84.31294634682291 84.18989196117926 84.09760117194652 84.0360739791247 84.00531038271379 83.94378318989196 83.91301959348104 83.88225599707013 83.85149240065923 83.85149240065923 83.8207288042483 83.8207288042483 83.8207288042483 83.78996520783738 83.75920161142648 83.75920161142648 83.72843801501557 83.69767441860465 83.69767441860465 83.66691082219373 83.63614722578282 83.63614722578282 83.63614722578282 83.63614722578282 83.63614722578282 83.60538362937191 83.57462003296098 83.51309284013917 83.48232924372826 83.45156564731735 83.42080205090642 83.42080205090642 83.39003845449551 83.39003845449551 83.39003845449551 83.39003845449551 83.39003845449551 83.39003845449551 83.39003845449551 83.39003845449551 83.39003845449551 83.39003845449551 83.39003845449551 83.39003845449551 83.39003845449551 83.39003845449551 83.39003845449551 83.39003845449551 83.39003845449551 83.39003845449551 83.39003845449551 83.39003845449551 83.42080205090642 83.39003845449551 83.39003845449551 83.42080205090642 83.42080205090642 83.39003845449551 83.42080205090642 83.39003845449551 83.42080205090642 83.42080205090642 83.42080205090642 83.42080205090642 83.39003845449551 83.42080205090642 83.42080205090642 83.42080205090642 83.42080205090642 83.42080205090642 83.42080205090642 83.42080205090642 83.45156564731735 83.42080205090642 83.42080205090642 83.42080205090642 83.45156564731735 83.42080205090642 83.42080205090642 83.42080205090642 83.42080205090642 83.39003845449551 83.39003845449551 83.39003845449551 83.39003845449551 83.39003845449551 83.39003845449551 83.39003845449551 83.39003845449551 83.39003845449551 83.39003845449551 83.39003845449551 83.39003845449551 83.39003845449551 83.39003845449551 83.39003845449551 83.42080205090642 83.42080205090642 83.45156564731735 83.45156564731735 83.45156564731735 83.45156564731735 83.45156564731735 83.45156564731735 83.45156564731735 83.45156564731735 83.45156564731735 83.45156564731735 83.45156564731735 83.45156564731735 83.45156564731735 83.45156564731735 83.45156564731735 83.45156564731735 83.45156564731735 83.42080205090642 83.45156564731735 83.45156564731735 83.42080205090642 83.42080205090642 83.42080205090642 83.39003845449551 83.42080205090642 83.39003845449551 83.39003845449551 83.39003845449551 83.39003845449551 83.39003845449551 83.39003845449551 83.39003845449551 83.39003845449551 83.39003845449551 83.39003845449551 83.39003845449551 83.39003845449551 83.39003845449551 83.42080205090642 83.39003845449551 83.39003845449551 83.39003845449551 83.39003845449551 83.39003845449551 83.39003845449551 83.39003845449551 83.39003845449551 83.39003845449551 83.39003845449551 83.39003845449551 83.39003845449551 83.39003845449551 83.39003845449551 83.35927485808459 83.32851126167368 83.35927485808459 83.35927485808459 83.35927485808459 83.35927485808459 83.35927485808459 83.35927485808459 83.35927485808459 83.35927485808459 83.35927485808459 83.35927485808459 83.35927485808459 83.35927485808459 83.32851126167368 83.32851126167368 83.35927485808459 83.32851126167368 83.29774766526276 83.26698406885185 83.23622047244095 83.20545687603003 83.11316608679729 83.08240249038637 82.95934810474272 82.83629371909906 82.80553012268815 82.65171214063358 82.52865775498992 82.37483977293536 82.22102179088078 82.09796740523714 81.94414942318257 81.8210950375389 81.63651345907343 81.48269547701886 81.35964109137521 81.29811389855337 81.17505951290971 81.1135323200879 80.99047793444424 80.77513275956784 80.68284197033509 80.4367331990478 80.25215162058231 80.006042849295 79.63687969236403 79.42153451748763 79.14466214978941 78.92931697491301 78.74473539644754 78.4370994323384 78.22175425746201 77.82182750412012 77.48342794360008 77.29884636513458 76.99121040102546 76.8681560153818 76.62204724409449 76.28364768357443 76.09906610510895 75.82219373741073 75.57608496612343 75.42226698406884 75.17615821278153 74.93004944149423 74.74546786302875 74.49935909174144 74.34554110968686 74.09943233839957 73.85332356711226 73.60721479582494 73.33034242812671 73.17652444607214 73.02270646401757 72.77659769273026 72.6227797106757 72.37667093938839 72.03827137886833 71.85368980040286 71.60758102911555 71.42299945065005 71.26918146859549 70.90001831166452 70.71543673319906 70.46932796191174 70.22321919062442 70.03863761215894 69.73100164804981 69.54642006958431 69.23878410547519 68.93114814136604 68.68503937007873 68.40816700238051 68.06976744186046 67.85442226698407 67.39296832082036 67.14685954953305 66.93151437465664 66.50082402490386 66.25471525361655 65.9163156930965 65.60867972898737 65.39333455411096 65.11646218641275 64.93188060794725 64.68577183665994 64.37813587255081 64.19355429408533 63.916681926387106 63.670573155099795 63.4552279802234 63.20911920893609 63.024537630470604 62.80919245559421 62.50155649148507 62.31697491301959 62.009338948910454 61.82475737044497 61.45559421351401 61.30177623145944 61.11719465299395 60.80955868888482 60.56344991759751 60.34810474272111 59.978941585790146 59.82512360373558 59.579014832448266 59.332906061160955 59.17908807910639 58.99450650064091 58.71763413294268 58.533052554477194 58.28694378318989 58.1023622047244 57.8562534334371 57.57938106573887 57.39479948727339 57.117927119575164 56.77952755905512 56.502655191356894 56.13349203442593 55.641274491851306 55.21058414209851 54.77989379234572 54.47225782823658 54.16462186412745 53.76469511078557 53.364768357443694 52.99560520051273 52.74949642922542 52.411096868705364 52.103460904596226 51.91887932613075 51.488188976377955 51.30360739791247 51.11902581944699 50.87291704815968 50.71909906610511 50.50375389122871 50.2576451199414 50.134590734297745 49.91924555942135 49.79619117377769 49.673136788134045 49.45779161325764 49.39626442043581 49.24244643838125 49.119392052737595 49.027101263504846 48.93481047427211 48.84251968503936 48.75022889580663 48.59641091375206 48.411829335286576 48.165720563999265 48.04266617835561 47.88884819630104 47.64273942501373 47.48892144295917 47.212049075260936 46.904413111151804 46.71983153268632 46.47372276139901 46.16608679728987 45.98150521882439 45.643105658304336 45.48928767624977 45.3354696941952 45.12012451931881 44.90477934444241 44.75096136238784 44.4433253982787 44.28950741622413 44.04339864493682 43.85881706647134 43.67423548800586 43.39736312030763 43.24354513825307 42.966672770554844 42.75132759567845 42.59750961362388 42.32063724592565 42.13605566746017 41.797656106940124 41.61307452847464 41.42849295000916 41.15162058231093 40.87474821461271 40.690166636147225 40.444057864859914 40.16718549716169 40.01336751510712 39.7364951474089 39.55191356894342 39.15198681560154 38.81358725508149 38.629005676616 38.321369712506865 38.10602453763047 37.798388573521336 37.4907526094122 37.2754074345358 36.93700787401575 36.62937190990661 36.444790331441126 36.13715436733199 35.9218091924556 35.64493682475737 35.337300860648234 35.029664896539096 34.84508331807361 34.475920161142646 34.32210217908808 34.19904779344442 34.10675700421168 33.95293902215711 33.79912104010255 33.7068302508698 33.58377586522615 33.55301226881524 33.49148507599341 33.42995788317158 33.368430690349754 33.30690349752793 33.214612708295185 33.15308551547336 33.0300311298297 32.968503937007874 32.906976744186046 32.75315876213148 32.660867972898735 32.568577183665994 32.38399560520051 32.260941219556855 32.107123237502286 31.95330525544772 31.737960080571323 31.614905694927668 31.584142098516754 31.491851309284012 31.491851309284012 31.461087712873102 31.399560520051274 31.399560520051274 31.307269730818533 31.245742537996705 31.184215345174877 31.030397363120308 30.87657938106574 30.753524995422083 30.5689434169566 30.415125434902034 30.23054385643655 30.045962277971068 29.799853506683757 29.73832631386193 29.73832631386193 29.707562717451015 29.707562717451015 29.707562717451015 29.6767991210401 29.646035524629188 29.615271928218274 29.58450833180736 29.553744735396446 29.522981138985532 29.49221754257462 29.461453946163708 29.430690349752794 29.430690349752794 29.39992675334188 29.369163156930966 29.369163156930966 29.369163156930966 29.338399560520052 29.338399560520052 29.30763596410914 29.30763596410914 29.276872367698225 29.276872367698225 29.276872367698225 29.276872367698225 29.24610877128731 29.24610877128731 29.24610877128731 29.24610877128731 29.24610877128731 29.24610877128731 29.24610877128731 29.215345174876397 29.215345174876397 29.215345174876397 29.215345174876397 29.184581578465483 29.184581578465483 29.184581578465483 29.184581578465483 29.15381798205457 29.15381798205457 29.15381798205457 29.15381798205457 29.15381798205457 29.15381798205457 29.15381798205457 29.15381798205457 29.15381798205457 29.15381798205457 29.15381798205457 29.123054385643655 29.123054385643655 29.123054385643655 29.123054385643655 29.09229078923274 29.09229078923274 29.09229078923274 29.09229078923274 29.09229078923274 29.09229078923274 29.061527192821828 29.09229078923274 29.09229078923274 29.061527192821828 29.09229078923274 29.061527192821828 29.061527192821828 29.061527192821828 29.061527192821828 29.061527192821828 29.061527192821828 29.061527192821828 29.061527192821828 29.061527192821828 29.061527192821828 29.061527192821828 29.061527192821828 29.061527192821828 29.061527192821828 29.061527192821828 29.061527192821828 29.061527192821828 29.061527192821828 29.061527192821828 29.061527192821828 29.061527192821828 29.061527192821828 29.061527192821828 29.030763596410914 29.061527192821828 29.061527192821828 29.061527192821828 29.030763596410914 29.030763596410914 29.030763596410914 29.030763596410914 29.030763596410914 29.030763596410914 29.030763596410914 29.0 29.030763596410914 29.030763596410914 29.0 29.030763596410914 29.0 29.0 29.0 29.0 29.0 29.0 29.0 29.0 29.0 29.0 29.0 29.0 29.030763596410914 29.0 29.0 29.0 29.030763596410914 29.0 29.0 29.0 29.0 29.0 29.0 29.0 29.0 29.0 29.0 29.0 29.0 29.0 29.0 29.0 29.0 29.0 29.0 29.0 29.0 29.0 29.0 29.0 29.0 29.0 29.0 29.0 29.0 29.0 29.0 29.0 29.0 28.969236403589086 29.0 28.969236403589086 28.969236403589086 28.969236403589086 28.969236403589086 29.0 28.969236403589086 28.969236403589086 28.969236403589086 28.969236403589086 28.969236403589086 28.969236403589086 28.969236403589086 28.969236403589086 28.969236403589086 28.969236403589086 28.969236403589086 28.969236403589086 28.969236403589086 28.969236403589086 28.969236403589086 28.969236403589086 28.969236403589086 28.969236403589086 28.969236403589086 28.969236403589086 28.969236403589086 28.969236403589086 28.969236403589086 28.969236403589086 28.969236403589086 28.969236403589086 28.969236403589086 28.969236403589086 28.969236403589086 28.969236403589086 28.969236403589086 28.969236403589086 28.969236403589086 28.969236403589086 28.969236403589086 28.969236403589086 28.969236403589086 28.969236403589086 28.969236403589086 28.969236403589086 28.969236403589086 28.969236403589086 28.969236403589086 28.969236403589086 28.969236403589086 28.969236403589086 28.969236403589086 28.969236403589086 28.969236403589086 28.969236403589086 28.969236403589086 28.969236403589086 28.969236403589086 28.969236403589086 28.938472807178172 28.969236403589086 28.969236403589086 28.938472807178172 28.969236403589086 28.969236403589086 28.938472807178172 28.938472807178172 28.938472807178172 28.938472807178172 28.969236403589086 28.969236403589086 28.969236403589086 28.969236403589086 28.938472807178172 28.969236403589086 28.969236403589086 28.969236403589086 28.969236403589086 28.969236403589086 28.969236403589086 28.969236403589086 28.969236403589086 28.969236403589086 28.969236403589086 28.969236403589086 28.938472807178172 28.938472807178172 28.969236403589086 28.969236403589086 28.969236403589086 28.969236403589086 28.969236403589086 28.969236403589086 28.969236403589086 28.969236403589086 28.938472807178172 28.938472807178172 28.938472807178172 28.969236403589086 28.938472807178172 28.969236403589086 28.969236403589086 28.938472807178172 28.969236403589086 28.969236403589086 28.969236403589086 28.969236403589086 28.969236403589086 28.938472807178172 28.969236403589086 28.969236403589086 28.969236403589086 28.969236403589086 28.969236403589086 28.969236403589086 28.969236403589086 28.938472807178172 28.969236403589086 28.969236403589086 28.969236403589086 28.969236403589086 28.969236403589086 28.969236403589086 28.969236403589086 28.969236403589086 28.938472807178172 28.969236403589086 28.969236403589086 28.969236403589086 28.938472807178172 28.969236403589086 28.938472807178172 28.938472807178172 28.969236403589086 28.969236403589086 28.969236403589086 28.938472807178172 28.969236403589086 28.938472807178172 28.969236403589086 28.938472807178172 28.969236403589086 28.969236403589086 28.938472807178172 28.969236403589086 28.938472807178172 28.938472807178172 28.969236403589086 28.969236403589086 28.938472807178172 28.938472807178172 28.969236403589086 28.969236403589086 28.969236403589086 28.969236403589086 28.938472807178172 28.938472807178172 28.969236403589086 28.938472807178172 28.969236403589086 28.969236403589086 28.969236403589086 28.938472807178172 28.969236403589086 28.969236403589086 28.938472807178172 28.938472807178172 28.938472807178172 28.969236403589086 28.938472807178172 28.969236403589086 28.969236403589086 28.938472807178172 28.938472807178172 28.969236403589086 28.969236403589086 28.969236403589086 28.969236403589086 28.969236403589086 28.969236403589086 28.938472807178172 28.969236403589086 28.938472807178172 28.938472807178172 28.938472807178172 28.969236403589086 28.969236403589086 28.969236403589086 28.938472807178172 28.938472807178172 28.969236403589086 28.969236403589086 28.938472807178172 28.938472807178172 28.938472807178172 28.969236403589086 28.938472807178172 28.938472807178172 28.938472807178172 28.938472807178172 28.938472807178172 28.938472807178172 28.938472807178172 28.969236403589086 28.938472807178172 28.969236403589086 28.938472807178172 28.969236403589086 28.938472807178172 28.969236403589086 28.938472807178172 28.938472807178172 28.938472807178172 28.938472807178172 28.938472807178172 28.938472807178172 28.938472807178172 28.938472807178172 28.938472807178172 28.969236403589086 28.969236403589086 28.938472807178172 28.938472807178172 28.969236403589086 28.969236403589086 28.938472807178172 28.938472807178172 28.938472807178172 28.938472807178172 28.938472807178172 28.969236403589086 28.938472807178172 28.938472807178172 28.938472807178172 28.938472807178172 28.969236403589086 28.969236403589086 28.969236403589086 28.938472807178172 28.969236403589086 28.938472807178172 28.969236403589086 28.969236403589086 28.938472807178172 28.969236403589086 28.938472807178172 28.938472807178172 28.938472807178172 28.969236403589086 28.938472807178172 28.938472807178172 28.938472807178172 28.938472807178172 28.969236403589086 28.969236403589086 28.938472807178172 28.938472807178172 28.938472807178172 28.938472807178172 28.938472807178172 28.938472807178172 28.938472807178172 28.938472807178172 28.938472807178172 28.938472807178172 28.938472807178172 28.938472807178172 28.938472807178172 28.938472807178172 28.938472807178172 28.938472807178172 28.938472807178172 28.938472807178172 28.938472807178172 28.938472807178172 28.938472807178172 28.938472807178172 28.938472807178172 28.938472807178172 28.938472807178172 28.938472807178172 28.938472807178172 28.938472807178172 28.938472807178172 28.938472807178172 28.938472807178172 28.938472807178172 28.938472807178172 28.938472807178172 28.938472807178172 28.938472807178172 28.938472807178172 28.938472807178172 28.938472807178172 28.938472807178172 28.938472807178172 28.90770921076726 28.90770921076726 28.90770921076726 28.90770921076726 28.90770921076726 28.90770921076726 28.938472807178172 28.938472807178172 28.90770921076726 28.90770921076726 28.90770921076726 28.90770921076726 28.90770921076726 28.90770921076726 28.90770921076726 28.90770921076726 28.90770921076726 28.90770921076726 28.90770921076726 28.90770921076726 28.90770921076726 28.90770921076726 28.90770921076726 28.90770921076726 28.90770921076726 28.938472807178172 28.90770921076726 28.90770921076726 28.90770921076726 28.90770921076726 28.90770921076726 28.90770921076726 28.90770921076726 28.90770921076726 28.90770921076726 28.90770921076726 28.90770921076726 28.90770921076726 28.90770921076726 28.90770921076726 28.90770921076726 28.90770921076726 28.90770921076726 28.90770921076726 28.90770921076726 28.90770921076726 28.90770921076726 28.90770921076726 28.90770921076726 28.90770921076726 28.90770921076726 28.90770921076726 28.90770921076726 28.90770921076726 28.90770921076726 28.90770921076726 28.90770921076726 28.90770921076726 28.90770921076726 28.90770921076726 28.90770921076726 28.90770921076726 28.90770921076726 28.90770921076726 28.90770921076726 28.90770921076726 28.90770921076726 28.90770921076726 28.90770921076726 28.90770921076726 28.90770921076726 28.90770921076726 28.90770921076726 28.90770921076726 28.90770921076726 28.90770921076726 28.90770921076726 28.90770921076726 28.90770921076726 28.90770921076726 28.90770921076726 28.90770921076726 28.90770921076726 28.90770921076726 28.90770921076726 28.90770921076726 28.90770921076726 28.90770921076726 28.90770921076726 28.90770921076726 28.90770921076726 28.90770921076726 28.90770921076726 28.90770921076726 28.90770921076726 28.90770921076726 28.90770921076726 28.90770921076726 28.90770921076726 28.90770921076726 28.90770921076726 28.90770921076726 28.90770921076726 28.90770921076726 28.90770921076726 28.90770921076726 28.90770921076726 28.90770921076726 28.90770921076726 28.90770921076726 28.90770921076726 28.90770921076726 28.90770921076726 28.90770921076726 28.90770921076726 28.938472807178172 28.90770921076726 28.90770921076726 28.90770921076726 28.90770921076726 28.90770921076726 28.90770921076726 28.90770921076726 28.90770921076726 28.90770921076726 28.90770921076726 28.90770921076726 28.90770921076726 28.90770921076726 28.90770921076726 28.90770921076726 28.90770921076726 28.90770921076726 28.90770921076726 28.90770921076726 28.90770921076726 28.90770921076726 28.90770921076726 28.90770921076726 28.90770921076726 28.90770921076726 28.90770921076726 28.90770921076726 28.90770921076726 28.90770921076726 28.90770921076726 28.90770921076726 28.90770921076726 28.90770921076726 28.90770921076726 28.90770921076726 28.90770921076726 28.90770921076726 28.90770921076726 28.90770921076726 28.90770921076726 28.90770921076726 28.90770921076726 28.90770921076726 28.90770921076726 28.90770921076726 28.90770921076726 28.90770921076726 28.90770921076726 28.90770921076726 28.90770921076726 28.90770921076726 28.90770921076726 28.90770921076726 28.90770921076726 28.90770921076726 28.90770921076726 28.90770921076726 28.90770921076726 28.90770921076726 28.90770921076726 28.90770921076726 28.90770921076726 28.90770921076726 28.90770921076726 28.90770921076726 28.90770921076726 28.90770921076726 28.90770921076726 28.90770921076726 28.90770921076726 28.90770921076726 28.90770921076726 28.90770921076726 28.90770921076726 28.90770921076726 28.90770921076726 28.90770921076726 28.90770921076726 28.90770921076726 28.90770921076726 28.90770921076726 28.90770921076726 28.90770921076726 28.90770921076726 28.90770921076726 28.90770921076726 28.90770921076726 28.90770921076726 28.90770921076726 28.90770921076726 28.90770921076726 28.90770921076726 28.90770921076726 28.90770921076726 28.90770921076726 28.90770921076726 28.90770921076726 28.90770921076726 28.90770921076726 28.90770921076726 28.90770921076726 28.90770921076726 28.90770921076726 28.90770921076726 28.90770921076726 28.90770921076726 28.90770921076726 28.876945614356345 28.90770921076726 28.90770921076726 28.90770921076726 28.90770921076726 28.90770921076726 28.90770921076726 28.90770921076726 28.90770921076726 28.90770921076726 28.90770921076726 28.90770921076726 28.90770921076726 28.90770921076726 28.90770921076726 28.90770921076726 28.876945614356345 28.90770921076726 28.90770921076726 28.90770921076726 28.876945614356345 28.90770921076726 28.90770921076726 28.90770921076726 28.90770921076726 28.90770921076726 28.90770921076726 28.90770921076726 28.90770921076726 28.90770921076726 28.90770921076726 28.876945614356345 28.90770921076726 28.90770921076726 28.90770921076726 28.90770921076726 28.90770921076726 28.90770921076726 28.90770921076726 28.90770921076726 28.90770921076726 28.90770921076726 28.90770921076726 28.90770921076726 28.90770921076726 28.90770921076726 28.876945614356345 28.90770921076726 28.90770921076726 28.90770921076726 28.90770921076726 28.90770921076726 28.90770921076726 28.876945614356345 28.876945614356345 28.90770921076726 28.876945614356345 28.90770921076726 28.876945614356345 28.876945614356345 28.90770921076726 28.876945614356345 28.876945614356345 28.876945614356345 28.90770921076726 28.90770921076726 28.876945614356345 28.876945614356345 28.90770921076726 28.876945614356345 28.876945614356345 28.876945614356345 28.876945614356345 28.876945614356345 28.876945614356345 28.876945614356345 28.876945614356345 28.876945614356345 28.876945614356345 28.90770921076726 28.90770921076726 28.876945614356345 28.90770921076726 28.876945614356345 28.876945614356345 28.876945614356345 28.876945614356345 28.876945614356345 28.876945614356345 28.876945614356345 28.876945614356345 28.90770921076726 28.876945614356345 28.90770921076726 28.876945614356345 28.876945614356345 28.90770921076726 28.876945614356345 28.876945614356345 28.90770921076726 28.876945614356345 28.876945614356345 28.876945614356345 28.876945614356345 28.876945614356345 28.876945614356345 28.90770921076726 28.90770921076726 28.876945614356345 28.876945614356345 28.876945614356345 28.876945614356345 28.876945614356345 28.876945614356345 28.90770921076726 28.90770921076726 28.876945614356345 28.876945614356345 28.876945614356345 28.90770921076726 28.876945614356345 28.876945614356345 28.876945614356345 28.876945614356345 28.876945614356345 28.876945614356345 28.876945614356345 28.876945614356345 28.90770921076726 28.876945614356345 28.90770921076726 28.876945614356345 28.876945614356345 28.876945614356345 28.90770921076726 28.876945614356345 28.876945614356345 28.876945614356345 28.876945614356345 28.876945614356345 28.876945614356345 28.90770921076726 28.876945614356345 28.876945614356345 28.876945614356345 28.876945614356345 28.876945614356345 28.876945614356345 28.90770921076726 28.876945614356345 28.876945614356345 28.876945614356345 28.876945614356345 28.876945614356345 28.876945614356345 28.876945614356345 28.876945614356345 28.876945614356345 28.876945614356345 28.876945614356345 28.876945614356345 28.90770921076726 28.876945614356345 28.876945614356345 28.876945614356345 28.90770921076726 28.876945614356345 28.876945614356345 28.876945614356345 28.90770921076726 28.90770921076726 28.90770921076726 28.90770921076726 28.90770921076726 28.90770921076726 28.90770921076726 28.938472807178172 28.938472807178172 28.969236403589086 28.969236403589086 28.969236403589086 28.969236403589086 28.969236403589086 28.969236403589086 29.0 28.969236403589086 29.0 28.969236403589086 29.0 29.0 28.969236403589086 29.0 28.969236403589086 28.969236403589086 28.969236403589086 28.969236403589086 29.0 28.969236403589086 28.969236403589086 28.969236403589086 29.0 28.969236403589086 28.969236403589086 28.969236403589086 28.969236403589086 28.969236403589086 28.969236403589086 28.969236403589086 28.969236403589086 28.969236403589086 28.969236403589086 28.969236403589086 28.969236403589086 28.969236403589086 28.969236403589086 28.969236403589086 28.969236403589086 28.969236403589086 28.969236403589086 28.969236403589086 28.969236403589086 28.969236403589086 28.969236403589086 28.969236403589086 28.969236403589086 28.969236403589086 29.0 28.969236403589086 28.969236403589086 28.969236403589086 28.969236403589086 28.969236403589086 28.969236403589086 28.969236403589086 28.969236403589086 28.969236403589086 28.969236403589086 28.969236403589086 28.969236403589086 28.969236403589086 28.969236403589086 28.969236403589086 28.969236403589086 28.969236403589086 28.969236403589086 28.969236403589086 28.969236403589086 28.969236403589086 28.969236403589086 28.969236403589086 28.969236403589086 28.969236403589086 28.969236403589086 28.969236403589086 28.969236403589086 28.969236403589086 28.969236403589086 28.969236403589086 28.969236403589086 28.969236403589086 28.969236403589086 28.969236403589086 28.969236403589086 28.969236403589086 28.969236403589086 28.969236403589086 28.969236403589086 28.969236403589086 28.969236403589086 28.969236403589086 28.969236403589086 28.969236403589086 28.969236403589086 28.969236403589086 28.969236403589086 28.969236403589086 28.969236403589086 28.969236403589086 28.969236403589086 28.969236403589086 29.0 29.030763596410914 29.030763596410914 29.061527192821828 29.09229078923274 29.09229078923274 29.123054385643655 29.15381798205457 29.215345174876397 29.24610877128731 29.30763596410914 29.338399560520052 29.338399560520052 29.369163156930966 29.369163156930966 29.39992675334188 29.430690349752794 29.522981138985532 29.646035524629188 29.73832631386193 29.861380699505585 29.98443508514924 30.07672587438198 30.199780260025637 30.38436183849112 30.66123420618934 30.753524995422083 30.907342977476652 31.12268815235305 31.307269730818533 31.614905694927668 31.95330525544772 32.29170481596777 32.75315876213148 33.060794726240616 33.39919428676067 33.76835744369163 34.137520600622594 34.72202893242996 35.12195568577184 35.64493682475737 36.22944515656473 36.598608313495696 37.459989013001284 37.82915216993224 38.44442409815052 39.121223219190625 39.61344076176525 40.38253067203809 41.05932979307819 41.82841970335103 42.53598242080205 43.028199963376665 43.48965390954038 44.227980223402305 44.75096136238784 45.67386925471526 46.350668375755355 46.81212232191906 47.519685039370074 48.011902581944696 48.565647317341146 49.18091924555942 49.61160959531221 50.22688152353049 50.81138985533785 51.242080205090645 51.79582494048709 52.38033327229445 52.718732832814496 53.27247756821095 53.610877128731005 54.13385826771653 54.626075810291155 55.179820545687605 55.70280168467313 56.0719648416041 56.441127998535066 56.87181834828786 57.39479948727339 57.73319904779344 58.37923457242263 58.71763413294268 59.24061527192821 59.67130562168101 60.132759567844715 60.62497711041934 60.994140267350296 61.45559421351401 61.947811756088626 62.255447720197765 62.901483244826956 63.14759201611426 63.516755173045226 64.00897271561985 64.50119025819447 64.87035341512544 65.33180736128914 65.63944332539828 66.31624244643838 66.62387841054752 66.99304156747849 67.42373191723127 67.76213147775132 68.3466398095587 68.68503937007873 69.08496612342061 69.51565647317341 69.85405603369347 70.13092840139169 70.50009155832265 70.8384911188427 71.20765427577366 71.45376304706097 71.76139901117011 72.06903497527925 72.28438015015564 72.6227797106757 72.96117927119576 73.23805163889398 73.60721479582494 74.00714154916682 74.40706830250869 74.80699505585056 75.11463101995972 75.57608496612343 75.91448452664346 76.43746566562899 76.96044680461453 77.36037355795642 77.91411829335286 78.52939022157113 78.99084416773485 79.60611609595313 80.2213880241714 80.65207837392418 81.5749862662516 81.8210950375389 82.43636696575717 83.39003845449551 83.88225599707013 84.55905511811024 84.98974546786303 85.45119941402672 86.066471342245 86.4971616919978 87.23548800585974 87.75846914484526 88.15839589818714 88.65061344076176 88.95824940487088 89.23512177256913 89.72733931514375 89.97344808643106 90.28108405054019 90.65024720747115 90.89635597875846 91.17322834645668 91.4501007141549 91.6654458890313 91.91155466031861 92.09613623878411 92.34224501007142 92.58835378135873 92.80369895623511 93.04980772752243 93.14209851675518 93.38820728804248 93.63431605932979 93.81889763779527 94.12653360190441 94.3418787767808 94.52646035524629 94.74180553012269 94.92638710858817 95.04944149423183 95.38784105475187 95.57242263321736 95.81853140450467 96.03387657938107 96.18769456143563 96.40303973631202 96.49533052554477 96.71067570042116 96.89525727888665 96.98754806811938 97.17212964658486 97.32594762863944 97.41823841787217 97.57205639992675 97.63358359274858 97.6951107855704 97.75663797839223 97.84892876762497 97.87969236403589 97.9104559604468 97.94121955685772 97.97198315326862 97.97198315326862 97.97198315326862 98.00274674967955 97.97198315326862 98.00274674967955 97.97198315326862 97.97198315326862 97.97198315326862 97.97198315326862 97.97198315326862 97.97198315326862 97.97198315326862 97.97198315326862 97.97198315326862 97.94121955685772 97.97198315326862 97.97198315326862 97.94121955685772 97.94121955685772 97.94121955685772 97.94121955685772 97.94121955685772 97.94121955685772 97.94121955685772 97.94121955685772 97.94121955685772 97.94121955685772 97.94121955685772 97.94121955685772 97.94121955685772 97.9104559604468 97.87969236403589 97.87969236403589 97.84892876762497 97.84892876762497 97.81816517121406 97.78740157480314 97.78740157480314 97.75663797839223 97.75663797839223 97.75663797839223 97.75663797839223 97.75663797839223 97.75663797839223 97.75663797839223 97.75663797839223 97.75663797839223 97.72587438198131 97.75663797839223 97.72587438198131 97.72587438198131 97.72587438198131 97.72587438198131 97.72587438198131 97.6951107855704 97.72587438198131 97.6951107855704 97.66434718915949 97.66434718915949 97.66434718915949 97.63358359274858 97.63358359274858 97.60281999633766 97.60281999633766 97.60281999633766 97.54129280351584 97.54129280351584 97.479765610694 97.4490020142831 97.41823841787217 97.41823841787217 97.35671122505035 97.32594762863944 97.29518403222852 97.26442043581761 97.2336568394067 97.2336568394067 97.2028932429958 97.2028932429958 97.17212964658486 97.17212964658486 97.14136605017396 97.14136605017396 97.14136605017396 97.11060245376305 97.11060245376305 97.11060245376305 97.11060245376305 97.11060245376305 97.07983885735214 97.07983885735214 97.07983885735214 97.07983885735214 97.07983885735214 97.04907526094121 97.04907526094121 97.04907526094121 97.04907526094121 97.04907526094121 97.04907526094121 97.07983885735214 97.04907526094121 97.04907526094121 97.07983885735214 97.04907526094121 97.07983885735214 97.07983885735214 97.04907526094121 97.07983885735214 97.07983885735214 97.04907526094121 97.07983885735214 97.04907526094121 97.07983885735214 97.04907526094121 97.04907526094121 97.04907526094121 97.04907526094121 97.04907526094121 97.0183116645303 97.04907526094121 96.98754806811938 96.98754806811938 96.98754806811938 96.95678447170847 96.92602087529755 96.92602087529755 96.86449368247573 96.86449368247573 96.83373008606482 96.80296648965391 96.80296648965391 96.74143929683207 96.74143929683207 96.71067570042116 96.67991210401026 96.67991210401026 96.67991210401026 96.71067570042116 96.67991210401026 96.67991210401026 96.67991210401026 96.67991210401026 96.67991210401026 96.71067570042116 96.67991210401026 96.67991210401026 96.71067570042116 96.71067570042116 96.67991210401026 96.67991210401026 96.67991210401026 96.67991210401026 96.71067570042116 96.67991210401026 96.67991210401026 96.67991210401026 96.67991210401026 96.67991210401026 96.67991210401026 96.67991210401026 96.67991210401026 96.67991210401026 96.67991210401026 96.67991210401026 96.67991210401026 96.67991210401026 96.67991210401026 96.67991210401026 96.67991210401026 96.67991210401026 96.67991210401026 96.67991210401026 96.67991210401026 96.64914850759935 96.61838491118841 96.61838491118841 96.58762131477751 96.61838491118841 96.58762131477751 96.58762131477751 96.58762131477751 96.58762131477751 96.55685771836659 96.55685771836659 96.55685771836659 96.52609412195568 96.49533052554477 96.49533052554477 96.43380333272293 96.46456692913387 96.43380333272293 96.43380333272293 96.43380333272293 96.43380333272293 96.43380333272293 96.40303973631202 96.43380333272293 96.43380333272293 96.43380333272293 96.43380333272293 96.40303973631202 96.40303973631202 96.43380333272293 96.40303973631202 96.40303973631202 96.43380333272293 96.43380333272293 96.40303973631202 96.43380333272293 96.43380333272293 96.43380333272293 96.43380333272293 96.43380333272293 96.43380333272293 96.43380333272293 96.43380333272293 96.43380333272293 96.43380333272293 96.40303973631202 96.43380333272293 96.43380333272293 96.43380333272293 96.40303973631202 96.37227613990112 96.37227613990112 96.37227613990112 96.37227613990112 96.34151254349021 96.34151254349021 96.34151254349021 96.34151254349021 96.31074894707928 96.34151254349021 96.34151254349021 96.34151254349021 96.34151254349021 96.34151254349021 96.34151254349021 96.34151254349021 96.31074894707928 96.31074894707928 96.31074894707928 96.31074894707928 96.31074894707928 96.31074894707928 96.31074894707928 96.31074894707928 96.31074894707928 96.31074894707928 96.31074894707928 96.34151254349021 96.34151254349021 96.34151254349021 96.31074894707928 96.34151254349021 96.31074894707928 96.31074894707928 96.31074894707928 96.31074894707928 96.31074894707928 96.34151254349021 96.31074894707928 96.31074894707928 96.31074894707928 96.31074894707928 96.34151254349021 96.31074894707928 96.31074894707928 96.31074894707928 96.31074894707928 96.31074894707928 96.31074894707928 96.31074894707928 96.31074894707928 96.31074894707928 96.31074894707928 96.31074894707928 96.31074894707928 96.31074894707928 96.31074894707928 96.27998535066837 96.27998535066837 96.27998535066837 96.27998535066837 96.27998535066837 96.27998535066837 96.24922175425746 96.27998535066837 96.27998535066837 96.27998535066837 96.31074894707928 96.27998535066837 96.27998535066837 96.27998535066837 96.31074894707928 96.31074894707928 96.31074894707928 96.27998535066837 96.31074894707928 96.31074894707928 96.27998535066837 96.31074894707928 96.27998535066837 96.27998535066837 96.27998535066837 96.27998535066837 96.27998535066837 96.24922175425746 96.27998535066837 96.24922175425746 96.27998535066837 96.24922175425746 96.24922175425746 96.18769456143563 96.1261673686138 96.06464017579198 96.00311298297014 95.94158579014832 95.8800585973265 95.72624061527193 95.63394982603918 95.51089544039553 95.38784105475187 95.29555026551914 95.17249587987548 95.08020509064274 95.01867789782091 94.89562351217725 94.86485991576635 94.7725691265336 94.74180553012269 94.71104193371177 94.71104193371177 94.71104193371177 94.71104193371177 94.68027833730086 94.68027833730086 94.64951474088994 94.64951474088994 94.58798754806811 94.5572239516572 94.46493316242446 94.3418787767808 94.12653360190441 93.88042483061712 93.72660684856253 93.51126167368614 93.32668009522065 92.83446255264604 92.68064457059145 92.31148141366049 91.88079106390771 91.54239150338765 91.05017396081303 90.3118476469511 90.12726606848562 89.66581212232191 89.32741256180186 89.01977659769273 88.55832265152901 88.21992309100898 87.57388756637978 87.11243362021608 86.74327046328511 86.22028932429959 85.88188976377953 85.42043581761581 84.89745467863028 84.49752792528841 84.0360739791247 83.48232924372826 83.1439296832082 82.4671305621681 82.12873100164805 81.8210950375389 81.39040468778612 81.08276872367698 80.68284197033509 80.28291521699322 79.88298846365134 79.51382530672038 79.26771653543307 79.02160776414576 78.68320820362571 78.31404504669473 78.06793627540742 77.63724592565464 77.39113715436733 77.02197399743636 76.77586522614905 76.46822926203993 76.09906610510895 75.79143014099981 75.48379417689067 75.23768540560337 74.89928584508331 74.49935909174144 74.25325032045413 73.82255997070132 73.48416041018129 73.20728804248306 72.80736128914117 72.49972532503205 72.13056216810108 71.60758102911555 71.33070866141732 71.05383629371909 70.68467313678812 70.31550997985717 69.9463468229262 69.66947445522797 69.300311298297 68.93114814136604 68.65427577366782 68.1620582310932 67.94671305621681 67.66984068851858 67.30067753158761 66.93151437465664 66.65464200695843 66.31624244643838 66.03937007874015 65.63944332539828 65.2395165720564 64.96264420435817 64.53195385460538 64.1012635048526 63.60904596227797 63.14759201611426 62.77842885918329 62.28621131660868 61.947811756088626 61.57864859915766 60.87108588170665 60.50192272477568 59.94817798937923 59.363669657571876 58.96374290422999 58.44076176524446 57.917780626258924 57.57938106573887 57.14869071598608 56.841054751876946 56.441127998535066 55.91814685954953 55.67203808826222 55.425929316974916 55.087529756454856 54.841420985167545 54.47225782823658 54.0415674784838 53.610877128731005 53.21095037538912 52.9340780076909 52.53415125434902 52.34956967588353 51.85735213330892 51.457425379967034 51.211316608679724 50.842153451748764 50.50375389122871 50.288408716352315 49.888481963010435 49.70390038454495 49.55008240249039 49.30397363120308 49.1501556491485 48.873283281450284 48.50412012451932 48.35030214246475 48.104193371177445 47.91961179271196 47.765793810657385 47.550448635780995 47.39663065372642 47.08899468961728 46.87364951474089 46.71983153268632 46.504486357809924 46.350668375755355 46.13532320087896 45.950741622413474 45.79692364035891 45.5508148690716 45.3354696941952 45.15088811572972 44.935542940853324 44.781724958798755 44.474088994689616 44.19721662699139 43.981871452114994 43.67423548800586 43.366599523896724 43.18201794543124 42.75132759567845 42.53598242080205 42.28987364951474 42.013001281816514 41.7668925105292 41.42849295000916 40.997802600256364 40.78245742537997 40.444057864859914 40.136421900750776 39.921076725874386 39.61344076176525 39.367331990477936 39.09045962277971 38.78282365867057 38.53671488738326 38.22907892327412 37.98297015198681 37.61380699505585 37.2754074345358 37.02929866324849 36.66013550631752 36.26020875297564 36.044863578099246 35.67570042116829 35.36806445705915 35.12195568577184 34.8143197216627 34.56821095037539 34.29133858267716 34.10675700421168 33.829884636513455 33.522248672404324 33.30690349752793 33.0300311298297 32.78392235854239 32.660867972898735 32.53781358725508 32.44552279802234 32.32246841237868 32.168650430324114 32.107123237502286 32.014832448269544 31.922541659036806 31.86101446621498 31.768723676982237 31.737960080571323 31.64566929133858 31.614905694927668 31.584142098516754 31.491851309284012 31.461087712873102 31.399560520051274 31.307269730818533 31.245742537996705 31.153451748763963 31.06116095953122 30.96887017029848 30.845815784654825 30.691997802600255 30.599707013367514 30.445889031312948 30.353598242080206 30.169016663614723 29.83061710309467 29.769089910272843 29.6767991210401 29.6767991210401 29.646035524629188 29.553744735396446 29.49221754257462 29.430690349752794 29.39992675334188 29.338399560520052 29.30763596410914 29.24610877128731 29.215345174876397 29.184581578465483 29.215345174876397 29.184581578465483 29.184581578465483 29.184581578465483 29.184581578465483 29.184581578465483 29.15381798205457 29.15381798205457 29.123054385643655 29.123054385643655 29.09229078923274 29.09229078923274 29.09229078923274 29.09229078923274 29.09229078923274 29.09229078923274 29.09229078923274 29.09229078923274 29.061527192821828 29.09229078923274 29.09229078923274 29.061527192821828 29.09229078923274 29.061527192821828 29.061527192821828 29.061527192821828 29.061527192821828 29.061527192821828 29.061527192821828 29.061527192821828 29.061527192821828 29.061527192821828 29.061527192821828 29.061527192821828 29.061527192821828 29.061527192821828 29.061527192821828 29.061527192821828 29.061527192821828 29.061527192821828 29.061527192821828 29.061527192821828 29.061527192821828 29.061527192821828 29.061527192821828 29.061527192821828 29.061527192821828 29.061527192821828 29.061527192821828 29.061527192821828 29.061527192821828 29.061527192821828 29.061527192821828 29.061527192821828 29.061527192821828 29.061527192821828 29.061527192821828 29.061527192821828 29.061527192821828 29.030763596410914 29.061527192821828 29.061527192821828 29.061527192821828 29.061527192821828 29.061527192821828 29.061527192821828 29.061527192821828 29.061527192821828 29.061527192821828 29.030763596410914 29.061527192821828 29.030763596410914 29.061527192821828 29.030763596410914 29.061527192821828 29.061527192821828 29.061527192821828 29.061527192821828 29.061527192821828 29.061527192821828 29.061527192821828 29.061527192821828 29.061527192821828 29.061527192821828 29.061527192821828 29.030763596410914 29.061527192821828 29.061527192821828 29.061527192821828 29.030763596410914 29.030763596410914 29.061527192821828 29.030763596410914 29.030763596410914 29.061527192821828 29.030763596410914 29.030763596410914 29.061527192821828 29.061527192821828 29.030763596410914 29.030763596410914 29.061527192821828 29.061527192821828 29.030763596410914 29.061527192821828 29.061527192821828 29.061527192821828 29.061527192821828 29.061527192821828 29.061527192821828 29.061527192821828 29.030763596410914 29.061527192821828 29.061527192821828 29.061527192821828 29.030763596410914 29.061527192821828 29.061527192821828 29.061527192821828 29.061527192821828 29.061527192821828 29.061527192821828 29.061527192821828 29.061527192821828 29.061527192821828 29.061527192821828 29.061527192821828 29.061527192821828 29.061527192821828 29.030763596410914 29.061527192821828 29.061527192821828 29.061527192821828 29.061527192821828 29.061527192821828 29.030763596410914 29.030763596410914 29.061527192821828 29.061527192821828 29.061527192821828 29.061527192821828 29.061527192821828 29.030763596410914 29.061527192821828 29.030763596410914 29.061527192821828 29.061527192821828 29.061527192821828 29.061527192821828 29.061527192821828 29.061527192821828 29.030763596410914 29.061527192821828 29.061527192821828 29.061527192821828 29.061527192821828 29.061527192821828 29.030763596410914 29.061527192821828 29.061527192821828 29.061527192821828 29.030763596410914 29.030763596410914 29.061527192821828 29.061527192821828 29.061527192821828 29.061527192821828 29.030763596410914 29.061527192821828 29.061527192821828 29.030763596410914 29.030763596410914 29.061527192821828 29.030763596410914 29.030763596410914 29.030763596410914 29.030763596410914 29.030763596410914 29.061527192821828 29.061527192821828 29.030763596410914 29.061527192821828 29.030763596410914 29.030763596410914 29.030763596410914 29.030763596410914 29.030763596410914 29.030763596410914 29.030763596410914 29.030763596410914 29.030763596410914 29.061527192821828 29.061527192821828 29.030763596410914 29.061527192821828 29.061527192821828 29.030763596410914 29.030763596410914 29.030763596410914 29.030763596410914 29.030763596410914 29.030763596410914 29.030763596410914 29.030763596410914 29.030763596410914 29.030763596410914 29.030763596410914 29.030763596410914 29.030763596410914 29.030763596410914 29.030763596410914 29.030763596410914 29.030763596410914 29.030763596410914 29.030763596410914 29.030763596410914 29.030763596410914 29.030763596410914 29.030763596410914 29.0 29.030763596410914 29.0 29.0 29.0 29.030763596410914 29.030763596410914 29.0 29.0 29.030763596410914 29.0 29.0 29.0 29.0 29.0 29.0 29.0 29.0 29.0 29.0 29.0 29.0 29.0 29.0 29.0 29.0 29.0 29.0 29.0 29.0 29.0 29.0 29.0 29.0 29.0 29.0 29.0 29.0 29.0 29.0 29.0 28.969236403589086 28.969236403589086 28.969236403589086 28.969236403589086 29.0 28.969236403589086 28.969236403589086 28.969236403589086 29.0 28.969236403589086 28.969236403589086 29.0 29.0 28.969236403589086 28.969236403589086 29.0 28.969236403589086 29.0 28.969236403589086 28.969236403589086 28.969236403589086 28.969236403589086 29.0 29.0 28.969236403589086 28.969236403589086 29.0 28.969236403589086 28.969236403589086 29.0 28.969236403589086 29.0 28.969236403589086 28.969236403589086 28.969236403589086 28.969236403589086 28.969236403589086 28.969236403589086 28.969236403589086 28.969236403589086 28.969236403589086 28.969236403589086 28.969236403589086 28.969236403589086 29.0 28.969236403589086 28.969236403589086 28.969236403589086 28.969236403589086 29.0 29.0 29.0 28.969236403589086 29.0 28.969236403589086 28.969236403589086 28.969236403589086 28.969236403589086 28.969236403589086 29.0 28.969236403589086 28.969236403589086 28.969236403589086 29.0 28.969236403589086 28.969236403589086 28.969236403589086 28.969236403589086 28.969236403589086 28.969236403589086 28.969236403589086 28.969236403589086 28.969236403589086 29.0 29.0 28.969236403589086 28.969236403589086 28.969236403589086 29.0 28.969236403589086 28.969236403589086 29.0 29.0 28.969236403589086 28.969236403589086 28.969236403589086 28.969236403589086 28.969236403589086 29.0 28.969236403589086 28.969236403589086 29.0 28.969236403589086 28.969236403589086 28.969236403589086 28.969236403589086 28.969236403589086 28.969236403589086 28.969236403589086 28.969236403589086 28.969236403589086 28.969236403589086 28.969236403589086 28.969236403589086 28.969236403589086 29.0 28.969236403589086 28.969236403589086 28.969236403589086 29.0 28.969236403589086 29.0 28.969236403589086 28.969236403589086 28.969236403589086 29.0 28.969236403589086 28.969236403589086 28.969236403589086 28.969236403589086 28.969236403589086 29.0 28.969236403589086 28.969236403589086 28.969236403589086 28.969236403589086 28.969236403589086 28.969236403589086 28.969236403589086 28.969236403589086 28.969236403589086 29.0 28.969236403589086 28.969236403589086 28.969236403589086 28.969236403589086 28.969236403589086 28.969236403589086 28.969236403589086 28.969236403589086 28.969236403589086 28.969236403589086 28.969236403589086 28.969236403589086 28.969236403589086 28.969236403589086 28.969236403589086 28.969236403589086 28.969236403589086 28.969236403589086 28.969236403589086 28.969236403589086 28.969236403589086 28.969236403589086 28.969236403589086 28.969236403589086 28.969236403589086 28.969236403589086 28.969236403589086 28.969236403589086 28.969236403589086 28.969236403589086 28.969236403589086 28.969236403589086 28.969236403589086 28.969236403589086 28.938472807178172 28.969236403589086 28.969236403589086 28.969236403589086 28.969236403589086 28.969236403589086 28.969236403589086 28.969236403589086 28.969236403589086 28.969236403589086 28.969236403589086 28.969236403589086 28.969236403589086 28.938472807178172 28.969236403589086 28.969236403589086 28.969236403589086 28.969236403589086 28.969236403589086 28.969236403589086 28.969236403589086 28.969236403589086 28.969236403589086 28.969236403589086 28.969236403589086 28.969236403589086 28.969236403589086 28.938472807178172 28.969236403589086 28.969236403589086 28.969236403589086 28.969236403589086 28.969236403589086 28.969236403589086 28.969236403589086 28.969236403589086 28.969236403589086 28.969236403589086 28.969236403589086 28.969236403589086 28.969236403589086 28.969236403589086 28.969236403589086 28.969236403589086 28.938472807178172 28.969236403589086 28.938472807178172 28.969236403589086 28.969236403589086 28.969236403589086 28.969236403589086 28.969236403589086 28.969236403589086 28.969236403589086 28.969236403589086 28.969236403589086 28.969236403589086 28.969236403589086 28.969236403589086 28.969236403589086 28.969236403589086 28.969236403589086 28.969236403589086 28.969236403589086 28.969236403589086 28.969236403589086 28.969236403589086 28.969236403589086 28.969236403589086 28.969236403589086 28.969236403589086 28.969236403589086 28.969236403589086 28.969236403589086 28.969236403589086 28.969236403589086 28.969236403589086 28.969236403589086 28.969236403589086 28.969236403589086 28.969236403589086 28.969236403589086 28.969236403589086 28.969236403589086 28.969236403589086 28.969236403589086 28.969236403589086 28.969236403589086 28.938472807178172 28.969236403589086 28.969236403589086 28.969236403589086 28.969236403589086 28.969236403589086 28.938472807178172 28.938472807178172 28.969236403589086 28.969236403589086 28.969236403589086 28.969236403589086 28.969236403589086 28.969236403589086 28.969236403589086 28.969236403589086 28.969236403589086 28.969236403589086 28.969236403589086 28.969236403589086 28.969236403589086 28.938472807178172 28.969236403589086 28.969236403589086 28.938472807178172 28.938472807178172 28.969236403589086 28.969236403589086 28.938472807178172 28.969236403589086 28.938472807178172 28.969236403589086 28.969236403589086 28.938472807178172 28.969236403589086 28.938472807178172 28.969236403589086 28.938472807178172 28.969236403589086 28.938472807178172 28.938472807178172 28.969236403589086 28.938472807178172 28.938472807178172 28.969236403589086 28.938472807178172 28.938472807178172 28.938472807178172 28.938472807178172 28.938472807178172 28.938472807178172 28.938472807178172 28.938472807178172 28.938472807178172 28.938472807178172 28.938472807178172 28.938472807178172 28.938472807178172 28.938472807178172 28.938472807178172 28.938472807178172 28.938472807178172 28.938472807178172 28.938472807178172 28.938472807178172 28.938472807178172 28.938472807178172 28.938472807178172 28.938472807178172 28.938472807178172 28.969236403589086 28.938472807178172 28.938472807178172 28.938472807178172 28.938472807178172 28.938472807178172 28.938472807178172 28.938472807178172 28.938472807178172 28.938472807178172 28.938472807178172 28.938472807178172 28.938472807178172 28.938472807178172 28.938472807178172 28.938472807178172 28.938472807178172 28.938472807178172 28.938472807178172 28.938472807178172 28.938472807178172 28.938472807178172 28.938472807178172 28.938472807178172 28.938472807178172 28.938472807178172 28.938472807178172 28.938472807178172 28.938472807178172 28.938472807178172 28.938472807178172 28.938472807178172 28.938472807178172 28.938472807178172 28.938472807178172 28.938472807178172 28.938472807178172 28.938472807178172 28.938472807178172 28.938472807178172 28.938472807178172 28.938472807178172 28.938472807178172 28.938472807178172 28.938472807178172 28.938472807178172 28.938472807178172 28.938472807178172 28.938472807178172 28.938472807178172 28.938472807178172 28.938472807178172 28.938472807178172 28.938472807178172 28.938472807178172 28.938472807178172 28.938472807178172 28.938472807178172 28.938472807178172 28.938472807178172 28.938472807178172 28.938472807178172 28.938472807178172 28.938472807178172 28.938472807178172 28.938472807178172 28.938472807178172 28.938472807178172 28.938472807178172 28.938472807178172 28.938472807178172 28.938472807178172 28.938472807178172 28.938472807178172 28.938472807178172 28.938472807178172 28.938472807178172 28.938472807178172 28.938472807178172 28.938472807178172 28.938472807178172 28.938472807178172 28.938472807178172 28.938472807178172 28.938472807178172 28.938472807178172 28.938472807178172 28.938472807178172 28.938472807178172 28.938472807178172 28.938472807178172 28.938472807178172 28.938472807178172 28.938472807178172 28.938472807178172 28.938472807178172 28.938472807178172 28.938472807178172 28.938472807178172 28.938472807178172 28.938472807178172 28.938472807178172 28.938472807178172 28.938472807178172 28.938472807178172 28.938472807178172 28.938472807178172 28.938472807178172 28.938472807178172 28.938472807178172 28.938472807178172 28.938472807178172 28.938472807178172 28.938472807178172 28.938472807178172 28.938472807178172 28.938472807178172 28.938472807178172 28.938472807178172 28.938472807178172 28.90770921076726 28.90770921076726 28.938472807178172 28.90770921076726 28.938472807178172 28.90770921076726 28.938472807178172 28.90770921076726 28.90770921076726 28.90770921076726 28.90770921076726 28.90770921076726 28.938472807178172 28.938472807178172 28.938472807178172 28.938472807178172 28.938472807178172 28.938472807178172 28.938472807178172 28.938472807178172 28.938472807178172 28.938472807178172 28.938472807178172 28.938472807178172 28.938472807178172 28.938472807178172 28.938472807178172 28.969236403589086 28.969236403589086 28.969236403589086 29.0 29.0 29.0 29.030763596410914 29.030763596410914 29.030763596410914 29.030763596410914 29.061527192821828 29.061527192821828 29.061527192821828 29.061527192821828 29.09229078923274 29.09229078923274 29.123054385643655 29.123054385643655 29.123054385643655 29.15381798205457 29.184581578465483 29.215345174876397 29.276872367698225 29.39992675334188 29.461453946163708 29.49221754257462 29.58450833180736 29.6767991210401 29.769089910272843 29.953671488738326 30.107489470792896 30.169016663614723 30.29207104925838 30.445889031312948 30.66123420618934 30.96887017029848 31.091924555942136 31.245742537996705 31.399560520051274 31.55337850210584 31.768723676982237 31.984068851858634 32.168650430324114 32.3532320087896 32.47628639443325 32.69163156930965 32.87621314777513 33.15308551547336 33.460721479582496 33.73759384728072 34.137520600622594 34.56821095037539 34.84508331807361 35.36806445705915 35.64493682475737 35.9218091924556 36.26020875297564 36.53708112067387 36.96777147042666 37.58304339864493 37.89067936275407 38.38289690532869 38.69053286943783 39.028932429957884 39.49038637612159 39.982603918696206 40.444057864859914 40.843984618201794 41.243911371543675 41.797656106940124 42.16681926387108 42.8743819813221 43.52041750595129 44.04339864493682 44.81248855520967 45.36623329060612 46.13532320087896 47.212049075260936 47.765793810657385 48.319538546053835 48.96557407068302 49.45779161325764 50.19611792711957 50.71909906610511 51.64200695843252 52.34956967588353 52.84178721845816 53.518586339498256 53.980040285661964 54.5030214246475 55.33363852774217 55.85661966672771 56.47189159494598 57.117927119575164 57.54861746932796 58.317707379600805 58.62534334370994 58.96374290422999 59.45596044680461 59.76359641091375 60.22505035707745 60.686504303241165 60.932613074528476 61.48635780992492 61.701702984801315 61.97857535249954 62.31697491301959 62.59384728071782 62.901483244826956 63.33217359457974 63.54751876945614 63.85515473356528 64.19355429408533 64.43966306537264 64.77806262589269 65.0549349935909 65.36257095770006 65.73173411463102 65.97784288591834 66.31624244643838 66.68540560336935 66.93151437465664 67.30067753158761 67.60831349569676 67.82365867057315 68.10053103827138 68.31587621314777 68.71580296648965 68.86962094854422 69.11572971983153 69.42336568394066 69.70023805163889 69.97711041933712 70.22321919062442 70.4078007690899 70.68467313678812 70.8384911188427 71.05383629371909 71.26918146859549 71.4845266434719 71.63834462552646 71.85368980040286 72.03827137886833 72.28438015015564 72.49972532503205 72.77659769273026 73.05347006042848 73.23805163889398 73.48416041018129 73.7610327778795 73.91485075993407 74.06866874198865 74.1917231276323 74.37630470609778 74.56088628456325 74.77623145943966 74.99157663431606 75.23768540560337 75.42226698406884 75.729902948178 75.9760117194653 76.34517487639626 76.71433803332724 77.05273759384727 77.36037355795642 77.7603003112983 78.0064090825856 78.49862662516023 78.74473539644754 79.02160776414576 79.36000732466582 79.66764328877494 80.0368064457059 80.49826039186962 80.80589635597875 81.1135323200879 81.32887749496429 81.54422266984068 82.0364402124153 82.28254898370261 82.62094854422267 82.99011170115364 83.23622047244095 83.60538362937191 83.88225599707013 84.40523713605566 84.68210950375389 84.95898187145211 85.26661783556125 85.48196301043765 85.94341695660134 86.12799853506684 86.43563449917598 86.65097967405237 86.89708844533968 87.08167002380517 87.45083318073613 87.54312396996886 87.91228712689983 88.18915949459806 88.37374107306354 88.55832265152901 88.83519501922726 89.11206738692547 89.32741256180186 89.48123054385643 89.72733931514375 89.94268449002014 90.0965024720747 90.34261124336201 90.5579564182384 90.71177440029297 90.89635597875846 91.05017396081303 91.2039919428676 91.32704632851126 91.41933711774399 91.54239150338765 91.57315509979856 91.57315509979856 91.60391869620949 91.60391869620949 91.60391869620949 91.60391869620949 91.60391869620949 91.60391869620949 91.60391869620949 91.60391869620949 91.57315509979856 91.60391869620949 91.57315509979856 91.57315509979856 91.60391869620949 91.57315509979856 91.57315509979856 91.57315509979856 91.57315509979856 91.57315509979856 91.57315509979856 91.57315509979856 91.57315509979856 91.54239150338765 91.54239150338765 91.51162790697674 91.51162790697674 91.48086431056583 91.51162790697674 91.51162790697674 91.51162790697674 91.51162790697674 91.51162790697674 91.51162790697674 91.51162790697674 91.51162790697674 91.51162790697674 91.51162790697674 91.51162790697674 91.51162790697674 91.51162790697674 91.51162790697674 91.51162790697674 91.51162790697674 91.51162790697674 91.51162790697674 91.51162790697674 91.4501007141549 91.4501007141549 91.41933711774399 91.38857352133309 91.38857352133309 91.35780992492217 91.32704632851126 91.32704632851126 91.29628273210034 91.29628273210034 91.29628273210034 91.26551913568943 91.26551913568943 91.26551913568943 91.26551913568943 91.26551913568943 91.26551913568943 91.26551913568943 91.26551913568943 91.26551913568943 