29.0 29.0 29.0 29.0 29.0 29.0 29.0 29.0 29.0 29.0 29.0 29.0 29.0 29.0 29.0 29.0 29.0 29.0 29.030763596410914 29.0 29.0 29.0 29.0 29.0 29.0 29.0 29.0 29.030763596410914 29.0 29.0 29.0 29.0 29.0 29.0 29.0 29.0 29.0 29.0 29.0 29.0 29.0 29.0 29.0 29.0 29.0 29.0 29.0 29.0 29.0 29.0 29.0 29.0 29.0 29.0 29.0 29.0 29.030763596410914 29.0 29.0 29.0 29.0 29.0 29.0 29.0 29.0 29.0 29.0 29.0 29.0 29.0 29.0 29.0 29.0 29.0 29.0 29.0 29.0 29.0 29.0 29.0 29.0 29.0 29.0 29.0 29.0 29.0 29.0 29.0 29.0 29.0 29.0 29.0 29.0 29.030763596410914 29.0 29.0 29.0 29.030763596410914 29.0 29.0 29.0 29.0 29.0 29.0 29.0 29.0 29.0 29.0 29.0 29.0 29.0 29.0 29.030763596410914 29.0 29.0 29.0 29.0 29.0 29.0 29.0 29.0 29.030763596410914 29.0 29.0 29.0 29.030763596410914 29.0 29.0 29.0 29.0 29.0 29.0 29.0 29.0 29.0 29.0 29.0 29.0 29.0 29.0 29.0 29.0 29.0 29.0 29.030763596410914 29.0 29.0 29.0 29.0 29.0 29.0 29.0 29.0 29.0 29.0 29.0 29.0 29.0 29.0 29.0 29.0 29.0 29.0 29.0 29.0 29.0 29.0 29.0 29.0 29.0 29.0 29.0 29.0 29.0 29.0 29.0 29.0 29.0 29.0 29.030763596410914 29.0 29.0 29.0 29.0 29.0 29.0 29.0 29.0 29.0 29.0 29.0 29.0 29.0 29.0 29.0 29.0 29.0 29.0 29.0 29.0 29.0 29.0 29.0 29.0 29.030763596410914 29.0 29.0 29.0 29.0 29.0 29.0 29.0 29.0 29.0 29.0 29.0 29.0 29.0 29.0 29.0 29.0 29.0 29.0 29.0 29.0 29.0 29.0 29.0 29.0 29.0 29.0 29.0 29.0 29.030763596410914 29.0 29.0 29.0 29.0 29.0 29.030763596410914 29.0 29.0 29.030763596410914 29.0 29.0 29.0 29.0 29.0 29.0 29.0 29.0 29.0 29.0 29.0 29.0 29.0 29.0 29.0 29.0 29.0 29.0 29.0 29.0 29.0 29.0 29.0 29.0 29.0 29.0 29.0 29.0 29.0 29.0 29.0 29.0 29.0 29.0 29.0 29.0 29.0 29.0 29.0 29.0 29.0 29.0 29.0 29.0 29.0 29.0 29.0 29.0 29.0 29.0 29.0 29.0 29.0 29.0 29.0 29.0 29.0 29.0 29.0 29.0 29.0 29.0 29.0 29.0 29.0 29.0 29.0 29.0 29.0 29.0 29.0 29.0 29.0 29.0 29.0 29.0 29.0 29.0 29.0 29.0 29.0 29.0 29.030763596410914 29.0 29.0 29.0 29.030763596410914 29.0 29.0 29.0 29.0 29.0 29.0 29.0 29.0 29.0 29.0 29.0 29.0 29.0 29.0 29.030763596410914 29.0 29.0 29.0 29.0 29.0 29.0 29.0 29.0 29.0 29.0 29.0 29.0 29.0 29.0 29.0 29.0 29.0 29.0 29.0 29.0 29.0 29.0 29.0 29.0 29.0 29.0 29.0 29.0 29.0 29.0 29.0 29.0 29.0 29.0 29.0 29.0 29.0 29.0 29.0 29.0 29.0 29.0 29.0 29.0 29.0 29.0 29.0 29.0 29.0 29.0 29.0 29.0 29.0 29.0 29.0 29.0 29.0 29.0 29.0 29.0 29.0 29.0 29.0 29.0 29.0 29.0 29.0 29.0 29.0 29.0 29.0 29.0 29.0 29.0 29.0 29.0 29.0 29.0 29.0 29.0 29.0 29.0 29.0 29.0 29.0 29.0 29.0 29.0 29.0 29.0 29.0 29.0 29.0 29.0 29.0 29.0 29.0 29.0 29.0 29.0 29.0 29.0 29.0 29.0 29.0 29.0 29.0 29.0 29.0 29.0 29.0 29.030763596410914 29.0 29.0 29.0 29.0 29.0 29.0 29.0 29.0 29.0 29.0 29.0 29.0 29.0 29.0 29.0 29.0 29.0 29.0 29.0 29.0 29.0 29.0 29.0 29.0 29.0 29.0 29.0 29.0 29.0 29.0 29.0 29.0 29.0 29.0 29.0 29.0 29.0 29.0 29.0 29.0 29.0 29.0 29.0 29.0 29.0 29.0 29.0 29.0 29.0 29.0 29.0 29.0 29.0 29.030763596410914 29.0 29.0 29.0 29.0 29.0 29.0 29.0 29.0 29.0 29.0 29.0 29.0 29.0 29.0 29.0 29.0 29.0 29.030763596410914 29.0 29.0 29.0 29.0 29.0 29.0 29.0 29.0 29.0 29.0 29.0 29.0 29.0 29.0 29.0 29.0 29.0 29.0 29.0 29.0 29.0 29.0 29.0 29.0 29.0 29.0 29.0 29.0 29.0 29.0 29.0 29.030763596410914 29.0 29.0 29.0 29.0 29.0 29.0 29.0 29.0 29.0 29.0 29.0 29.0 29.0 29.0 29.0 29.0 29.0 29.0 29.0 29.0 29.0 29.0 29.0 29.0 29.0 29.0 29.0 29.0 29.0 29.0 29.0 28.969236403589086 29.0 29.0 29.0 29.0 29.0 29.0 29.0 29.0 29.0 29.0 29.0 29.0 29.0 29.0 29.0 29.0 29.0 29.030763596410914 29.030763596410914 29.030763596410914 29.030763596410914 29.030763596410914 29.030763596410914 29.061527192821828 29.061527192821828 29.061527192821828 29.061527192821828 29.061527192821828 29.061527192821828 29.061527192821828 29.09229078923274 29.123054385643655 29.123054385643655 29.15381798205457 29.184581578465483 29.24610877128731 29.30763596410914 29.369163156930966 29.39992675334188 29.461453946163708 29.49221754257462 29.522981138985532 29.553744735396446 29.58450833180736 29.615271928218274 29.646035524629188 29.6767991210401 29.73832631386193 29.769089910272843 29.769089910272843 29.799853506683757 29.799853506683757 29.83061710309467 29.861380699505585 29.8921442959165 29.953671488738326 30.015198681560154 30.07672587438198 30.13825306720381 30.261307452847465 30.38436183849112 30.538179820545686 30.66123420618934 30.845815784654825 30.999633766709394 31.153451748763963 31.338033327229446 31.491851309284012 31.64566929133858 31.737960080571323 31.86101446621498 31.984068851858634 32.168650430324114 32.32246841237868 32.53781358725508 32.814685954953305 33.060794726240616 33.368430690349754 33.64530305804798 33.95293902215711 34.26057498626625 34.537447353964474 34.84508331807361 35.12195568577184 35.429591649880976 35.67570042116829 35.98333638527742 36.26020875297564 36.53708112067387 36.81395348837209 37.12158945248123 37.42922541659037 37.73686138069951 38.04449734480864 38.413660501739606 38.69053286943783 39.0596960263688 39.428859183299764 39.76725874381981 40.136421900750776 40.47482146127083 40.843984618201794 41.21314777513276 41.58231093206372 41.951474088994686 42.38216443874748 42.78209119208936 43.15125434902033 43.52041750595129 43.88958066288225 44.50485259110053 44.99707013367515 45.36623329060612 45.79692364035891 46.104559604468044 46.41219556857718 46.93517670756272 47.18128547885003 47.550448635780995 47.85808459989013 48.165720563999265 48.44259293169749 48.780992492217536 48.99633766709394 49.30397363120308 49.55008240249039 49.82695477018861 50.10382713788683 50.31917231276323 50.74986266251602 50.995971433803334 51.211316608679724 51.58047976561069 51.949642922541656 52.257278886650795 52.74949642922542 53.026368796923634 53.364768357443694 53.610877128731005 53.826222303607395 54.31843984618202 54.56454861746933 54.99523896722212 55.36440212415309 55.67203808826222 55.97967405237136 56.225782823658676 56.56418238417872 56.90258194469877 57.179454312397 57.57938106573887 57.94854422266984 58.19465299395715 58.533052554477194 58.84068851858633 59.05603369346274 59.363669657571876 59.60977842885918 59.94817798937923 60.1019959714338 60.378868339132026 60.62497711041934 60.778795092473906 60.932613074528476 61.27101263504852 61.42483061710309 61.609412195568574 61.76323017762314 61.91704815967771 62.07086614173228 62.16315693096502 62.255447720197765 62.37850210584142 62.44002929866325 62.50155649148507 62.59384728071782 62.65537447353964 62.74766526277239 62.80919245559421 62.93224684123786 63.055301226881525 63.11682841970335 63.20911920893609 63.30140999816883 63.39370078740157 63.48599157663431 63.54751876945614 63.578282365867054 63.63980955868888 63.73210034792162 63.79362754074345 63.824391137154365 63.85515473356528 63.88591832997619 63.94744552279802 63.978209119208934 64.03973631203075 64.1012635048526 64.16279069767441 64.22431789049625 64.31660867972897 64.40889946896172 64.47042666178355 64.5627174510163 64.65500824024903 64.71653543307087 64.83958981871451 64.93188060794725 65.02417139718 65.17798937923456 65.27028016846731 65.42409815052187 65.54715253616553 65.63944332539828 65.79326130745284 65.88555209668559 66.03937007874015 66.1624244643838 66.28547885002746 66.3470060428493 66.37776963926021 66.40853323567111 66.40853323567111 66.40853323567111 66.40853323567111 66.40853323567111 66.40853323567111 66.37776963926021 66.3470060428493 66.31624244643838 66.28547885002746 66.22395165720565 66.1624244643838 66.1316608679729 66.10089727156199 66.07013367515107 66.03937007874015 66.03937007874015 66.00860648232924 66.00860648232924 66.00860648232924 66.00860648232924 65.97784288591834 65.97784288591834 65.97784288591834 66.00860648232924 65.97784288591834 66.00860648232924 65.97784288591834 66.00860648232924 65.97784288591834 66.00860648232924 66.00860648232924 66.00860648232924 66.00860648232924 65.97784288591834 65.97784288591834 66.00860648232924 65.97784288591834 65.97784288591834 65.97784288591834 65.94707928950741 65.9163156930965 65.9163156930965 65.9163156930965 65.88555209668559 65.88555209668559 65.82402490386376 65.73173411463102 65.67020692180918 65.57791613257645 65.51638893975462 65.36257095770006 65.30104376487822 65.20875297564548 65.0549349935909 64.96264420435817 64.87035341512544 64.77806262589269 64.71653543307087 64.65500824024903 64.5627174510163 64.53195385460538 64.50119025819447 64.47042666178355 64.43966306537264 64.43966306537264 64.43966306537264 64.37813587255081 64.37813587255081 64.34737227613991 64.34737227613991 64.34737227613991 64.31660867972897 64.34737227613991 64.31660867972897 64.31660867972897 64.31660867972897 64.31660867972897 64.31660867972897 64.31660867972897 64.31660867972897 64.31660867972897 64.31660867972897 64.31660867972897 64.31660867972897 64.31660867972897 64.31660867972897 64.31660867972897 64.31660867972897 64.31660867972897 64.31660867972897 64.31660867972897 64.31660867972897 64.31660867972897 64.31660867972897 64.31660867972897 64.31660867972897 64.31660867972897 64.31660867972897 64.31660867972897 64.31660867972897 64.31660867972897 64.31660867972897 64.31660867972897 64.31660867972897 64.31660867972897 64.28584508331807 64.31660867972897 64.31660867972897 64.28584508331807 64.28584508331807 64.25508148690716 64.22431789049625 64.22431789049625 64.19355429408533 64.19355429408533 64.16279069767441 64.16279069767441 64.16279069767441 64.1320271012635 64.1320271012635 64.1320271012635 64.1320271012635 64.1320271012635 64.1320271012635 64.1320271012635 64.1320271012635 64.1320271012635 64.1320271012635 64.1320271012635 64.1320271012635 64.1320271012635 64.1320271012635 64.16279069767441 64.1320271012635 64.1320271012635 64.1320271012635 64.1320271012635 64.1320271012635 64.1320271012635 64.1320271012635 64.1320271012635 64.1320271012635 64.1320271012635 64.1320271012635 64.1320271012635 64.1320271012635 64.1320271012635 64.1320271012635 64.1320271012635 64.1320271012635 64.1320271012635 64.1320271012635 64.1320271012635 64.1320271012635 64.1320271012635 64.1320271012635 64.1320271012635 64.1320271012635 64.16279069767441 64.1320271012635 64.16279069767441 64.16279069767441 64.1320271012635 64.1320271012635 64.1320271012635 64.1320271012635 64.1320271012635 64.16279069767441 64.1320271012635 64.1320271012635 64.1320271012635 64.1320271012635 64.1320271012635 64.1320271012635 64.1320271012635 64.1012635048526 64.07049990844168 64.00897271561985 63.978209119208934 63.94744552279802 63.916681926387106 63.88591832997619 63.88591832997619 63.85515473356528 63.85515473356528 63.824391137154365 63.824391137154365 63.824391137154365 63.824391137154365 63.79362754074345 63.824391137154365 63.824391137154365 63.824391137154365 63.824391137154365 63.824391137154365 63.824391137154365 63.824391137154365 63.824391137154365 63.824391137154365 63.824391137154365 63.824391137154365 63.824391137154365 63.824391137154365 63.824391137154365 63.824391137154365 63.79362754074345 63.79362754074345 63.76286394433254 63.73210034792162 63.73210034792162 63.70133675151071 63.70133675151071 63.70133675151071 63.70133675151071 63.70133675151071 63.670573155099795 63.670573155099795 63.670573155099795 63.670573155099795 63.670573155099795 63.670573155099795 63.670573155099795 63.670573155099795 63.670573155099795 63.670573155099795 63.670573155099795 63.670573155099795 63.670573155099795 63.670573155099795 63.670573155099795 63.670573155099795 63.670573155099795 63.670573155099795 63.670573155099795 63.670573155099795 63.670573155099795 63.63980955868888 63.60904596227797 63.578282365867054 63.516755173045226 63.516755173045226 63.516755173045226 63.48599157663431 63.516755173045226 63.48599157663431 63.48599157663431 63.48599157663431 63.516755173045226 63.48599157663431 63.516755173045226 63.516755173045226 63.516755173045226 63.516755173045226 63.516755173045226 63.516755173045226 63.516755173045226 63.516755173045226 63.516755173045226 63.516755173045226 63.516755173045226 63.516755173045226 63.516755173045226 63.54751876945614 63.516755173045226 63.54751876945614 63.516755173045226 63.516755173045226 63.516755173045226 63.516755173045226 63.516755173045226 63.516755173045226 63.4552279802234 63.424464383812484 63.36293719099066 63.30140999816883 63.239882805347 63.14759201611426 63.08606482329243 62.96301043764878 62.83995605200513 62.77842885918329 62.59384728071782 62.47079289507416 62.347738509430506 62.101629738143195 61.91704815967771 61.6709393883904 61.39406702069218 61.17872184581578 60.96337667093938 60.74803149606299 60.50192272477568 60.22505035707745 60.040468778611974 59.70206921809192 59.30214246475004 59.05603369346274 58.84068851858633 58.65610694012086 58.47152536165537 58.22541659036806 58.071598608313494 57.763962644204355 57.517853872917044 57.36403589086248 57.117927119575164 56.964109137520595 56.81029115546603 56.41036440212415 56.16425563083684 55.88738326313862 55.54898370261857 55.30287493133125 54.99523896722212 54.626075810291155 54.34920344259293 54.01080388207288 53.73393151437466 53.364768357443694 53.057132393334555 52.811023622047244 52.31880607947262 52.07269730818531 51.85735213330892 51.51895257278886 51.27284380150155 50.934444240981506 50.442226698406884 50.16535433070866 49.79619117377769 49.48855520966856 49.24244643838125 48.719465299395715 48.411829335286576 48.13495696758835 47.765793810657385 47.5812122321919 47.24281267167186 46.996703900384546 46.658304339864486 46.504486357809924 46.31990477934444 46.104559604468044 45.98150521882439 45.76616004394799 45.58157846548251 45.36623329060612 45.15088811572972 45.02783373008606 44.874015748031496 44.627906976744185 44.474088994689616 44.32027101263505 44.135689434169564 44.01263504852591 43.828053470060425 43.64347189159494 43.42812671671855 43.274308734663975 43.12049075260941 42.8743819813221 42.62827321003479 42.44369163156931 42.22834645669291 41.951474088994686 41.797656106940124 41.5207837392419 41.36696575718733 40.997802600256364 40.72093023255814 40.56711225050357 40.25947628639443 40.07489470792895 39.890313129463465 39.45962277971067 39.24427760483428 38.93664164072514 38.629005676616 38.413660501739606 38.13678813404138 37.859915766343164 37.61380699505585 37.398461820179456 37.24464383812489 36.998535066837576 36.78318989196118 36.56784471708478 36.444790331441126 36.26020875297564 36.13715436733199 35.952572788866505 35.82951840322285 35.61417322834646 35.46035524629189 35.36806445705915 35.21424647500458 35.09119208936092 34.99890130012818 34.75279252884087 34.629738143197216 34.44515656473173 34.29133858267716 34.16828419703351 34.075993407800766 33.95293902215711 33.89141182933528 33.79912104010255 33.76835744369163 33.7068302508698 33.64530305804798 33.58377586522615 33.49148507599341 33.460721479582496 33.39919428676067 33.30690349752793 33.2453763047061 33.12232191906244 32.99926753341879 32.93774034059696 32.814685954953305 32.72239516572056 32.660867972898735 32.507049990844166 32.44552279802234 32.3532320087896 32.260941219556855 32.19941402673503 32.107123237502286 32.04559604468046 31.984068851858634 31.95330525544772 31.891778062625892 31.830250869804065 31.79948727339315 31.768723676982237 31.737960080571323 31.70719648416041 31.70719648416041 31.676432887749495 31.676432887749495 31.676432887749495 31.64566929133858 31.64566929133858 31.614905694927668 31.584142098516754 31.55337850210584 31.491851309284012 31.461087712873102 31.430324116462188 31.36879692364036 31.338033327229446 31.27650613440762 31.21497894158579 31.12268815235305 31.06116095953122 30.999633766709394 30.907342977476652 30.784288591832997 30.691997802600255 30.5689434169566 30.47665262772386 30.353598242080206 30.261307452847465 30.169016663614723 29.98443508514924 29.922907892327412 29.8921442959165 29.8921442959165 29.8921442959165 29.861380699505585 29.83061710309467 29.83061710309467 29.799853506683757 29.769089910272843 29.769089910272843 29.769089910272843 29.73832631386193 29.73832631386193 29.73832631386193 29.73832631386193 29.73832631386193 29.707562717451015 29.6767991210401 29.615271928218274 29.58450833180736 29.553744735396446 29.522981138985532 29.49221754257462 29.430690349752794 29.39992675334188 29.369163156930966 29.338399560520052 29.338399560520052 29.338399560520052 29.338399560520052 29.338399560520052 29.338399560520052 29.338399560520052 29.338399560520052 29.30763596410914 29.338399560520052 29.338399560520052 29.338399560520052 29.338399560520052 29.338399560520052 29.30763596410914 29.30763596410914 29.338399560520052 29.30763596410914 29.30763596410914 29.30763596410914 29.30763596410914 29.30763596410914 29.30763596410914 29.30763596410914 29.276872367698225 29.30763596410914 29.30763596410914 29.30763596410914 29.30763596410914 29.30763596410914 29.30763596410914 29.30763596410914 29.276872367698225 29.30763596410914 29.30763596410914 29.276872367698225 29.30763596410914 29.30763596410914 29.30763596410914 29.30763596410914 29.30763596410914 29.276872367698225 29.30763596410914 29.30763596410914 29.30763596410914 29.30763596410914 29.276872367698225 29.276872367698225 29.30763596410914 29.30763596410914 29.30763596410914 29.276872367698225 29.276872367698225 29.276872367698225 29.276872367698225 29.276872367698225 29.276872367698225 29.276872367698225 29.276872367698225 29.276872367698225 29.276872367698225 29.30763596410914 29.276872367698225 29.276872367698225 29.276872367698225 29.276872367698225 29.276872367698225 29.276872367698225 29.276872367698225 29.276872367698225 29.276872367698225 29.276872367698225 29.276872367698225 29.276872367698225 29.276872367698225 29.276872367698225 29.276872367698225 29.276872367698225 29.276872367698225 29.276872367698225 29.276872367698225 29.276872367698225 29.276872367698225 29.276872367698225 29.276872367698225 29.276872367698225 29.276872367698225 29.276872367698225 29.276872367698225 29.276872367698225 29.276872367698225 29.276872367698225 29.276872367698225 29.276872367698225 29.276872367698225 29.276872367698225 29.276872367698225 29.276872367698225 29.276872367698225 29.276872367698225 29.276872367698225 29.276872367698225 29.276872367698225 29.276872367698225 29.276872367698225 29.276872367698225 29.276872367698225 29.276872367698225 29.276872367698225 29.276872367698225 29.276872367698225 29.276872367698225 29.276872367698225 29.276872367698225 29.276872367698225 29.276872367698225 29.276872367698225 29.276872367698225 29.276872367698225 29.276872367698225 29.276872367698225 29.276872367698225 29.276872367698225 29.276872367698225 29.276872367698225 29.276872367698225 29.276872367698225 29.276872367698225 29.276872367698225 29.276872367698225 29.276872367698225 29.276872367698225 29.276872367698225 29.276872367698225 29.276872367698225 29.276872367698225 29.276872367698225 29.276872367698225 29.276872367698225 29.276872367698225 29.276872367698225 29.276872367698225 29.276872367698225 29.276872367698225 29.276872367698225 29.276872367698225 29.276872367698225 29.276872367698225 29.276872367698225 29.276872367698225 29.276872367698225 29.276872367698225 29.276872367698225 29.276872367698225 29.276872367698225 29.276872367698225 29.276872367698225 29.276872367698225 29.276872367698225 29.276872367698225 29.276872367698225 29.276872367698225 29.276872367698225 29.276872367698225 29.276872367698225 29.276872367698225 29.276872367698225 29.276872367698225 29.276872367698225 29.276872367698225 29.276872367698225 29.276872367698225 29.276872367698225 29.276872367698225 29.276872367698225 29.276872367698225 29.276872367698225 29.276872367698225 29.276872367698225 29.276872367698225 29.276872367698225 29.276872367698225 29.276872367698225 29.276872367698225 29.276872367698225 29.276872367698225 29.276872367698225 29.276872367698225 29.276872367698225 29.276872367698225 29.276872367698225 29.276872367698225 29.276872367698225 29.276872367698225 29.276872367698225 29.276872367698225 29.276872367698225 29.276872367698225 29.276872367698225 29.276872367698225 29.276872367698225 29.276872367698225 29.276872367698225 29.276872367698225 29.276872367698225 29.276872367698225 29.276872367698225 29.276872367698225 29.276872367698225 29.276872367698225 29.276872367698225 29.276872367698225 29.276872367698225 29.276872367698225 29.276872367698225 29.276872367698225 29.276872367698225 29.276872367698225 29.276872367698225 29.276872367698225 29.276872367698225 29.276872367698225 29.276872367698225 29.276872367698225 29.276872367698225 29.276872367698225 29.276872367698225 29.276872367698225 29.276872367698225 29.276872367698225 29.276872367698225 29.276872367698225 29.276872367698225 29.276872367698225 29.276872367698225 29.276872367698225 29.276872367698225 29.276872367698225 29.276872367698225 29.276872367698225 29.276872367698225 29.276872367698225 29.276872367698225 29.276872367698225 29.276872367698225 29.276872367698225 29.276872367698225 29.276872367698225 29.276872367698225 29.276872367698225 29.276872367698225 29.276872367698225 29.276872367698225 29.276872367698225 29.276872367698225 29.276872367698225 29.276872367698225 29.276872367698225 29.276872367698225 29.276872367698225 29.276872367698225 29.276872367698225 29.276872367698225 29.276872367698225 29.276872367698225 29.276872367698225 29.276872367698225 29.276872367698225 29.276872367698225 29.276872367698225 29.276872367698225 29.276872367698225 29.276872367698225 29.276872367698225 29.276872367698225 29.276872367698225 29.276872367698225 29.276872367698225 29.276872367698225 29.276872367698225 29.276872367698225 29.276872367698225 29.276872367698225 29.276872367698225 29.276872367698225 29.276872367698225 29.276872367698225 29.276872367698225 29.276872367698225 29.276872367698225 29.276872367698225 29.276872367698225 29.276872367698225 29.276872367698225 29.276872367698225 29.276872367698225 29.276872367698225 29.276872367698225 29.276872367698225 29.276872367698225 29.276872367698225 29.276872367698225 29.276872367698225 29.276872367698225 29.276872367698225 29.276872367698225 29.276872367698225 29.276872367698225 29.276872367698225 29.276872367698225 29.276872367698225 29.276872367698225 29.276872367698225 29.276872367698225 29.276872367698225 29.276872367698225 29.276872367698225 29.276872367698225 29.276872367698225 29.276872367698225 29.276872367698225 29.276872367698225 29.276872367698225 29.276872367698225 29.276872367698225 29.276872367698225 29.276872367698225 29.276872367698225 29.276872367698225 29.276872367698225 29.276872367698225 29.276872367698225 29.276872367698225 29.276872367698225 29.276872367698225 29.276872367698225 29.276872367698225 29.276872367698225 29.276872367698225 29.276872367698225 29.276872367698225 29.276872367698225 29.276872367698225 29.276872367698225 29.276872367698225 29.276872367698225 29.276872367698225 29.276872367698225 29.276872367698225 29.276872367698225 29.276872367698225 29.276872367698225 29.276872367698225 29.276872367698225 29.276872367698225 29.276872367698225 29.276872367698225 29.276872367698225 29.276872367698225 29.276872367698225 29.276872367698225 29.276872367698225 29.276872367698225 29.276872367698225 29.276872367698225 29.276872367698225 29.276872367698225 29.276872367698225 29.276872367698225 29.276872367698225 29.276872367698225 29.276872367698225 29.276872367698225 29.276872367698225 29.276872367698225 29.276872367698225 29.276872367698225 29.276872367698225 29.276872367698225 29.276872367698225 29.276872367698225 29.276872367698225 29.276872367698225 29.276872367698225 29.276872367698225 29.276872367698225 29.276872367698225 29.276872367698225 29.276872367698225 29.276872367698225 29.276872367698225 29.276872367698225 29.276872367698225 29.276872367698225 29.276872367698225 29.276872367698225 29.276872367698225 29.276872367698225 29.276872367698225 29.276872367698225 29.276872367698225 29.276872367698225 29.276872367698225 29.276872367698225 29.276872367698225 29.276872367698225 29.276872367698225 29.276872367698225 29.276872367698225 29.276872367698225 29.276872367698225 29.276872367698225 29.276872367698225 29.276872367698225 29.276872367698225 29.276872367698225 29.276872367698225 29.276872367698225 29.276872367698225 29.276872367698225 29.276872367698225 29.276872367698225 29.276872367698225 29.276872367698225 29.276872367698225 29.276872367698225 29.276872367698225 29.276872367698225 29.276872367698225 29.276872367698225 29.276872367698225 29.276872367698225 29.276872367698225 29.276872367698225 29.276872367698225 29.276872367698225 29.276872367698225 29.276872367698225 29.276872367698225 29.276872367698225 29.276872367698225 29.276872367698225 29.276872367698225 29.276872367698225 29.276872367698225 29.276872367698225 29.276872367698225 29.276872367698225 29.276872367698225 29.276872367698225 29.276872367698225 29.276872367698225 29.276872367698225 29.276872367698225 29.276872367698225 29.276872367698225 29.276872367698225 29.276872367698225 29.276872367698225 29.276872367698225 29.276872367698225 29.276872367698225 29.276872367698225 29.276872367698225 29.276872367698225 29.276872367698225 29.276872367698225 29.276872367698225 29.276872367698225 29.276872367698225 29.276872367698225 29.276872367698225 29.276872367698225 29.276872367698225 29.276872367698225 29.276872367698225 29.276872367698225 29.276872367698225 29.276872367698225 29.276872367698225 29.276872367698225 29.276872367698225 29.276872367698225 29.276872367698225 29.276872367698225 29.276872367698225 29.276872367698225 29.276872367698225 29.276872367698225 29.276872367698225 29.276872367698225 29.276872367698225 29.276872367698225 29.276872367698225 29.276872367698225 29.276872367698225 29.276872367698225 29.276872367698225 29.276872367698225 29.276872367698225 29.276872367698225 29.276872367698225 29.276872367698225 29.276872367698225 29.276872367698225 29.276872367698225 29.276872367698225 29.276872367698225 29.276872367698225 29.276872367698225 29.276872367698225 29.276872367698225 29.276872367698225 29.276872367698225 29.276872367698225 29.276872367698225 29.276872367698225 29.276872367698225 29.276872367698225 29.276872367698225 29.276872367698225 29.276872367698225 29.276872367698225 29.276872367698225 29.276872367698225 29.276872367698225 29.276872367698225 29.276872367698225 29.276872367698225 29.276872367698225 29.276872367698225 29.276872367698225 29.276872367698225 29.276872367698225 29.276872367698225 29.276872367698225 29.276872367698225 29.276872367698225 29.276872367698225 29.276872367698225 29.276872367698225 29.276872367698225 29.276872367698225 29.276872367698225 29.276872367698225 29.276872367698225 29.276872367698225 29.276872367698225 29.276872367698225 29.24610877128731 29.276872367698225 29.276872367698225 29.276872367698225 29.276872367698225 29.276872367698225 29.276872367698225 29.276872367698225 29.276872367698225 29.276872367698225 29.276872367698225 29.276872367698225 29.276872367698225 29.276872367698225 29.276872367698225 29.276872367698225 29.276872367698225 29.276872367698225 29.276872367698225 29.276872367698225 29.276872367698225 29.276872367698225 29.276872367698225 29.276872367698225 29.276872367698225 29.276872367698225 29.276872367698225 29.276872367698225 29.276872367698225 29.276872367698225 29.276872367698225 29.276872367698225 29.276872367698225 29.276872367698225 29.276872367698225 29.276872367698225 29.276872367698225 29.276872367698225 29.276872367698225 29.276872367698225 29.276872367698225 29.276872367698225 29.276872367698225 29.276872367698225 29.276872367698225 29.276872367698225 29.276872367698225 29.276872367698225 29.276872367698225 29.276872367698225 29.276872367698225 29.276872367698225 29.276872367698225 29.276872367698225 29.276872367698225 29.276872367698225 29.276872367698225 29.276872367698225 29.276872367698225 29.276872367698225 29.276872367698225 29.276872367698225 29.276872367698225 29.276872367698225 29.276872367698225 29.276872367698225 29.276872367698225 29.276872367698225 29.276872367698225 29.276872367698225 29.276872367698225 29.276872367698225 29.276872367698225 29.276872367698225 29.276872367698225 29.276872367698225 29.276872367698225 29.276872367698225 29.276872367698225 29.276872367698225 29.276872367698225 29.276872367698225 29.276872367698225 29.276872367698225 29.276872367698225 29.276872367698225 29.276872367698225 29.276872367698225 29.276872367698225 29.276872367698225 29.24610877128731 29.276872367698225 29.276872367698225 29.276872367698225 29.276872367698225 29.276872367698225 29.276872367698225 29.276872367698225 29.276872367698225 29.276872367698225 29.276872367698225 29.276872367698225 29.276872367698225 29.276872367698225 29.276872367698225 29.276872367698225 29.276872367698225 29.276872367698225 29.276872367698225 29.276872367698225 29.276872367698225 29.276872367698225 29.276872367698225 29.276872367698225 29.276872367698225 29.276872367698225 29.276872367698225 29.276872367698225 29.276872367698225 29.276872367698225 29.276872367698225 29.276872367698225 29.276872367698225 29.276872367698225 29.276872367698225 29.276872367698225 29.276872367698225 29.276872367698225 29.276872367698225 29.276872367698225 29.276872367698225 29.276872367698225 29.276872367698225 29.276872367698225 29.276872367698225 29.276872367698225 29.276872367698225 29.276872367698225 29.276872367698225 29.276872367698225 29.276872367698225 29.276872367698225 29.276872367698225 29.276872367698225 29.276872367698225 29.276872367698225 29.276872367698225 29.276872367698225 29.276872367698225 29.276872367698225 29.276872367698225 29.276872367698225 29.276872367698225 29.276872367698225 29.276872367698225 29.276872367698225 29.276872367698225 29.276872367698225 29.276872367698225 29.276872367698225 29.276872367698225 29.276872367698225 29.276872367698225 29.276872367698225 29.276872367698225 29.276872367698225 29.276872367698225 29.276872367698225 29.276872367698225 29.276872367698225 29.276872367698225 29.276872367698225 29.276872367698225 29.276872367698225 29.276872367698225 29.276872367698225 29.276872367698225 29.276872367698225 29.276872367698225 29.276872367698225 29.276872367698225 29.276872367698225 29.276872367698225 29.276872367698225 29.276872367698225 29.276872367698225 29.276872367698225 29.276872367698225 29.276872367698225 29.276872367698225 29.276872367698225 29.276872367698225 29.276872367698225 29.276872367698225 29.276872367698225 29.276872367698225 29.276872367698225 29.276872367698225 29.276872367698225 29.276872367698225 29.276872367698225 29.276872367698225 29.276872367698225 29.276872367698225 29.276872367698225 29.276872367698225 29.276872367698225 29.276872367698225 29.276872367698225 29.276872367698225 29.276872367698225 29.276872367698225 29.276872367698225 29.276872367698225 29.276872367698225 29.276872367698225 29.276872367698225 29.276872367698225 29.276872367698225 29.276872367698225 29.276872367698225 29.276872367698225 29.276872367698225 29.276872367698225 29.276872367698225 29.276872367698225 29.24610877128731 29.276872367698225 29.276872367698225 29.276872367698225 29.276872367698225 29.24610877128731 29.276872367698225 29.276872367698225 29.276872367698225 29.276872367698225 29.276872367698225 29.276872367698225 29.276872367698225 29.276872367698225 29.276872367698225 29.276872367698225 29.276872367698225 29.276872367698225 29.276872367698225 29.276872367698225 29.276872367698225 29.276872367698225 29.276872367698225 29.276872367698225 29.276872367698225 29.276872367698225 29.276872367698225 29.276872367698225 29.276872367698225 29.276872367698225 29.276872367698225 29.276872367698225 29.276872367698225 29.276872367698225 29.276872367698225 29.276872367698225 29.276872367698225 29.276872367698225 29.276872367698225 29.24610877128731 29.276872367698225 29.276872367698225 29.276872367698225 29.276872367698225 29.276872367698225 29.276872367698225 29.276872367698225 29.276872367698225 29.276872367698225 29.276872367698225 29.276872367698225 29.276872367698225 29.276872367698225 29.276872367698225 29.276872367698225 29.276872367698225 29.276872367698225 29.276872367698225 29.276872367698225 29.276872367698225 29.276872367698225 29.276872367698225 29.276872367698225 29.276872367698225 29.276872367698225 29.276872367698225 29.276872367698225 29.276872367698225 29.276872367698225 29.276872367698225 29.276872367698225 29.276872367698225 29.276872367698225 29.276872367698225 29.276872367698225 29.276872367698225 29.276872367698225 29.276872367698225 29.276872367698225 29.276872367698225 29.276872367698225 29.338399560520052 29.39992675334188 29.461453946163708 29.553744735396446 29.615271928218274 29.646035524629188 29.6767991210401 29.73832631386193 29.769089910272843 29.799853506683757 29.83061710309467 29.8921442959165 29.922907892327412 29.98443508514924 30.015198681560154 30.07672587438198 30.169016663614723 30.29207104925838 30.38436183849112 30.445889031312948 30.538179820545686 30.599707013367514 30.72276139901117 30.784288591832997 30.87657938106574 30.938106573887566 30.999633766709394 31.091924555942136 31.153451748763963 31.338033327229446 31.36879692364036 31.491851309284012 31.614905694927668 31.70719648416041 31.830250869804065 31.922541659036806 32.014832448269544 32.107123237502286 32.19941402673503 32.260941219556855 32.3532320087896 32.44552279802234 32.568577183665994 32.660867972898735 32.75315876213148 32.87621314777513 33.0300311298297 33.214612708295185 33.368430690349754 33.522248672404324 33.67606665445889 33.89141182933528 34.04522981138985 34.32210217908808 34.56821095037539 34.72202893242996 34.96813770371727 35.12195568577184 35.27577366782641 35.64493682475737 35.82951840322285 36.07562717451016 36.352499542208385 36.56784471708478 36.93700787401575 37.152353048892145 37.33693462735763 37.67533418787768 37.89067936275407 38.25984251968504 38.75206006225966 38.99816883354697 39.33656839406702 39.55191356894342 39.79802234023072 40.10565830433986 40.32100347921626 40.75169382896905 41.02856619666728 41.243911371543675 41.55154733565281 41.73612891411829 42.04376487822743 42.35140084233657 42.59750961362388 42.8743819813221 43.21278154184215 43.42812671671855 43.7665262772386 44.135689434169564 44.4433253982787 44.6586705731551 44.874015748031496 45.15088811572972 45.3354696941952 45.61234206189343 45.98150521882439 46.16608679728987 46.442959164988096 46.56601355063175 46.78135872550815 46.904413111151804 47.02746749679545 47.1197582860282 47.18128547885003 47.24281267167186 47.33510346090459 47.45815784654825 47.550448635780995 47.64273942501373 47.73503021424648 47.91961179271196 48.073429774766524 48.19648416041018 48.473356528108404 48.62717451016297 48.75022889580663 48.93481047427211 49.18091924555942 49.334737227613985 49.61160959531221 49.888481963010435 50.16535433070866 50.380699505585056 50.62680827687237 51.05749862662516 51.30360739791247 51.64200695843252 51.98040651895257 52.19575169382897 52.47262406152719 52.718732832814496 52.9340780076909 53.08789598974546 53.27247756821095 53.48782274308734 53.67240432155283 53.79545870719648 53.980040285661964 54.13385826771653 54.25691265336019 54.41073063541476 54.53378502105841 54.74913019593481 54.9644753708112 55.05676616004395 55.36440212415309 55.51822010620765 55.67203808826222 55.948910455960444 56.041201245193186 56.13349203442593 56.16425563083684 56.195019227247755 56.195019227247755 56.195019227247755 56.195019227247755 56.16425563083684 56.195019227247755 56.16425563083684 56.16425563083684 56.16425563083684 56.10272843801501 56.041201245193186 56.01043764878227 55.91814685954953 55.82585607031679 55.70280168467313 55.57974729902948 55.51822010620765 55.425929316974916 55.36440212415309 55.33363852774217 55.24134773850943 55.21058414209851 55.179820545687605 55.149056949276684 55.11829335286578 55.087529756454856 55.05676616004395 55.026002563633035 54.99523896722212 54.9644753708112 54.90294817798937 54.841420985167545 54.81065738875664 54.74913019593481 54.74913019593481 54.74913019593481 54.74913019593481 54.74913019593481 54.74913019593481 54.74913019593481 54.77989379234572 54.77989379234572 54.81065738875664 54.81065738875664 54.841420985167545 54.841420985167545 54.872184581578466 54.872184581578466 54.872184581578466 54.872184581578466 54.872184581578466 54.872184581578466 54.872184581578466 54.872184581578466 54.872184581578466 54.872184581578466 54.872184581578466 54.872184581578466 54.841420985167545 54.81065738875664 54.77989379234572 54.77989379234572 54.74913019593481 54.7183665995239 54.74913019593481 54.7183665995239 54.7183665995239 54.7183665995239 54.7183665995239 54.7183665995239 54.7183665995239 54.7183665995239 54.7183665995239 54.7183665995239 54.74913019593481 54.74913019593481 54.7183665995239 54.74913019593481 54.7183665995239 54.7183665995239 54.7183665995239 54.7183665995239 54.7183665995239 54.7183665995239 54.68760300311298 54.68760300311298 54.65683940670207 54.65683940670207 54.65683940670207 54.65683940670207 54.65683940670207 54.65683940670207 54.65683940670207 54.68760300311298 54.68760300311298 54.68760300311298 54.68760300311298 54.68760300311298 54.68760300311298 54.68760300311298 54.68760300311298 54.68760300311298 54.7183665995239 54.7183665995239 54.7183665995239 54.7183665995239 54.7183665995239 54.68760300311298 54.7183665995239 54.7183665995239 54.7183665995239 54.7183665995239 54.7183665995239 54.7183665995239 54.7183665995239 54.7183665995239 54.7183665995239 54.7183665995239 54.7183665995239 54.74913019593481 54.74913019593481 54.74913019593481 54.74913019593481 54.74913019593481 54.74913019593481 54.74913019593481 54.74913019593481 54.74913019593481 54.7183665995239 54.7183665995239 54.7183665995239 54.7183665995239 54.7183665995239 54.7183665995239 54.7183665995239 54.7183665995239 54.68760300311298 54.7183665995239 54.7183665995239 54.68760300311298 54.7183665995239 54.7183665995239 54.7183665995239 54.7183665995239 54.7183665995239 54.7183665995239 54.74913019593481 54.74913019593481 54.74913019593481 54.74913019593481 54.74913019593481 54.74913019593481 54.74913019593481 54.74913019593481 54.74913019593481 54.74913019593481 54.74913019593481 54.74913019593481 54.74913019593481 54.74913019593481 54.74913019593481 54.74913019593481 54.74913019593481 54.77989379234572 54.74913019593481 54.74913019593481 54.74913019593481 54.74913019593481 54.74913019593481 54.74913019593481 54.74913019593481 54.74913019593481 54.74913019593481 54.74913019593481 54.7183665995239 54.7183665995239 54.68760300311298 54.68760300311298 54.68760300311298 54.68760300311298 54.68760300311298 54.68760300311298 54.68760300311298 54.68760300311298 54.68760300311298 54.68760300311298 54.68760300311298 54.68760300311298 54.68760300311298 54.68760300311298 54.68760300311298 54.7183665995239 54.68760300311298 54.68760300311298 54.68760300311298 54.68760300311298 54.7183665995239 54.68760300311298 54.68760300311298 54.68760300311298 54.68760300311298 54.68760300311298 54.68760300311298 54.7183665995239 54.7183665995239 54.68760300311298 54.68760300311298 54.65683940670207 54.65683940670207 54.65683940670207 54.65683940670207 54.65683940670207 54.626075810291155 54.626075810291155 54.626075810291155 54.626075810291155 54.626075810291155 54.626075810291155 54.626075810291155 54.626075810291155 54.626075810291155 54.59531221388024 54.56454861746933 54.5030214246475 54.44149423182567 54.41073063541476 54.34920344259293 54.34920344259293 54.31843984618202 54.31843984618202 54.31843984618202 54.31843984618202 54.31843984618202 54.31843984618202 54.31843984618202 54.31843984618202 54.31843984618202 54.2876762497711 54.31843984618202 54.2876762497711 54.31843984618202 54.31843984618202 54.31843984618202 54.31843984618202 54.31843984618202 54.31843984618202 54.31843984618202 54.31843984618202 54.31843984618202 54.31843984618202 54.31843984618202 54.31843984618202 54.31843984618202 54.31843984618202 54.31843984618202 54.31843984618202 54.31843984618202 54.31843984618202 54.31843984618202 54.34920344259293 54.31843984618202 54.34920344259293 54.34920344259293 54.34920344259293 54.34920344259293 54.31843984618202 54.34920344259293 54.31843984618202 54.34920344259293 54.31843984618202 54.31843984618202 54.34920344259293 54.31843984618202 54.34920344259293 54.31843984618202 54.34920344259293 54.34920344259293 54.34920344259293 54.34920344259293 54.31843984618202 54.31843984618202 54.31843984618202 54.2876762497711 54.16462186412745 54.10309467130563 54.01080388207288 53.88774949642922 53.79545870719648 53.73393151437466 53.610877128731005 53.518586339498256 53.3955319538546 53.303241164621866 53.21095037538912 53.14942318256729 53.057132393334555 52.903314411279986 52.84178721845816 52.718732832814496 52.59567844717085 52.503387657938106 52.38033327229445 52.257278886650795 52.103460904596226 51.91887932613075 51.79582494048709 51.54971616919978 51.33437099432338 51.05749862662516 50.934444240981506 50.74986266251602 50.534517487639626 50.34993590917414 50.16535433070866 49.888481963010435 49.73466398095587 49.51931880607947 49.27321003479216 49.08862845632668 48.84251968503936 48.59641091375206 48.411829335286576 48.13495696758835 47.95037538912287 47.73503021424648 47.42739425013734 47.27357626808276 47.08899468961728 46.965940303973625 46.84288591832997 46.68906793627541 46.53524995422084 46.2276139901117 46.0122688152353 45.82768723676982 45.58157846548251 45.427760483427946 45.21241530855154 44.874015748031496 44.72019776597693 44.474088994689616 44.227980223402305 44.04339864493682 43.79728987364952 43.581944698773114 43.39736312030763 43.21278154184215 43.028199963376665 42.812854788500275 42.59750961362388 42.38216443874748 42.105292071049256 41.92071049258377 41.7668925105292 41.459256546420065 41.21314777513276 40.81322102179088 40.536348654092656 40.32100347921626 40.07489470792895 39.890313129463465 39.644204358176154 39.45962277971067 39.275041201245195 39.0596960263688 38.875114447903314 38.721296465848745 38.475187694561434 38.321369712506865 38.013733748397726 37.73686138069951 37.4907526094122 37.24464383812489 36.96777147042666 36.752426295550265 36.41402673503021 36.26020875297564 36.07562717451016 35.86028199963376 35.61417322834646 35.36806445705915 35.09119208936092 34.90661051089544 34.66050173960813 34.50668375755356 34.35286577549899 34.075993407800766 33.95293902215711 33.829884636513455 33.73759384728072 33.67606665445889 33.614539461637065 33.55301226881524 33.522248672404324 33.49148507599341 33.460721479582496 33.42995788317158 33.39919428676067 33.368430690349754 33.33766709393884 33.27613990111701 33.2453763047061 33.214612708295185 33.18384911188427 33.09155832265153 32.99926753341879 32.968503937007874 32.906976744186046 32.84544955136422 32.78392235854239 32.660867972898735 32.59934078007691 32.507049990844166 32.38399560520051 32.32246841237868 32.168650430324114 32.107123237502286 32.014832448269544 31.922541659036806 31.830250869804065 31.737960080571323 31.584142098516754 31.522614905694926 31.430324116462188 31.338033327229446 31.245742537996705 31.153451748763963 31.06116095953122 30.999633766709394 30.96887017029848 30.96887017029848 30.96887017029848 30.96887017029848 30.938106573887566 30.938106573887566 30.938106573887566 30.938106573887566 30.938106573887566 30.938106573887566 30.907342977476652 30.87657938106574 30.845815784654825 30.81505218824391 30.784288591832997 30.691997802600255 30.630470609778428 30.507416224134772 30.415125434902034 30.415125434902034 30.38436183849112 30.353598242080206 30.353598242080206 30.322834645669293 30.322834645669293 30.261307452847465 30.23054385643655 30.199780260025637 30.13825306720381 30.107489470792896 30.107489470792896 30.107489470792896 30.107489470792896 30.107489470792896 30.107489470792896 30.07672587438198 30.07672587438198 30.07672587438198 30.07672587438198 30.07672587438198 30.07672587438198 30.07672587438198 30.07672587438198 30.07672587438198 30.07672587438198 30.045962277971068 30.045962277971068 30.045962277971068 30.045962277971068 30.015198681560154 29.98443508514924 30.015198681560154 29.98443508514924 29.98443508514924 29.98443508514924 29.98443508514924 29.98443508514924 29.98443508514924 29.98443508514924 29.98443508514924 29.98443508514924 29.98443508514924 29.98443508514924 29.98443508514924 29.98443508514924 29.98443508514924 29.98443508514924 29.98443508514924 29.98443508514924 29.98443508514924 29.98443508514924 29.98443508514924 29.98443508514924 29.98443508514924 29.98443508514924 29.98443508514924 29.98443508514924 29.98443508514924 29.98443508514924 29.98443508514924 29.98443508514924 29.98443508514924 29.98443508514924 29.98443508514924 29.98443508514924 29.98443508514924 29.98443508514924 29.98443508514924 29.98443508514924 29.98443508514924 29.98443508514924 29.98443508514924 29.98443508514924 29.98443508514924 29.98443508514924 29.98443508514924 29.98443508514924 29.98443508514924 29.98443508514924 29.98443508514924 29.98443508514924 29.98443508514924 29.98443508514924 29.98443508514924 29.98443508514924 29.98443508514924 29.98443508514924 29.98443508514924 29.98443508514924 29.98443508514924 29.98443508514924 29.98443508514924 29.98443508514924 29.98443508514924 29.98443508514924 29.98443508514924 29.98443508514924 29.98443508514924 29.98443508514924 29.98443508514924 29.98443508514924 29.98443508514924 29.98443508514924 29.98443508514924 29.98443508514924 29.98443508514924 29.98443508514924 29.98443508514924 29.98443508514924 29.98443508514924 29.98443508514924 29.98443508514924 29.98443508514924 29.98443508514924 29.98443508514924 29.98443508514924 29.98443508514924 29.98443508514924 29.98443508514924 29.98443508514924 29.98443508514924 29.98443508514924 29.98443508514924 29.98443508514924 29.98443508514924 29.98443508514924 29.98443508514924 29.98443508514924 29.98443508514924 29.98443508514924 29.98443508514924 29.98443508514924 29.98443508514924 29.98443508514924 29.98443508514924 29.98443508514924 29.98443508514924 29.98443508514924 29.98443508514924 29.98443508514924 29.98443508514924 29.98443508514924 29.98443508514924 29.98443508514924 29.98443508514924 29.98443508514924 29.98443508514924 29.98443508514924 29.98443508514924 29.98443508514924 29.98443508514924 29.98443508514924 29.98443508514924 29.98443508514924 29.98443508514924 29.98443508514924 29.98443508514924 29.98443508514924 29.98443508514924 29.98443508514924 29.98443508514924 29.953671488738326 29.98443508514924 29.98443508514924 29.98443508514924 29.98443508514924 29.98443508514924 29.98443508514924 29.98443508514924 29.98443508514924 29.98443508514924 29.98443508514924 29.98443508514924 29.98443508514924 29.98443508514924 29.98443508514924 29.98443508514924 29.98443508514924 29.98443508514924 29.98443508514924 29.98443508514924 29.98443508514924 29.98443508514924 29.98443508514924 29.98443508514924 29.98443508514924 29.98443508514924 29.98443508514924 29.98443508514924 29.98443508514924 29.98443508514924 29.98443508514924 29.98443508514924 29.98443508514924 29.98443508514924 29.98443508514924 29.98443508514924 29.98443508514924 29.98443508514924 29.98443508514924 29.98443508514924 29.98443508514924 29.98443508514924 29.98443508514924 29.98443508514924 29.98443508514924 29.98443508514924 29.98443508514924 29.98443508514924 29.98443508514924 29.98443508514924 29.98443508514924 29.98443508514924 29.98443508514924 29.98443508514924 29.98443508514924 29.98443508514924 29.98443508514924 29.98443508514924 29.98443508514924 29.98443508514924 29.98443508514924 29.98443508514924 29.98443508514924 29.98443508514924 29.98443508514924 29.98443508514924 29.98443508514924 29.98443508514924 29.98443508514924 29.98443508514924 29.98443508514924 29.98443508514924 29.98443508514924 29.98443508514924 29.98443508514924 29.98443508514924 29.98443508514924 29.98443508514924 29.98443508514924 29.98443508514924 29.98443508514924 29.98443508514924 29.98443508514924 29.98443508514924 29.98443508514924 29.98443508514924 29.98443508514924 29.98443508514924 29.98443508514924 29.98443508514924 29.98443508514924 29.98443508514924 29.98443508514924 29.98443508514924 29.98443508514924 29.98443508514924 29.98443508514924 29.98443508514924 29.98443508514924 29.98443508514924 29.98443508514924 29.98443508514924 29.98443508514924 29.98443508514924 29.98443508514924 29.98443508514924 29.98443508514924 29.98443508514924 29.98443508514924 29.98443508514924 29.98443508514924 29.98443508514924 29.98443508514924 29.98443508514924 29.98443508514924 29.98443508514924 29.98443508514924 29.98443508514924 29.98443508514924 29.98443508514924 29.98443508514924 29.98443508514924 29.98443508514924 29.98443508514924 29.98443508514924 29.98443508514924 29.98443508514924 29.98443508514924 29.98443508514924 29.98443508514924 29.98443508514924 29.98443508514924 29.98443508514924 29.98443508514924 29.98443508514924 29.98443508514924 29.98443508514924 29.98443508514924 29.98443508514924 29.98443508514924 29.98443508514924 29.98443508514924 29.98443508514924 29.98443508514924 29.98443508514924 29.98443508514924 29.98443508514924 29.98443508514924 29.98443508514924 29.98443508514924 29.98443508514924 29.98443508514924 29.98443508514924 29.98443508514924 29.98443508514924 29.98443508514924 29.98443508514924 29.98443508514924 29.98443508514924 29.98443508514924 29.98443508514924 29.98443508514924 29.98443508514924 29.98443508514924 29.98443508514924 29.98443508514924 29.98443508514924 29.98443508514924 29.98443508514924 29.98443508514924 29.98443508514924 29.98443508514924 29.98443508514924 29.98443508514924 29.98443508514924 29.98443508514924 29.98443508514924 29.98443508514924 29.98443508514924 29.98443508514924 29.98443508514924 29.98443508514924 29.98443508514924 29.98443508514924 29.98443508514924 29.98443508514924 29.98443508514924 29.98443508514924 29.98443508514924 29.98443508514924 29.98443508514924 29.98443508514924 29.953671488738326 29.98443508514924 29.98443508514924 29.98443508514924 29.98443508514924 29.98443508514924 29.98443508514924 29.98443508514924 29.98443508514924 29.98443508514924 29.98443508514924 29.98443508514924 29.98443508514924 29.98443508514924 29.98443508514924 29.98443508514924 29.98443508514924 29.98443508514924 29.98443508514924 29.98443508514924 29.98443508514924 29.98443508514924 29.98443508514924 29.98443508514924 29.98443508514924 29.98443508514924 29.98443508514924 29.98443508514924 29.98443508514924 29.98443508514924 29.98443508514924 29.98443508514924 29.98443508514924 29.98443508514924 29.98443508514924 29.98443508514924 29.98443508514924 29.98443508514924 29.98443508514924 29.98443508514924 29.98443508514924 29.98443508514924 29.98443508514924 29.98443508514924 29.98443508514924 29.98443508514924 29.98443508514924 29.98443508514924 29.98443508514924 29.98443508514924 29.98443508514924 29.98443508514924 29.98443508514924 29.98443508514924 29.98443508514924 29.98443508514924 29.98443508514924 29.98443508514924 29.98443508514924 29.98443508514924 29.98443508514924 29.98443508514924 29.98443508514924 29.98443508514924 29.98443508514924 29.98443508514924 29.98443508514924 29.98443508514924 29.98443508514924 29.98443508514924 29.98443508514924 29.98443508514924 29.98443508514924 29.98443508514924 29.98443508514924 29.98443508514924 29.98443508514924 29.98443508514924 29.98443508514924 29.98443508514924 29.98443508514924 29.98443508514924 29.98443508514924 29.98443508514924 29.98443508514924 29.98443508514924 29.98443508514924 29.98443508514924 29.98443508514924 29.98443508514924 29.98443508514924 29.98443508514924 29.98443508514924 29.98443508514924 29.98443508514924 29.98443508514924 29.98443508514924 29.98443508514924 29.98443508514924 29.98443508514924 29.98443508514924 29.98443508514924 29.98443508514924 29.98443508514924 29.98443508514924 29.98443508514924 29.98443508514924 29.98443508514924 29.98443508514924 29.98443508514924 29.98443508514924 29.98443508514924 29.98443508514924 29.98443508514924 29.98443508514924 29.98443508514924 29.98443508514924 29.98443508514924 29.98443508514924 29.98443508514924 29.98443508514924 29.98443508514924 29.98443508514924 29.98443508514924 29.98443508514924 29.98443508514924 29.98443508514924 29.98443508514924 29.98443508514924 29.98443508514924 29.98443508514924 29.98443508514924 29.98443508514924 29.98443508514924 29.98443508514924 29.98443508514924 29.98443508514924 29.98443508514924 29.98443508514924 29.98443508514924 29.98443508514924 29.98443508514924 29.98443508514924 29.98443508514924 29.98443508514924 29.98443508514924 29.98443508514924 29.98443508514924 29.98443508514924 29.98443508514924 29.98443508514924 29.98443508514924 29.98443508514924 29.98443508514924 29.98443508514924 29.98443508514924 29.98443508514924 29.98443508514924 29.98443508514924 29.98443508514924 29.98443508514924 29.98443508514924 29.98443508514924 29.98443508514924 29.98443508514924 29.98443508514924 29.98443508514924 29.98443508514924 29.98443508514924 29.98443508514924 29.98443508514924 29.98443508514924 29.98443508514924 29.98443508514924 29.98443508514924 29.98443508514924 29.98443508514924 29.98443508514924 29.98443508514924 29.98443508514924 29.98443508514924 29.98443508514924 29.98443508514924 29.98443508514924 29.98443508514924 29.98443508514924 29.98443508514924 29.98443508514924 29.98443508514924 29.98443508514924 29.98443508514924 29.98443508514924 29.98443508514924 29.98443508514924 29.98443508514924 29.98443508514924 29.98443508514924 29.98443508514924 29.98443508514924 29.98443508514924 29.98443508514924 29.98443508514924 29.98443508514924 29.98443508514924 29.98443508514924 29.98443508514924 29.98443508514924 29.98443508514924 29.98443508514924 29.98443508514924 29.98443508514924 29.98443508514924 29.98443508514924 29.98443508514924 29.98443508514924 29.98443508514924 29.98443508514924 29.98443508514924 29.98443508514924 29.98443508514924 29.98443508514924 29.98443508514924 29.98443508514924 29.98443508514924 29.98443508514924 29.98443508514924 29.98443508514924 29.98443508514924 29.98443508514924 29.98443508514924 29.98443508514924 29.98443508514924 29.98443508514924 29.98443508514924 29.98443508514924 29.98443508514924 29.98443508514924 29.98443508514924 29.98443508514924 29.98443508514924 29.98443508514924 29.98443508514924 29.98443508514924 29.98443508514924 29.98443508514924 29.98443508514924 29.98443508514924 29.98443508514924 29.98443508514924 29.98443508514924 29.98443508514924 29.98443508514924 29.98443508514924 29.98443508514924 29.98443508514924 29.98443508514924 29.98443508514924 29.98443508514924 29.98443508514924 29.98443508514924 29.98443508514924 29.98443508514924 29.98443508514924 29.98443508514924 29.98443508514924 29.98443508514924 29.98443508514924 29.98443508514924 29.98443508514924 29.98443508514924 29.98443508514924 29.98443508514924 29.98443508514924 29.98443508514924 29.98443508514924 29.98443508514924 29.98443508514924 29.98443508514924 29.98443508514924 29.98443508514924 29.98443508514924 29.98443508514924 29.98443508514924 29.98443508514924 29.98443508514924 29.98443508514924 29.98443508514924 29.98443508514924 29.98443508514924 29.98443508514924 29.98443508514924 29.98443508514924 29.98443508514924 29.98443508514924 29.98443508514924 29.98443508514924 29.98443508514924 29.98443508514924 29.98443508514924 29.98443508514924 29.98443508514924 29.98443508514924 29.98443508514924 29.98443508514924 29.98443508514924 29.98443508514924 29.98443508514924 29.98443508514924 29.98443508514924 29.98443508514924 29.98443508514924 29.98443508514924 29.98443508514924 29.98443508514924 29.98443508514924 29.98443508514924 29.98443508514924 29.98443508514924 29.98443508514924 29.98443508514924 29.98443508514924 29.98443508514924 29.98443508514924 29.98443508514924 29.98443508514924 29.98443508514924 29.98443508514924 29.98443508514924 29.98443508514924 29.98443508514924 29.98443508514924 29.98443508514924 29.98443508514924 29.98443508514924 29.98443508514924 29.98443508514924 29.98443508514924 29.98443508514924 29.98443508514924 29.98443508514924 29.98443508514924 29.98443508514924 29.98443508514924 29.98443508514924 29.98443508514924 29.98443508514924 29.98443508514924 29.98443508514924 29.98443508514924 29.98443508514924 29.98443508514924 29.98443508514924 29.98443508514924 29.98443508514924 29.98443508514924 29.98443508514924 29.98443508514924 29.98443508514924 29.98443508514924 29.98443508514924 29.98443508514924 29.98443508514924 29.98443508514924 29.98443508514924 29.98443508514924 29.98443508514924 29.98443508514924 29.98443508514924 29.98443508514924 29.98443508514924 29.98443508514924 29.98443508514924 29.98443508514924 29.98443508514924 29.98443508514924 29.98443508514924 29.98443508514924 29.98443508514924 29.98443508514924 29.98443508514924 29.98443508514924 29.98443508514924 29.98443508514924 29.98443508514924 29.98443508514924 29.98443508514924 29.98443508514924 29.98443508514924 29.98443508514924 29.98443508514924 29.98443508514924 29.98443508514924 29.98443508514924 29.98443508514924 29.98443508514924 29.98443508514924 29.98443508514924 29.98443508514924 29.98443508514924 29.98443508514924 29.98443508514924 29.98443508514924 29.98443508514924 29.98443508514924 29.98443508514924 29.98443508514924 29.98443508514924 29.98443508514924 29.98443508514924 29.98443508514924 29.98443508514924 29.98443508514924 29.98443508514924 29.98443508514924 29.98443508514924 29.98443508514924 29.98443508514924 29.98443508514924 29.98443508514924 29.98443508514924 29.98443508514924 29.98443508514924 29.98443508514924 29.98443508514924 29.98443508514924 29.98443508514924 29.98443508514924 29.98443508514924 29.98443508514924 29.98443508514924 29.98443508514924 29.98443508514924 29.98443508514924 29.98443508514924 29.98443508514924 29.98443508514924 29.98443508514924 29.98443508514924 29.98443508514924 29.98443508514924 29.953671488738326 29.98443508514924 29.98443508514924 29.98443508514924 29.98443508514924 29.98443508514924 29.98443508514924 29.98443508514924 29.98443508514924 29.98443508514924 29.98443508514924 29.98443508514924 29.98443508514924 29.953671488738326 29.98443508514924 29.98443508514924 29.98443508514924 29.98443508514924 29.98443508514924 29.98443508514924 29.98443508514924 29.98443508514924 29.98443508514924 29.98443508514924 29.98443508514924 29.98443508514924 29.98443508514924 29.98443508514924 29.98443508514924 29.98443508514924 29.98443508514924 29.98443508514924 29.98443508514924 29.98443508514924 29.98443508514924 29.98443508514924 29.98443508514924 29.98443508514924 29.98443508514924 29.98443508514924 29.98443508514924 29.98443508514924 29.98443508514924 29.98443508514924 29.98443508514924 29.98443508514924 29.98443508514924 29.98443508514924 29.98443508514924 29.98443508514924 29.98443508514924 29.98443508514924 29.98443508514924 29.98443508514924 29.98443508514924 29.98443508514924 29.98443508514924 29.98443508514924 29.98443508514924 29.98443508514924 29.98443508514924 29.98443508514924 29.98443508514924 29.98443508514924 29.98443508514924 29.98443508514924 29.98443508514924 29.98443508514924 29.98443508514924 29.98443508514924 29.98443508514924 29.98443508514924 29.98443508514924 29.98443508514924 29.98443508514924 29.98443508514924 29.98443508514924 29.98443508514924 30.015198681560154 30.015198681560154 30.045962277971068 30.107489470792896 30.199780260025637 30.261307452847465 30.322834645669293 30.415125434902034 30.47665262772386 30.47665262772386 30.507416224134772 30.507416224134772 30.538179820545686 30.5689434169566 30.599707013367514 30.599707013367514 30.630470609778428 30.691997802600255 30.72276139901117 30.784288591832997 30.845815784654825 30.96887017029848 31.06116095953122 31.21497894158579 31.338033327229446 31.461087712873102 31.64566929133858 31.768723676982237 31.79948727339315 31.86101446621498 31.95330525544772 32.107123237502286 32.168650430324114 32.29170481596777 32.38399560520051 32.414759201611425 32.47628639443325 32.53781358725508 32.63010437648782 32.72239516572056 32.814685954953305 32.87621314777513 32.968503937007874 33.09155832265153 33.30690349752793 33.49148507599341 33.614539461637065 33.829884636513455 33.860648232924376 34.137520600622594 34.41439296832082 34.5989745467863 34.90661051089544 35.21424647500458 35.39882805347006 35.67570042116829 35.86028199963376 36.07562717451016 36.26020875297564 36.3832631386193 36.598608313495696 36.81395348837209 36.96777147042666 37.24464383812489 37.398461820179456 37.58304339864493 37.767624977110415 38.013733748397726 38.19831532686321 38.413660501739606 38.53671488738326 38.78282365867057 38.99816883354697 39.21351400842337 39.5211499725325 39.7364951474089 40.136421900750776 40.50558505768174 40.78245742537997 41.18238417872185 41.459256546420065 42.013001281816514 42.32063724592565 42.59750961362388 43.058963559787585 43.48965390954038 43.828053470060425 44.35103460904596 44.627906976744185 45.05859732649698 45.3354696941952 45.61234206189343 46.16608679728987 46.442959164988096 46.84288591832997 47.18128547885003 47.39663065372642 47.67350302142465 47.91961179271196 48.073429774766524 48.28877494964292 48.44259293169749 48.6887017029848 49.05786485991577 49.21168284197033 49.45779161325764 49.76542757736678 49.95000915583226 50.22688152353049 50.41146310199597 50.81138985533785 51.11902581944699 51.27284380150155 51.54971616919978 51.73429774766526 52.0419337117744 52.34956967588353 52.56491485075993 52.87255081486907 53.118659586156376 53.27247756821095 53.64164072514191 53.73393151437466 53.85698590001831 53.980040285661964 54.072331074894706 54.19538546053836 54.34920344259293 54.41073063541476 54.53378502105841 54.626075810291155 54.68760300311298 54.77989379234572 54.841420985167545 54.933711774400294 54.99523896722212 55.05676616004395 55.21058414209851 55.30287493133125 55.36440212415309 55.57974729902948 55.67203808826222 55.82585607031679 56.01043764878227 56.13349203442593 56.348837209302324 56.441127998535066 56.56418238417872 56.718000366233284 56.81029115546603 56.964109137520595 57.117927119575164 57.27174510162973 57.39479948727339 57.48709027650613 57.57938106573887 57.70243545138253 57.79472624061527 57.917780626258924 57.97930781908075 58.010071415491666 58.010071415491666 58.010071415491666 58.010071415491666 58.010071415491666 58.010071415491666 58.010071415491666 58.010071415491666 57.97930781908075 57.94854422266984 57.94854422266984 57.917780626258924 57.8562534334371 57.8562534334371 57.82548983702618 57.79472624061527 57.79472624061527 57.79472624061527 57.79472624061527 57.79472624061527 57.79472624061527 57.79472624061527 57.79472624061527 57.79472624061527 57.79472624061527 57.82548983702618 57.82548983702618 57.82548983702618 57.82548983702618 57.82548983702618 57.8562534334371 57.8562534334371 57.8562534334371 57.8562534334371 57.88701702984801 57.88701702984801 57.88701702984801 57.88701702984801 57.917780626258924 57.917780626258924 57.917780626258924 57.917780626258924 57.917780626258924 57.917780626258924 57.917780626258924 57.917780626258924 57.917780626258924 57.917780626258924 57.917780626258924 57.917780626258924 57.917780626258924 57.917780626258924 57.917780626258924 57.917780626258924 57.917780626258924 57.917780626258924 57.917780626258924 57.917780626258924 57.917780626258924 57.917780626258924 57.917780626258924 57.917780626258924 57.917780626258924 57.917780626258924 57.917780626258924 57.917780626258924 57.917780626258924 57.917780626258924 57.917780626258924 57.917780626258924 57.917780626258924 57.94854422266984 57.97930781908075 58.04083501190259 58.04083501190259 58.071598608313494 58.1023622047244 58.13312580113532 58.163889397546235 58.22541659036806 58.25618018677898 58.28694378318989 58.28694378318989 58.317707379600805 58.317707379600805 58.317707379600805 58.34847097601172 58.37923457242263 58.37923457242263 58.37923457242263 58.37923457242263 58.40999816883354 58.37923457242263 58.40999816883354 58.40999816883354 58.44076176524446 58.47152536165537 58.50228895806629 58.50228895806629 58.533052554477194 58.563816150888115 58.59457974729903 58.62534334370994 58.65610694012086 58.68687053653177 58.68687053653177 58.68687053653177 58.71763413294268 58.71763413294268 58.7483977293536 58.779161325764505 58.779161325764505 58.779161325764505 58.809924922175426 58.809924922175426 58.809924922175426 58.809924922175426 58.84068851858633 58.84068851858633 58.84068851858633 58.84068851858633 58.84068851858633 58.84068851858633 58.84068851858633 58.87145211499725 58.84068851858633 58.87145211499725 58.87145211499725 58.84068851858633 58.84068851858633 58.87145211499725 58.84068851858633 58.87145211499725 58.87145211499725 58.87145211499725 58.87145211499725 58.84068851858633 58.87145211499725 58.84068851858633 58.87145211499725 58.84068851858633 58.84068851858633 58.87145211499725 58.84068851858633 58.87145211499725 58.87145211499725 58.84068851858633 58.84068851858633 58.87145211499725 58.87145211499725 58.93297930781908 58.96374290422999 58.99450650064091 59.05603369346274 59.05603369346274 59.117560886284565 59.117560886284565 59.17908807910639 59.2098516755173 59.27137886833913 59.30214246475004 59.332906061160955 59.332906061160955 59.363669657571876 59.363669657571876 59.39443325398278 59.425196850393704 59.425196850393704 59.425196850393704 59.45596044680461 59.45596044680461 59.45596044680461 59.45596044680461 59.45596044680461 59.45596044680461 59.425196850393704 59.425196850393704 59.425196850393704 59.425196850393704 59.39443325398278 59.39443325398278 59.363669657571876 59.363669657571876 59.363669657571876 59.363669657571876 59.363669657571876 59.363669657571876 59.363669657571876 59.363669657571876 59.363669657571876 59.363669657571876 59.363669657571876 59.363669657571876 59.363669657571876 59.39443325398278 59.39443325398278 59.39443325398278 59.39443325398278 59.39443325398278 59.425196850393704 59.45596044680461 59.45596044680461 59.48672404321553 59.48672404321553 59.48672404321553 59.51748763962644 59.48672404321553 59.51748763962644 59.51748763962644 59.48672404321553 59.51748763962644 59.51748763962644 59.51748763962644 59.51748763962644 59.54825123603735 59.579014832448266 59.60977842885918 59.60977842885918 59.64054202527009 59.67130562168101 59.67130562168101 59.732832814502835 59.76359641091375 59.79436000732467 59.82512360373558 59.886650796557404 59.91741439296832 59.94817798937923 59.978941585790146 60.00970518220106 60.040468778611974 60.07123237502289 60.07123237502289 60.1019959714338 60.07123237502289 60.07123237502289 60.1019959714338 60.07123237502289 60.1019959714338 60.07123237502289 60.07123237502289 60.07123237502289 60.1019959714338 60.1019959714338 60.07123237502289 60.07123237502289 60.07123237502289 60.07123237502289 60.1019959714338 60.1019959714338 60.07123237502289 60.07123237502289 60.07123237502289 60.07123237502289 60.07123237502289 60.07123237502289 60.07123237502289 60.07123237502289 60.07123237502289 60.07123237502289 60.07123237502289 60.07123237502289 60.07123237502289 60.1019959714338 60.07123237502289 60.07123237502289 60.07123237502289 60.1019959714338 60.07123237502289 60.07123237502289 60.1019959714338 60.07123237502289 60.1019959714338 60.07123237502289 60.1019959714338 60.1019959714338 60.1019959714338 60.1019959714338 60.1019959714338 60.1019959714338 60.132759567844715 60.132759567844715 60.132759567844715 60.16352316425563 60.16352316425563 60.132759567844715 60.132759567844715 60.132759567844715 60.132759567844715 60.132759567844715 60.132759567844715 60.132759567844715 60.132759567844715 60.132759567844715 60.132759567844715 60.132759567844715 60.132759567844715 60.132759567844715 60.132759567844715 60.132759567844715 60.132759567844715 60.132759567844715 60.132759567844715 60.132759567844715 60.132759567844715 60.132759567844715 60.132759567844715 60.132759567844715 60.1019959714338 60.1019959714338 60.1019959714338 60.040468778611974 60.040468778611974 59.978941585790146 59.91741439296832 59.85588720014648 59.732832814502835 59.54825123603735 59.45596044680461 59.27137886833913 59.117560886284565 58.93297930781908 58.7483977293536 58.59457974729903 58.37923457242263 58.19465299395715 58.010071415491666 57.763962644204355 57.517853872917044 57.33327229445156 57.056399926753336 56.87181834828786 56.59494598058963 56.31807361289141 56.13349203442593 55.76432887749496 55.57974729902948 55.425929316974916 55.24134773850943 54.9644753708112 54.68760300311298 54.44149423182567 54.226149056949275 53.980040285661964 53.76469511078557 53.45705914667643 53.14942318256729 52.96484160410181 52.65720563999267 52.34956967588353 52.16498809741805 51.85735213330892 51.64200695843252 51.39589818714521 51.149789415857896 50.96520783739241 50.688335469694195 50.380699505585056 50.134590734297745 49.95000915583226 49.76542757736678 49.61160959531221 49.427028016846734 49.08862845632668 48.81175608862846 48.44259293169749 48.19648416041018 47.85808459989013 47.64273942501373 47.304339864493684 46.965940303973625 46.750595129097235 46.442959164988096 46.13532320087896 45.91997802600257 45.52005127266068 45.30470609778429 45.12012451931881 44.81248855520967 44.627906976744185 44.32027101263505 43.95110785570408 43.67423548800586 43.48965390954038 43.305072331074896 43.12049075260941 42.8743819813221 42.62827321003479 42.412928035158394 42.16681926387108 41.9822376854056 41.7668925105292 41.58231093206372 41.36696575718733 41.15162058231093 40.90551181102362 40.72093023255814 40.50558505768174 40.35176707562717 40.136421900750776 39.95184032228529 39.79802234023072 39.61344076176525 39.49038637612159 39.30580479765611 39.121223219190625 38.90587804431423 38.69053286943783 38.50595129097235 38.25984251968504 38.13678813404138 37.89067936275407 37.67533418787768 37.4907526094122 37.24464383812489 36.998535066837576 36.84471708478301 36.598608313495696 36.3832631386193 36.22944515656473 36.01409998168833 35.89104559604468 35.67570042116829 35.46035524629189 35.24501007141549 34.96813770371727 34.8143197216627 34.69126533601904 34.50668375755356 34.32210217908808 34.19904779344442 34.04522981138985 33.95293902215711 33.89141182933528 33.829884636513455 33.73759384728072 33.64530305804798 33.58377586522615 33.522248672404324 33.460721479582496 33.42995788317158 33.33766709393884 33.27613990111701 33.214612708295185 33.15308551547336 33.09155832265153 32.99926753341879 32.87621314777513 32.84544955136422 32.75315876213148 32.69163156930965 32.63010437648782 32.568577183665994 32.44552279802234 32.3532320087896 32.19941402673503 32.107123237502286 31.984068851858634 31.922541659036806 31.79948727339315 31.676432887749495 31.614905694927668 31.491851309284012 31.430324116462188 31.399560520051274 31.307269730818533 31.245742537996705 31.184215345174877 31.06116095953122 30.96887017029848 30.81505218824391 30.599707013367514 30.415125434902034 30.38436183849112 30.38436183849112 30.353598242080206 30.353598242080206 30.261307452847465 30.199780260025637 30.169016663614723 30.13825306720381 30.13825306720381 30.107489470792896 30.13825306720381 30.107489470792896 30.107489470792896 30.107489470792896 30.107489470792896 30.107489470792896 30.107489470792896 30.107489470792896 30.107489470792896 30.107489470792896 30.07672587438198 30.045962277971068 30.015198681560154 29.98443508514924 29.953671488738326 29.953671488738326 29.922907892327412 29.953671488738326 29.922907892327412 29.922907892327412 29.922907892327412 29.8921442959165 29.8921442959165 29.8921442959165 29.8921442959165 29.861380699505585 29.861380699505585 29.83061710309467 29.83061710309467 29.83061710309467 29.799853506683757 29.799853506683757 29.799853506683757 29.799853506683757 29.799853506683757 29.769089910272843 29.769089910272843 29.769089910272843 29.769089910272843 29.769089910272843 29.769089910272843 29.769089910272843 29.73832631386193 29.769089910272843 29.73832631386193 29.769089910272843 29.73832631386193 29.769089910272843 29.73832631386193 29.73832631386193 29.769089910272843 29.73832631386193 29.73832631386193 29.73832631386193 29.73832631386193 29.769089910272843 29.769089910272843 29.769089910272843 29.73832631386193 29.769089910272843 29.769089910272843 29.73832631386193 29.73832631386193 29.769089910272843 29.769089910272843 29.73832631386193 29.73832631386193 29.73832631386193 29.73832631386193 29.73832631386193 29.769089910272843 29.769089910272843 29.73832631386193 29.73832631386193 29.73832631386193 29.73832631386193 29.73832631386193 29.769089910272843 29.769089910272843 29.769089910272843 29.769089910272843 29.73832631386193 29.769089910272843 29.769089910272843 29.769089910272843 29.73832631386193 29.73832631386193 29.73832631386193 29.769089910272843 29.769089910272843 29.769089910272843 29.769089910272843 29.73832631386193 29.73832631386193 29.769089910272843 29.73832631386193 29.73832631386193 29.769089910272843 29.73832631386193 29.73832631386193 29.73832631386193 29.769089910272843 29.73832631386193 29.73832631386193 29.769089910272843 29.769089910272843 29.769089910272843 29.769089910272843 29.73832631386193 29.769089910272843 29.769089910272843 29.73832631386193 29.769089910272843 29.73832631386193 29.769089910272843 29.769089910272843 29.769089910272843 29.769089910272843 29.73832631386193 29.73832631386193 29.769089910272843 29.769089910272843 29.73832631386193 29.769089910272843 29.769089910272843 29.769089910272843 29.73832631386193 29.769089910272843 29.73832631386193 29.769089910272843 29.769089910272843 29.73832631386193 29.73832631386193 29.769089910272843 29.73832631386193 29.73832631386193 29.73832631386193 29.73832631386193 29.769089910272843 29.73832631386193 29.73832631386193 29.73832631386193 29.769089910272843 29.73832631386193 29.73832631386193 29.73832631386193 29.73832631386193 29.769089910272843 29.73832631386193 29.769089910272843 29.73832631386193 29.769089910272843 29.73832631386193 29.73832631386193 29.769089910272843 29.73832631386193 29.73832631386193 29.73832631386193 29.769089910272843 29.73832631386193 29.73832631386193 29.73832631386193 29.73832631386193 29.73832631386193 29.769089910272843 29.73832631386193 29.73832631386193 29.73832631386193 29.73832631386193 29.73832631386193 29.73832631386193 29.73832631386193 29.73832631386193 29.769089910272843 29.73832631386193 29.73832631386193 29.769089910272843 29.769089910272843 29.73832631386193 29.73832631386193 29.769089910272843 29.73832631386193 29.769089910272843 29.73832631386193 29.73832631386193 29.73832631386193 29.73832631386193 29.769089910272843 29.73832631386193 29.73832631386193 29.73832631386193 29.769089910272843 29.73832631386193 29.73832631386193 29.73832631386193 29.73832631386193 29.73832631386193 29.769089910272843 29.769089910272843 29.73832631386193 29.73832631386193 29.73832631386193 29.73832631386193 29.73832631386193 29.73832631386193 29.73832631386193 29.73832631386193 29.769089910272843 29.73832631386193 29.769089910272843 29.73832631386193 29.73832631386193 29.769089910272843 29.769089910272843 29.73832631386193 29.73832631386193 29.769089910272843 29.769089910272843 29.73832631386193 29.73832631386193 29.73832631386193 29.769089910272843 29.73832631386193 29.73832631386193 29.769089910272843 29.769089910272843 29.73832631386193 29.73832631386193 29.73832631386193 29.73832631386193 29.73832631386193 29.769089910272843 29.769089910272843 29.769089910272843 29.73832631386193 29.73832631386193 29.769089910272843 29.73832631386193 29.73832631386193 29.73832631386193 29.769089910272843 29.73832631386193 29.73832631386193 29.73832631386193 29.769089910272843 29.73832631386193 29.73832631386193 29.73832631386193 29.73832631386193 29.769089910272843 29.769089910272843 29.73832631386193 29.73832631386193 29.769089910272843 29.769089910272843 29.73832631386193 29.73832631386193 29.73832631386193 29.73832631386193 29.73832631386193 29.73832631386193 29.769089910272843 29.73832631386193 29.73832631386193 29.73832631386193 29.73832631386193 29.769089910272843 29.73832631386193 29.769089910272843 29.73832631386193 29.769089910272843 29.769089910272843 29.769089910272843 29.73832631386193 29.73832631386193 29.73832631386193 29.769089910272843 29.73832631386193 29.73832631386193 29.73832631386193 29.769089910272843 29.73832631386193 29.73832631386193 29.73832631386193 29.73832631386193 29.73832631386193 29.73832631386193 29.73832631386193 29.769089910272843 29.73832631386193 29.73832631386193 29.73832631386193 29.73832631386193 29.73832631386193 29.73832631386193 29.73832631386193 29.73832631386193 29.769089910272843 29.769089910272843 29.73832631386193 29.73832631386193 29.73832631386193 29.73832631386193 29.769089910272843 29.73832631386193 29.769089910272843 29.73832631386193 29.73832631386193 29.73832631386193 29.73832631386193 29.73832631386193 29.73832631386193 29.769089910272843 29.769089910272843 29.73832631386193 29.769089910272843 29.769089910272843 29.769089910272843 29.73832631386193 29.769089910272843 29.73832631386193 29.73832631386193 29.73832631386193 29.769089910272843 29.769089910272843 29.769089910272843 29.73832631386193 29.73832631386193 29.73832631386193 29.73832631386193 29.769089910272843 29.73832631386193 29.769089910272843 29.769089910272843 29.769089910272843 29.73832631386193 29.73832631386193 29.73832631386193 29.73832631386193 29.769089910272843 29.769089910272843 29.73832631386193 29.73832631386193 29.769089910272843 29.73832631386193 29.73832631386193 29.73832631386193 29.73832631386193 29.73832631386193 29.73832631386193 29.73832631386193 29.73832631386193 29.73832631386193 29.73832631386193 29.73832631386193 29.73832631386193 29.769089910272843 29.769089910272843 29.73832631386193 29.73832631386193 29.73832631386193 29.769089910272843 29.73832631386193 29.73832631386193 29.73832631386193 29.769089910272843 29.73832631386193 29.73832631386193 29.73832631386193 29.769089910272843 29.769089910272843 29.769089910272843 29.73832631386193 29.73832631386193 29.73832631386193 29.73832631386193 29.73832631386193 29.73832631386193 29.73832631386193 29.73832631386193 29.73832631386193 29.73832631386193 29.73832631386193 29.769089910272843 29.769089910272843 29.73832631386193 29.73832631386193 29.769089910272843 29.769089910272843 29.769089910272843 29.73832631386193 29.73832631386193 29.73832631386193 29.73832631386193 29.73832631386193 29.769089910272843 29.73832631386193 29.769089910272843 29.73832631386193 29.769089910272843 29.73832631386193 29.73832631386193 29.769089910272843 29.73832631386193 29.73832631386193 29.73832631386193 29.769089910272843 29.73832631386193 29.769089910272843 29.73832631386193 29.73832631386193 29.769089910272843 29.769089910272843 29.769089910272843 29.73832631386193 29.73832631386193 29.73832631386193 29.73832631386193 29.769089910272843 29.769089910272843 29.73832631386193 29.769089910272843 29.73832631386193 29.769089910272843 29.73832631386193 29.73832631386193 29.73832631386193 29.769089910272843 29.73832631386193 29.769089910272843 29.769089910272843 29.769089910272843 29.73832631386193 29.73832631386193 29.73832631386193 29.769089910272843 29.73832631386193 29.769089910272843 29.73832631386193 29.769089910272843 29.73832631386193 29.73832631386193 29.73832631386193 29.73832631386193 29.73832631386193 29.73832631386193 29.769089910272843 29.73832631386193 29.73832631386193 29.73832631386193 29.73832631386193 29.769089910272843 29.73832631386193 29.769089910272843 29.769089910272843 29.769089910272843 29.73832631386193 29.73832631386193 29.73832631386193 29.769089910272843 29.73832631386193 29.769089910272843 29.73832631386193 29.73832631386193 29.769089910272843 29.769089910272843 29.769089910272843 29.73832631386193 29.769089910272843 29.73832631386193 29.769089910272843 29.73832631386193 29.769089910272843 29.73832631386193 29.73832631386193 29.73832631386193 29.73832631386193 29.769089910272843 29.769089910272843 29.73832631386193 29.73832631386193 29.769089910272843 29.769089910272843 29.73832631386193 29.73832631386193 29.73832631386193 29.769089910272843 29.73832631386193 29.73832631386193 29.769089910272843 29.73832631386193 29.73832631386193 29.73832631386193 29.73832631386193 29.73832631386193 29.73832631386193 29.73832631386193 29.73832631386193 29.73832631386193 29.769089910272843 29.769089910272843 29.73832631386193 29.73832631386193 29.769089910272843 29.73832631386193 29.73832631386193 29.769089910272843 29.73832631386193 29.73832631386193 29.73832631386193 29.73832631386193 29.73832631386193 29.769089910272843 29.73832631386193 29.73832631386193 29.73832631386193 29.769089910272843 29.769089910272843 29.769089910272843 29.769089910272843 29.73832631386193 29.73832631386193 29.73832631386193 29.73832631386193 29.769089910272843 29.769089910272843 29.769089910272843 29.73832631386193 29.73832631386193 29.769089910272843 29.769089910272843 29.73832631386193 29.73832631386193 29.73832631386193 29.73832631386193 29.73832631386193 29.73832631386193 29.769089910272843 29.73832631386193 29.73832631386193 29.769089910272843 29.769089910272843 29.769089910272843 29.73832631386193 29.769089910272843 29.769089910272843 29.769089910272843 29.73832631386193 29.769089910272843 29.73832631386193 29.73832631386193 29.73832631386193 29.769089910272843 29.769089910272843 29.73832631386193 29.73832631386193 29.73832631386193 29.769089910272843 29.769089910272843 29.73832631386193 29.73832631386193 29.769089910272843 29.769089910272843 29.73832631386193 29.73832631386193 29.769089910272843 29.73832631386193 29.73832631386193 29.73832631386193 29.769089910272843 29.73832631386193 29.769089910272843 29.73832631386193 29.769089910272843 29.769089910272843 29.73832631386193 29.73832631386193 29.73832631386193 29.769089910272843 29.769089910272843 29.769089910272843 29.73832631386193 29.769089910272843 29.769089910272843 29.73832631386193 29.73832631386193 29.73832631386193 29.73832631386193 29.769089910272843 29.73832631386193 29.769089910272843 29.73832631386193 29.73832631386193 29.769089910272843 29.769089910272843 29.73832631386193 29.769089910272843 29.769089910272843 29.73832631386193 29.73832631386193 29.73832631386193 29.73832631386193 29.73832631386193 29.73832631386193 29.769089910272843 29.73832631386193 29.73832631386193 29.769089910272843 29.769089910272843 29.73832631386193 29.73832631386193 29.769089910272843 29.73832631386193 29.73832631386193 29.73832631386193 29.73832631386193 29.769089910272843 29.73832631386193 29.73832631386193 29.73832631386193 29.769089910272843 29.769089910272843 29.73832631386193 29.73832631386193 29.769089910272843 29.73832631386193 29.73832631386193 29.73832631386193 29.73832631386193 29.769089910272843 29.73832631386193 29.73832631386193 29.73832631386193 29.73832631386193 29.769089910272843 29.769089910272843 29.73832631386193 29.73832631386193 29.73832631386193 29.73832631386193 29.73832631386193 29.73832631386193 29.73832631386193 29.769089910272843 29.73832631386193 29.73832631386193 29.769089910272843 29.73832631386193 29.73832631386193 29.73832631386193 29.73832631386193 29.73832631386193 29.73832631386193 29.769089910272843 29.73832631386193 29.73832631386193 29.73832631386193 29.73832631386193 29.73832631386193 29.73832631386193 29.769089910272843 29.73832631386193 29.769089910272843 29.73832631386193 29.769089910272843 29.73832631386193 29.73832631386193 29.73832631386193 29.769089910272843 29.73832631386193 29.73832631386193 29.769089910272843 29.769089910272843 29.73832631386193 29.769089910272843 29.769089910272843 29.73832631386193 29.73832631386193 29.73832631386193 29.73832631386193 29.73832631386193 29.73832631386193 29.73832631386193 29.73832631386193 29.73832631386193 29.73832631386193 29.73832631386193 29.73832631386193 29.769089910272843 29.73832631386193 29.73832631386193 29.73832631386193 29.73832631386193 29.73832631386193 29.769089910272843 29.73832631386193 29.73832631386193 29.73832631386193 29.73832631386193 29.73832631386193 29.73832631386193 29.73832631386193 29.769089910272843 29.73832631386193 29.73832631386193 29.73832631386193 29.73832631386193 29.769089910272843 29.769089910272843 29.769089910272843 29.769089910272843 29.73832631386193 29.769089910272843 29.73832631386193 29.73832631386193 29.73832631386193 29.769089910272843 29.73832631386193 29.73832631386193 29.73832631386193 29.73832631386193 29.73832631386193 29.73832631386193 29.769089910272843 29.73832631386193 29.73832631386193 29.73832631386193 29.73832631386193 29.73832631386193 29.73832631386193 29.769089910272843 29.73832631386193 29.769089910272843 29.73832631386193 29.73832631386193 29.73832631386193 29.73832631386193 29.769089910272843 29.73832631386193 29.73832631386193 29.769089910272843 29.73832631386193 29.769089910272843 29.73832631386193 29.73832631386193 29.769089910272843 29.73832631386193 29.73832631386193 29.769089910272843 29.769089910272843 29.73832631386193 29.769089910272843 29.769089910272843 29.73832631386193 29.73832631386193 29.73832631386193 29.73832631386193 29.769089910272843 29.769089910272843 29.769089910272843 29.73832631386193 29.769089910272843 29.769089910272843 29.769089910272843 29.73832631386193 29.769089910272843 29.73832631386193 29.73832631386193 29.73832631386193 29.73832631386193 29.73832631386193 29.73832631386193 29.73832631386193 29.73832631386193 29.73832631386193 29.73832631386193 29.73832631386193 29.769089910272843 29.769089910272843 29.769089910272843 29.769089910272843 29.73832631386193 29.73832631386193 29.73832631386193 29.769089910272843 29.73832631386193 29.73832631386193 29.769089910272843 29.73832631386193 29.73832631386193 29.73832631386193 29.73832631386193 29.73832631386193 29.769089910272843 29.769089910272843 29.73832631386193 29.73832631386193 29.73832631386193 29.73832631386193 29.769089910272843 29.73832631386193 29.73832631386193 29.73832631386193 29.73832631386193 29.73832631386193 29.73832631386193 29.73832631386193 29.769089910272843 29.73832631386193 29.73832631386193 29.769089910272843 29.769089910272843 29.73832631386193 29.73832631386193 29.73832631386193 29.73832631386193 29.73832631386193 29.73832631386193 29.73832631386193 29.73832631386193 29.73832631386193 29.769089910272843 29.73832631386193 29.769089910272843 29.769089910272843 29.769089910272843 29.73832631386193 29.73832631386193 29.73832631386193 29.73832631386193 29.769089910272843 29.73832631386193 29.769089910272843 29.73832631386193 29.73832631386193 29.73832631386193 29.73832631386193 29.73832631386193 29.73832631386193 29.769089910272843 29.769089910272843 29.769089910272843 29.769089910272843 29.769089910272843 29.799853506683757 29.83061710309467 29.861380699505585 29.861380699505585 29.8921442959165 29.922907892327412 29.922907892327412 29.953671488738326 29.98443508514924 30.015198681560154 30.045962277971068 30.045962277971068 30.07672587438198 30.107489470792896 30.13825306720381 30.169016663614723 30.261307452847465 30.29207104925838 30.353598242080206 30.415125434902034 30.507416224134772 30.630470609778428 30.72276139901117 30.81505218824391 30.938106573887566 31.06116095953122 31.12268815235305 31.27650613440762 31.36879692364036 31.522614905694926 31.70719648416041 31.86101446621498 32.07635964109137 32.168650430324114 32.3532320087896 32.568577183665994 32.72239516572056 32.93774034059696 33.214612708295185 33.368430690349754 33.522248672404324 33.73759384728072 33.89141182933528 34.26057498626625 34.475920161142646 34.783556125251785 35.12195568577184 35.36806445705915 35.86028199963376 36.198681560153815 36.506317524262954 36.93700787401575 37.2754074345358 37.767624977110415 38.25984251968504 38.629005676616 39.24427760483428 39.61344076176525 39.95184032228529 40.35176707562717 40.690166636147225 41.336202160776416 41.73612891411829 42.13605566746017 42.59750961362388 42.93590917414393 43.42812671671855 43.7665262772386 44.25874381981322 44.75096136238784 45.089360922907886 45.643105658304336 46.16608679728987 46.504486357809924 47.212049075260936 47.73503021424648 47.91961179271196 48.38106573887566 48.75022889580663 49.1501556491485 49.70390038454495 49.980772752243176 50.34993590917414 50.56528108405054 50.842153451748764 51.18055301226882 51.39589818714521 51.85735213330892 52.19575169382897 52.411096868705364 52.718732832814496 52.9340780076909 53.21095037538912 53.518586339498256 53.70316791796374 53.980040285661964 54.25691265336019 54.47225782823658 54.7183665995239 54.9644753708112 55.149056949276684 55.36440212415309 55.51822010620765 55.76432887749496 55.97967405237136 56.13349203442593 56.41036440212415 56.53341878776781 56.656473173411456 56.93334554110969 57.08716352316425 57.210217908807905 57.48709027650613 57.61014466214979 57.8562534334371 58.010071415491666 58.25618018677898 58.47152536165537 58.65610694012086 58.90221571140816 59.17908807910639 59.332906061160955 59.54825123603735 59.732832814502835 59.94817798937923 60.19428676066654 60.378868339132026 60.655740706830244 60.932613074528476 61.11719465299395 61.42483061710309 61.609412195568574 61.73246658121223 61.91704815967771 62.101629738143195 62.28621131660868 62.44002929866325 62.53232008789599 62.68613806995056 62.77842885918329 62.901483244826956 62.99377403405969 63.024537630470604 63.08606482329243 63.17835561252517 63.20911920893609 63.27064640175792 63.33217359457974 63.33217359457974 63.33217359457974 63.36293719099066 63.36293719099066 63.36293719099066 63.36293719099066 63.36293719099066 63.36293719099066 63.36293719099066 63.36293719099066 63.36293719099066 63.33217359457974 63.33217359457974 63.33217359457974 63.33217359457974 63.33217359457974 63.30140999816883 63.27064640175792 63.27064640175792 63.30140999816883 63.27064640175792 63.30140999816883 63.30140999816883 63.30140999816883 63.30140999816883 63.30140999816883 63.30140999816883 63.30140999816883 63.33217359457974 63.33217359457974 63.36293719099066 63.39370078740157 63.424464383812484 63.4552279802234 63.48599157663431 63.54751876945614 63.578282365867054 63.60904596227797 63.60904596227797 63.63980955868888 63.63980955868888 63.63980955868888 63.63980955868888 63.63980955868888 63.63980955868888 63.63980955868888 63.63980955868888 63.63980955868888 63.63980955868888 63.60904596227797 63.63980955868888 63.63980955868888 63.60904596227797 63.63980955868888 63.60904596227797 63.60904596227797 63.60904596227797 63.60904596227797 63.60904596227797 63.578282365867054 63.578282365867054 63.54751876945614 63.516755173045226 63.516755173045226 63.516755173045226 63.516755173045226 63.516755173045226 63.516755173045226 63.516755173045226 63.516755173045226 63.516755173045226 63.516755173045226 63.516755173045226 63.516755173045226 63.516755173045226 63.516755173045226 63.54751876945614 63.54751876945614 63.578282365867054 63.578282365867054 63.578282365867054 63.60904596227797 63.60904596227797 63.63980955868888 63.670573155099795 63.670573155099795 63.670573155099795 63.670573155099795 63.70133675151071 63.70133675151071 63.670573155099795 63.70133675151071 63.70133675151071 63.70133675151071 63.70133675151071 63.70133675151071 63.670573155099795 63.70133675151071 63.670573155099795 63.670573155099795 63.670573155099795 63.63980955868888 63.63980955868888 63.63980955868888 63.60904596227797 63.578282365867054 63.54751876945614 63.54751876945614 63.54751876945614 63.54751876945614 63.54751876945614 63.54751876945614 63.516755173045226 63.48599157663431 63.48599157663431 63.48599157663431 63.424464383812484 63.36293719099066 63.27064640175792 63.20911920893609 63.14759201611426 63.11682841970335 63.055301226881525 62.99377403405969 62.901483244826956 62.80919245559421 62.77842885918329 62.74766526277239 62.68613806995056 62.68613806995056 62.65537447353964 62.62461087712873 62.62461087712873 62.5630836843069 62.50155649148507 62.47079289507416 62.44002929866325 62.44002929866325 62.44002929866325 62.44002929866325 62.44002929866325 62.409265702252334 62.37850210584142 62.37850210584142 62.37850210584142 62.37850210584142 62.37850210584142 62.347738509430506 62.347738509430506 62.31697491301959 62.28621131660868 62.255447720197765 62.22468412378685 62.22468412378685 62.19392052737594 62.16315693096502 62.16315693096502 62.13239333455411 62.13239333455411 62.101629738143195 62.101629738143195 62.101629738143195 62.07086614173228 62.07086614173228 62.101629738143195 62.07086614173228 62.101629738143195 62.07086614173228 62.101629738143195 62.101629738143195 62.07086614173228 62.101629738143195 62.101629738143195 62.101629738143195 62.07086614173228 62.101629738143195 62.101629738143195 62.101629738143195 62.101629738143195 62.101629738143195 62.101629738143195 62.101629738143195 62.101629738143195 62.101629738143195 62.101629738143195 62.101629738143195 62.101629738143195 62.101629738143195 62.101629738143195 62.101629738143195 62.101629738143195 62.101629738143195 62.101629738143195 62.101629738143195 62.101629738143195 62.101629738143195 62.13239333455411 62.13239333455411 62.13239333455411 62.13239333455411 62.13239333455411 62.13239333455411 62.13239333455411 62.13239333455411 62.13239333455411 62.13239333455411 62.101629738143195 62.101629738143195 62.04010254532137 61.97857535249954 61.947811756088626 61.8862845632668 61.8862845632668 61.855520966855885 61.855520966855885 61.82475737044497 61.82475737044497 61.82475737044497 61.82475737044497 61.82475737044497 61.82475737044497 61.82475737044497 61.82475737044497 61.82475737044497 61.82475737044497 61.82475737044497 61.82475737044497 61.82475737044497 61.82475737044497 61.855520966855885 61.82475737044497 61.855520966855885 61.82475737044497 61.82475737044497 61.82475737044497 61.82475737044497 61.82475737044497 61.855520966855885 61.855520966855885 61.82475737044497 61.82475737044497 61.82475737044497 61.855520966855885 61.82475737044497 61.82475737044497 61.76323017762314 61.76323017762314 61.73246658121223 61.701702984801315 61.6709393883904 61.64017579197949 61.6709393883904 61.64017579197949 61.64017579197949 61.64017579197949 61.64017579197949 61.64017579197949 61.64017579197949 61.64017579197949 61.64017579197949 61.64017579197949 61.64017579197949 61.64017579197949 61.64017579197949 61.6709393883904 61.64017579197949 61.64017579197949 61.64017579197949 61.64017579197949 61.64017579197949 61.64017579197949 61.64017579197949 61.6709393883904 61.64017579197949 61.6709393883904 61.64017579197949 61.64017579197949 61.64017579197949 61.64017579197949 61.6709393883904 61.64017579197949 61.6709393883904 61.64017579197949 61.64017579197949 61.64017579197949 61.64017579197949 61.64017579197949 61.6709393883904 61.64017579197949 61.64017579197949 61.64017579197949 61.6709393883904 61.64017579197949 61.6709393883904 61.6709393883904 61.6709393883904 61.701702984801315 61.6709393883904 61.6709393883904 61.6709393883904 61.6709393883904 61.6709393883904 61.6709393883904 61.701702984801315 61.701702984801315 61.6709393883904 61.6709393883904 61.6709393883904 61.6709393883904 61.701702984801315 61.701702984801315 61.6709393883904 61.6709393883904 61.6709393883904 61.6709393883904 61.701702984801315 61.6709393883904 61.701702984801315 61.6709393883904 61.701702984801315 61.701702984801315 61.6709393883904 61.701702984801315 61.701702984801315 61.6709393883904 61.701702984801315 61.701702984801315 61.701702984801315 61.701702984801315 61.6709393883904 61.701702984801315 61.6709393883904 61.701702984801315 61.701702984801315 61.701702984801315 61.701702984801315 61.6709393883904 61.6709393883904 61.6709393883904 61.6709393883904 61.6709393883904 61.6709393883904 61.64017579197949 61.547885002746746 61.45559421351401 61.36330342428126 61.240249038637614 61.14795824940487 61.02490386376122 60.87108588170665 60.80955868888482 60.686504303241165 60.56344991759751 60.3173411463102 60.132759567844715 60.00970518220106 59.79436000732467 59.67130562168101 59.54825123603735 59.363669657571876 59.24061527192821 59.05603369346274 58.87145211499725 58.7483977293536 58.563816150888115 58.37923457242263 58.25618018677898 58.04083501190259 57.88701702984801 57.70243545138253 57.456326680095216 57.210217908807905 56.964109137520595 56.77952755905512 56.59494598058963 56.41036440212415 56.16425563083684 55.91814685954953 55.67203808826222 55.48745650979674 55.21058414209851 55.026002563633035 54.77989379234572 54.47225782823658 54.2876762497711 54.01080388207288 53.73393151437466 53.518586339498256 53.21095037538912 52.99560520051273 52.68796923640359 52.411096868705364 52.22651529023988 51.826588536898 51.488188976377955 51.30360739791247 51.08826222303607 50.78062625892693 50.4729902948178 50.288408716352315 50.01153634865409 49.73466398095587 49.51931880607947 49.21168284197033 48.9040468778612 48.6887017029848 48.38106573887566 48.073429774766524 47.88884819630104 47.5812122321919 47.36586705731551 47.02746749679545 46.750595129097235 46.596777147042665 46.41219556857718 46.07379600805713 45.98150521882439 45.735396447537084 45.48928767624977 45.24317890496246 44.90477934444241 44.81248855520967 44.56637978392236 44.32027101263505 44.10492583775865 43.79728987364952 43.612708295184035 43.33583592748581 43.058963559787585 42.8743819813221 42.505218824391136 42.32063724592565 42.105292071049256 41.82841970335103 41.61307452847464 41.36696575718733 41.05932979307819 40.87474821461271 40.6286394433254 40.50558505768174 40.32100347921626 40.07489470792895 39.921076725874386 39.644204358176154 39.428859183299764 39.275041201245195 39.028932429957884 38.81358725508149 38.53671488738326 38.25984251968504 38.075260941219554 37.767624977110415 37.4907526094122 37.2754074345358 36.998535066837576 36.69089910272844 36.41402673503021 36.198681560153815 36.01409998168833 35.76799121040103 35.52188243911371 35.24501007141549 34.96813770371727 34.783556125251785 34.629738143197216 34.35286577549899 34.137520600622594 33.983702618568024 33.73759384728072 33.64530305804798 33.55301226881524 33.460721479582496 33.39919428676067 33.2453763047061 33.15308551547336 33.060794726240616 32.99926753341879 32.93774034059696 32.87621314777513 32.814685954953305 32.72239516572056 32.63010437648782 32.568577183665994 32.47628639443325 32.414759201611425 32.32246841237868 32.168650430324114 32.107123237502286 32.014832448269544 31.891778062625892 31.737960080571323 31.614905694927668 31.491851309284012 31.36879692364036 31.245742537996705 31.153451748763963 31.030397363120308 30.87657938106574 30.784288591832997 30.630470609778428 30.507416224134772 30.353598242080206 30.29207104925838 30.199780260025637 30.07672587438198 30.015198681560154 29.953671488738326 29.922907892327412 29.861380699505585 29.83061710309467 29.83061710309467 29.799853506683757 29.73832631386193 29.73832631386193 29.707562717451015 29.6767991210401 29.646035524629188 29.615271928218274 29.58450833180736 29.553744735396446 29.49221754257462 29.39992675334188 29.369163156930966 29.24610877128731 29.184581578465483 29.123054385643655 29.0 28.969236403589086 28.938472807178172 28.938472807178172 28.938472807178172 28.938472807178172 28.938472807178172 28.938472807178172 28.90770921076726 28.90770921076726 28.90770921076726 28.90770921076726 28.90770921076726 28.90770921076726 28.90770921076726 28.876945614356345 28.876945614356345 28.876945614356345 28.876945614356345 28.84618201794543 28.876945614356345 28.84618201794543 28.84618201794543 28.84618201794543 28.815418421534517 28.815418421534517 28.815418421534517 28.784654825123603 28.784654825123603 28.784654825123603 28.75389122871269 28.75389122871269 28.75389122871269 28.723127632301775 28.723127632301775 28.723127632301775 28.723127632301775 28.723127632301775 28.723127632301775 28.723127632301775 28.723127632301775 28.723127632301775 28.723127632301775 28.723127632301775 28.723127632301775 28.723127632301775 28.723127632301775 28.723127632301775 28.723127632301775 28.723127632301775 28.723127632301775 28.723127632301775 28.723127632301775 28.723127632301775 28.723127632301775 28.723127632301775 28.723127632301775 28.723127632301775 28.723127632301775 28.723127632301775 28.69236403589086 28.69236403589086 28.723127632301775 28.723127632301775 28.723127632301775 28.723127632301775 28.723127632301775 28.723127632301775 28.723127632301775 28.69236403589086 28.723127632301775 28.69236403589086 28.69236403589086 28.723127632301775 28.69236403589086 28.69236403589086 28.723127632301775 28.723127632301775 28.69236403589086 28.723127632301775 28.723127632301775 28.69236403589086 28.723127632301775 28.69236403589086 28.69236403589086 28.69236403589086 28.69236403589086 28.69236403589086 28.69236403589086 28.69236403589086 28.69236403589086 28.69236403589086 28.69236403589086 28.69236403589086 28.69236403589086 28.69236403589086 28.723127632301775 28.69236403589086 28.69236403589086 28.69236403589086 28.69236403589086 28.69236403589086 28.69236403589086 28.69236403589086 28.69236403589086 28.69236403589086 28.69236403589086 28.69236403589086 28.69236403589086 28.69236403589086 28.69236403589086 28.69236403589086 28.69236403589086 28.69236403589086 28.69236403589086 28.69236403589086 28.69236403589086 28.69236403589086 28.69236403589086 28.69236403589086 28.69236403589086 28.69236403589086 28.69236403589086 28.69236403589086 28.69236403589086 28.69236403589086 28.69236403589086 28.69236403589086 28.69236403589086 28.69236403589086 28.69236403589086 28.69236403589086 28.69236403589086 28.69236403589086 28.69236403589086 28.69236403589086 28.69236403589086 28.69236403589086 28.69236403589086 28.69236403589086 28.69236403589086 28.69236403589086 28.69236403589086 28.69236403589086 28.69236403589086 28.69236403589086 28.69236403589086 28.69236403589086 28.69236403589086 28.69236403589086 28.69236403589086 28.69236403589086 28.69236403589086 28.69236403589086 28.69236403589086 28.69236403589086 28.69236403589086 28.69236403589086 28.69236403589086 28.69236403589086 28.69236403589086 28.69236403589086 28.69236403589086 28.69236403589086 28.69236403589086 28.69236403589086 28.69236403589086 28.69236403589086 28.69236403589086 28.69236403589086 28.69236403589086 28.69236403589086 28.69236403589086 28.69236403589086 28.69236403589086 28.69236403589086 28.69236403589086 28.69236403589086 28.69236403589086 28.69236403589086 28.69236403589086 28.69236403589086 28.69236403589086 28.69236403589086 28.69236403589086 28.69236403589086 28.69236403589086 28.69236403589086 28.69236403589086 28.69236403589086 28.69236403589086 28.69236403589086 28.69236403589086 28.69236403589086 28.69236403589086 28.69236403589086 28.69236403589086 28.69236403589086 28.69236403589086 28.69236403589086 28.69236403589086 28.69236403589086 28.69236403589086 28.69236403589086 28.69236403589086 28.69236403589086 28.69236403589086 28.69236403589086 28.69236403589086 28.69236403589086 28.69236403589086 28.69236403589086 28.69236403589086 28.69236403589086 28.69236403589086 28.69236403589086 28.69236403589086 28.69236403589086 28.69236403589086 28.661600439479948 28.69236403589086 28.69236403589086 28.69236403589086 28.69236403589086 28.69236403589086 28.661600439479948 28.69236403589086 28.69236403589086 28.69236403589086 28.69236403589086 28.69236403589086 28.69236403589086 28.69236403589086 28.69236403589086 28.69236403589086 28.69236403589086 28.69236403589086 28.69236403589086 28.661600439479948 28.661600439479948 28.69236403589086 28.69236403589086 28.69236403589086 28.69236403589086 28.69236403589086 28.69236403589086 28.661600439479948 28.69236403589086 28.69236403589086 28.661600439479948 28.69236403589086 28.69236403589086 28.69236403589086 28.69236403589086 28.661600439479948 28.69236403589086 28.69236403589086 28.661600439479948 28.69236403589086 28.69236403589086 28.69236403589086 28.69236403589086 28.69236403589086 28.69236403589086 28.69236403589086 28.661600439479948 28.69236403589086 28.661600439479948 28.69236403589086 28.69236403589086 28.69236403589086 28.69236403589086 28.661600439479948 28.661600439479948 28.661600439479948 28.661600439479948 28.69236403589086 28.661600439479948 28.69236403589086 28.661600439479948 28.69236403589086 28.69236403589086 28.69236403589086 28.69236403589086 28.69236403589086 28.69236403589086 28.661600439479948 28.69236403589086 28.661600439479948 28.69236403589086 28.69236403589086 28.69236403589086 28.69236403589086 28.69236403589086 28.69236403589086 28.69236403589086 28.661600439479948 28.69236403589086 28.69236403589086 28.661600439479948 28.661600439479948 28.69236403589086 28.661600439479948 28.661600439479948 28.69236403589086 28.661600439479948 28.661600439479948 28.661600439479948 28.69236403589086 28.661600439479948 28.69236403589086 28.69236403589086 28.661600439479948 28.661600439479948 28.69236403589086 28.661600439479948 28.69236403589086 28.661600439479948 28.661600439479948 28.661600439479948 28.661600439479948 28.661600439479948 28.69236403589086 28.69236403589086 28.661600439479948 28.661600439479948 28.661600439479948 28.661600439479948 28.661600439479948 28.661600439479948 28.661600439479948 28.69236403589086 28.661600439479948 28.661600439479948 28.661600439479948 28.661600439479948 28.661600439479948 28.661600439479948 28.69236403589086 28.661600439479948 28.69236403589086 28.661600439479948 28.661600439479948 28.661600439479948 28.661600439479948 28.661600439479948 28.661600439479948 28.661600439479948 28.661600439479948 28.69236403589086 28.661600439479948 28.661600439479948 28.661600439479948 28.661600439479948 28.661600439479948 28.661600439479948 28.661600439479948 28.661600439479948 28.661600439479948 28.661600439479948 28.661600439479948 28.661600439479948 28.661600439479948 28.661600439479948 28.661600439479948 28.661600439479948 28.661600439479948 28.661600439479948 28.661600439479948 28.661600439479948 28.661600439479948 28.661600439479948 28.661600439479948 28.661600439479948 28.661600439479948 28.661600439479948 28.661600439479948 28.661600439479948 28.661600439479948 28.661600439479948 28.661600439479948 28.661600439479948 28.661600439479948 28.661600439479948 28.661600439479948 28.661600439479948 28.661600439479948 28.661600439479948 28.661600439479948 28.661600439479948 28.661600439479948 28.661600439479948 28.661600439479948 28.661600439479948 28.661600439479948 28.661600439479948 28.661600439479948 28.661600439479948 28.661600439479948 28.661600439479948 28.661600439479948 28.661600439479948 28.661600439479948 28.661600439479948 28.661600439479948 28.661600439479948 28.661600439479948 28.661600439479948 28.661600439479948 28.661600439479948 28.661600439479948 28.661600439479948 28.661600439479948 28.661600439479948 28.661600439479948 28.661600439479948 28.661600439479948 28.661600439479948 28.661600439479948 28.661600439479948 28.661600439479948 28.661600439479948 28.661600439479948 28.661600439479948 28.661600439479948 28.661600439479948 28.661600439479948 28.661600439479948 28.661600439479948 28.661600439479948 28.661600439479948 28.661600439479948 28.661600439479948 28.661600439479948 28.661600439479948 28.661600439479948 28.661600439479948 28.661600439479948 28.630836843069034 28.630836843069034 28.661600439479948 28.661600439479948 28.630836843069034 28.661600439479948 28.630836843069034 28.630836843069034 28.630836843069034 28.630836843069034 28.630836843069034 28.630836843069034 28.630836843069034 28.630836843069034 28.630836843069034 28.60007324665812 28.630836843069034 28.630836843069034 28.630836843069034 28.630836843069034 28.630836843069034 28.630836843069034 28.60007324665812 28.60007324665812 28.60007324665812 28.60007324665812 28.60007324665812 28.60007324665812 28.60007324665812 28.60007324665812 28.60007324665812 28.60007324665812 28.60007324665812 28.60007324665812 28.60007324665812 28.60007324665812 28.60007324665812 28.60007324665812 28.60007324665812 28.60007324665812 28.60007324665812 28.60007324665812 28.60007324665812 28.60007324665812 28.60007324665812 28.60007324665812 28.60007324665812 28.60007324665812 28.60007324665812 28.60007324665812 28.60007324665812 28.60007324665812 28.60007324665812 28.60007324665812 28.60007324665812 28.60007324665812 28.60007324665812 28.60007324665812 28.60007324665812 28.60007324665812 28.60007324665812 28.60007324665812 28.569309650247206 28.60007324665812 28.569309650247206 28.60007324665812 28.60007324665812 28.60007324665812 28.60007324665812 28.60007324665812 28.60007324665812 28.60007324665812 28.60007324665812 28.60007324665812 28.569309650247206 28.60007324665812 28.60007324665812 28.60007324665812 28.60007324665812 28.569309650247206 28.60007324665812 28.60007324665812 28.60007324665812 28.60007324665812 28.60007324665812 28.60007324665812 28.60007324665812 28.60007324665812 28.60007324665812 28.60007324665812 28.569309650247206 28.569309650247206 28.60007324665812 28.60007324665812 28.60007324665812 28.60007324665812 28.569309650247206 28.60007324665812 28.60007324665812 28.60007324665812 28.60007324665812 28.60007324665812 28.60007324665812 28.60007324665812 28.60007324665812 28.60007324665812 28.60007324665812 28.60007324665812 28.569309650247206 28.60007324665812 28.60007324665812 28.60007324665812 28.60007324665812 28.60007324665812 28.569309650247206 28.60007324665812 28.60007324665812 28.569309650247206 28.569309650247206 28.569309650247206 28.60007324665812 28.60007324665812 28.60007324665812 28.569309650247206 28.60007324665812 28.60007324665812 28.60007324665812 28.60007324665812 28.569309650247206 28.60007324665812 28.60007324665812 28.569309650247206 28.569309650247206 28.60007324665812 28.60007324665812 28.60007324665812 28.60007324665812 28.569309650247206 28.60007324665812 28.60007324665812 28.60007324665812 28.60007324665812 28.60007324665812 28.60007324665812 28.60007324665812 28.60007324665812 28.60007324665812 28.60007324665812 28.60007324665812 28.60007324665812 28.60007324665812 28.569309650247206 28.60007324665812 28.60007324665812 28.60007324665812 28.60007324665812 28.60007324665812 28.60007324665812 28.60007324665812 28.569309650247206 28.569309650247206 28.60007324665812 28.60007324665812 28.60007324665812 28.60007324665812 28.60007324665812 28.60007324665812 28.60007324665812 28.60007324665812 28.569309650247206 28.569309650247206 28.569309650247206 28.569309650247206 28.60007324665812 28.569309650247206 28.569309650247206 28.569309650247206 28.60007324665812 28.569309650247206 28.60007324665812 28.60007324665812 28.60007324665812 28.60007324665812 28.60007324665812 28.60007324665812 28.569309650247206 28.60007324665812 28.569309650247206 28.569309650247206 28.569309650247206 28.60007324665812 28.60007324665812 28.60007324665812 28.569309650247206 28.569309650247206 28.569309650247206 28.60007324665812 28.569309650247206 28.60007324665812 28.569309650247206 28.60007324665812 28.60007324665812 28.569309650247206 28.569309650247206 28.60007324665812 28.569309650247206 28.60007324665812 28.569309650247206 28.569309650247206 28.569309650247206 28.60007324665812 28.569309650247206 28.569309650247206 28.569309650247206 28.60007324665812 28.569309650247206 28.569309650247206 28.569309650247206 28.60007324665812 28.569309650247206 28.569309650247206 28.569309650247206 28.569309650247206 28.569309650247206 28.569309650247206 28.569309650247206 28.60007324665812 28.569309650247206 28.569309650247206 28.60007324665812 28.569309650247206 28.60007324665812 28.569309650247206 28.569309650247206 28.569309650247206 28.569309650247206 28.60007324665812 28.569309650247206 28.569309650247206 28.60007324665812 28.60007324665812 28.569309650247206 28.60007324665812 28.60007324665812 28.569309650247206 28.569309650247206 28.569309650247206 28.569309650247206 28.569309650247206 28.569309650247206 28.569309650247206 28.60007324665812 28.60007324665812 28.569309650247206 28.569309650247206 28.569309650247206 28.569309650247206 28.569309650247206 28.569309650247206 28.569309650247206 28.569309650247206 28.569309650247206 28.569309650247206 28.569309650247206 28.569309650247206 28.569309650247206 28.569309650247206 28.569309650247206 28.569309650247206 28.569309650247206 28.569309650247206 28.569309650247206 28.569309650247206 28.569309650247206 28.569309650247206 28.569309650247206 28.569309650247206 28.569309650247206 28.569309650247206 28.569309650247206 28.569309650247206 28.569309650247206 28.569309650247206 28.569309650247206 28.569309650247206 28.569309650247206 28.569309650247206 28.569309650247206 28.569309650247206 28.538546053836292 28.569309650247206 28.569309650247206 28.569309650247206 28.569309650247206 28.569309650247206 28.569309650247206 28.569309650247206 28.538546053836292 28.569309650247206 28.538546053836292 28.569309650247206 28.538546053836292 28.569309650247206 28.569309650247206 28.538546053836292 28.538546053836292 28.538546053836292 28.538546053836292 28.569309650247206 28.569309650247206 28.538546053836292 28.538546053836292 28.569309650247206 28.538546053836292 28.538546053836292 28.538546053836292 28.538546053836292 28.569309650247206 28.538546053836292 28.538546053836292 28.538546053836292 28.569309650247206 28.538546053836292 28.538546053836292 28.538546053836292 28.538546053836292 28.569309650247206 28.538546053836292 28.538546053836292 28.538546053836292 28.538546053836292 28.538546053836292 28.538546053836292 28.569309650247206 28.538546053836292 28.569309650247206 28.538546053836292 28.569309650247206 28.538546053836292 28.538546053836292 28.538546053836292 28.538546053836292 28.569309650247206 28.538546053836292 28.538546053836292 28.538546053836292 28.538546053836292 28.538546053836292 28.538546053836292 28.538546053836292 28.538546053836292 28.538546053836292 28.538546053836292 28.538546053836292 28.538546053836292 28.569309650247206 28.569309650247206 28.569309650247206 28.538546053836292 28.538546053836292 28.538546053836292 28.538546053836292 28.569309650247206 28.538546053836292 28.569309650247206 28.538546053836292 28.538546053836292 28.538546053836292 28.538546053836292 28.538546053836292 28.538546053836292 28.569309650247206 28.569309650247206 28.569309650247206 28.569309650247206 28.569309650247206 28.569309650247206 28.569309650247206 28.569309650247206 28.569309650247206 28.60007324665812 28.569309650247206 28.569309650247206 28.60007324665812 28.60007324665812 28.60007324665812 28.60007324665812 28.630836843069034 28.630836843069034 28.630836843069034 28.630836843069034 28.630836843069034 28.630836843069034 28.630836843069034 28.630836843069034 28.661600439479948 28.661600439479948 28.661600439479948 28.661600439479948 28.661600439479948 28.661600439479948 28.69236403589086 28.69236403589086 28.69236403589086 28.69236403589086 28.723127632301775 28.723127632301775 28.723127632301775 28.75389122871269 28.75389122871269 28.784654825123603 28.784654825123603 28.784654825123603 28.815418421534517 28.815418421534517 28.815418421534517 28.84618201794543 28.84618201794543 28.876945614356345 28.876945614356345 28.938472807178172 28.969236403589086 28.969236403589086 29.0 29.061527192821828 29.061527192821828 29.09229078923274 29.15381798205457 29.184581578465483 29.215345174876397 29.24610877128731 29.276872367698225 29.276872367698225 29.30763596410914 29.338399560520052 29.39992675334188 29.49221754257462 29.6767991210401 29.73832631386193 29.83061710309467 29.98443508514924 30.045962277971068 30.13825306720381 30.29207104925838 30.415125434902034 30.5689434169566 30.691997802600255 30.81505218824391 30.999633766709394 31.12268815235305 31.245742537996705 31.36879692364036 31.491851309284012 31.614905694927668 31.70719648416041 31.86101446621498 32.014832448269544 32.04559604468046 32.32246841237868 32.53781358725508 32.72239516572056 32.968503937007874 33.27613990111701 33.58377586522615 33.922175425746204 34.16828419703351 34.56821095037539 34.99890130012818 35.337300860648234 35.79875480681194 36.198681560153815 36.752426295550265 37.2754074345358 37.82915216993224 38.38289690532869 38.75206006225966 39.121223219190625 39.55191356894342 39.85954953305256 40.32100347921626 40.87474821461271 41.15162058231093 41.5207837392419 41.85918329976195 42.105292071049256 42.62827321003479 42.8743819813221 43.12049075260941 43.45889031312946 43.70499908441677 44.01263504852591 44.227980223402305 44.474088994689616 44.84325215162058 45.089360922907886 45.396996887017025 45.735396447537084 45.950741622413474 46.350668375755355 46.56601355063175 46.81212232191906 47.1197582860282 47.33510346090459 47.67350302142465 48.13495696758835 48.411829335286576 48.81175608862846 49.08862845632668 49.427028016846734 49.91924555942135 50.07306354147592 50.56528108405054 50.87291704815968 51.11902581944699 51.39589818714521 51.61124336202161 51.88811572971983 52.13422450100714 52.31880607947262 52.59567844717085 52.84178721845816 53.026368796923634 53.3955319538546 53.610877128731005 53.826222303607395 54.13385826771653 54.379967039003844 54.81065738875664 54.99523896722212 55.27211133492034 55.54898370261857 55.73356528108405 55.97967405237136 56.16425563083684 56.41036440212415 56.656473173411456 56.81029115546603 57.056399926753336 57.302508698040654 57.517853872917044 57.763962644204355 57.97930781908075 58.13312580113532 58.37923457242263 58.59457974729903 58.779161325764505 59.025270097051816 59.17908807910639 59.45596044680461 59.54825123603735 59.70206921809192 60.00970518220106 60.16352316425563 60.3173411463102 60.53268632118659 60.655740706830244 60.84032228529573 61.02490386376122 61.17872184581578 61.39406702069218 61.547885002746746 61.73246658121223 61.91704815967771 62.07086614173228 62.28621131660868 62.47079289507416 62.62461087712873 62.83995605200513 62.99377403405969 63.239882805347 63.4552279802234 63.578282365867054 63.73210034792162 63.88591832997619 63.978209119208934 64.1320271012635 64.28584508331807 64.43966306537264 64.5627174510163 64.65500824024903 64.71653543307087 64.77806262589269 64.80882622230361 64.83958981871451 64.83958981871451 64.83958981871451 64.83958981871451 64.83958981871451 64.83958981871451 64.83958981871451 64.83958981871451 64.83958981871451 64.83958981871451 64.80882622230361 64.80882622230361 64.80882622230361 64.77806262589269 64.77806262589269 64.77806262589269 64.77806262589269 64.74729902948178 64.74729902948178 64.74729902948178 64.74729902948178 64.74729902948178 64.74729902948178 64.74729902948178 64.74729902948178 64.74729902948178 64.74729902948178 64.74729902948178 64.74729902948178 64.74729902948178 64.74729902948178 64.74729902948178 64.74729902948178 64.74729902948178 64.74729902948178 64.74729902948178 64.74729902948178 64.71653543307087 64.68577183665994 64.65500824024903 64.59348104742722 64.5627174510163 64.50119025819447 64.40889946896172 64.34737227613991 64.28584508331807 64.22431789049625 64.16279069767441 64.1012635048526 64.03973631203075 64.00897271561985 63.94744552279802 63.916681926387106 63.916681926387106 63.916681926387106 63.88591832997619 63.88591832997619 63.88591832997619 63.88591832997619 63.88591832997619 63.88591832997619 63.88591832997619 63.88591832997619 63.88591832997619 63.88591832997619 63.88591832997619 63.88591832997619 63.88591832997619 63.88591832997619 63.916681926387106 63.916681926387106 63.916681926387106 63.88591832997619 63.916681926387106 63.916681926387106 63.916681926387106 63.88591832997619 63.85515473356528 63.824391137154365 63.73210034792162 63.670573155099795 63.60904596227797 63.516755173045226 63.4552279802234 63.39370078740157 63.36293719099066 63.33217359457974 63.27064640175792 63.239882805347 63.239882805347 63.20911920893609 63.20911920893609 63.17835561252517 63.17835561252517 63.17835561252517 63.17835561252517 63.17835561252517 63.17835561252517 63.17835561252517 63.17835561252517 63.17835561252517 63.17835561252517 63.17835561252517 63.17835561252517 63.17835561252517 63.17835561252517 63.20911920893609 63.20911920893609 63.20911920893609 63.20911920893609 63.20911920893609 63.20911920893609 63.20911920893609 63.20911920893609 63.20911920893609 63.17835561252517 63.17835561252517 63.14759201611426 63.14759201611426 63.055301226881525 62.99377403405969 62.93224684123786 62.83995605200513 62.74766526277239 62.716901666361466 62.62461087712873 62.59384728071782 62.5630836843069 62.53232008789599 62.53232008789599 62.53232008789599 62.53232008789599 62.53232008789599 62.53232008789599 62.53232008789599 62.53232008789599 62.53232008789599 62.53232008789599 62.5630836843069 62.5630836843069 62.5630836843069 62.59384728071782 62.62461087712873 62.65537447353964 62.68613806995056 62.68613806995056 62.716901666361466 62.74766526277239 62.74766526277239 62.74766526277239 62.74766526277239 62.74766526277239 62.74766526277239 