-0.004560220601218725	0.00013012053185110006	-0.00485599098873031	1.3797082161555547	1.3832943300359644	1.380074188718103	1.3838665346940202	1.3836907009709718	217.0	255.0	11111110.0	
-0.004032830025262567	0.00013001698201039666	-0.004861951453918392	1.379761562318988	1.383298502361596	1.380128130928055	1.3838713030661707	1.3836933831803064	218.0	255.0	11111110.0	
-0.003649360727412396	0.00012991339260420303	-0.004866421802809454	1.3798071598776769	1.3833116153850098	1.3801764106960785	1.3838832239965468	1.3837050060874232	219.0	255.0	11111110.0	
-0.00345122714136861	0.00012980976382879645	-0.004866421802809454	1.3798363661570985	1.3833035687570059	1.3802074051150566	1.3838772635313588	1.3836966614361599	220.0	255.0	11111110.0	
-0.003452901690020162	0.0001297060958807807	-0.004860759360880776	1.379856631738738	1.3832952241057426	1.3802300548827713	1.3838707070196519	1.3836921910872688	221.0	255.0	11111110.0	
-0.0036463642654653806	0.00012960238895708552	-0.004855394942211502	1.3798584198782944	1.3832833031753664	1.3802300548827713	1.383857593996238	1.383680568180152	222.0	255.0	11111110.0	
-0.0039903531432983795	0.000129498643254966	-0.004848838430504611	1.379855141622441	1.3832838992218852	1.3802249884873614	1.3838572959729787	1.3836796741103738	223.0	255.0	11111110.0	
-0.004421834343898561	0.0001293948589720021	-0.0048357254070908314	1.37984560487814	1.3832862834079604	1.3802169418593575	1.3838584880660163	1.3836817602731897	224.0	255.0	11111110.0	
-0.004879673584551359	0.00012929103630609774	-0.004821718313898839	1.3798304056919104	1.3832880715475169	1.3802050209289813	1.3838593821357945	1.3836823563197085	225.0	255.0	11111110.0	
-0.005308163990866782	0.00012918717545548029	-0.00481814203478599	1.379813120342865	1.3832913498033703	1.3801844573240825	1.3838629584149074	1.3836862306220807	226.0	255.0	11111110.0	
-0.0056444053753324	0.00012908327661869979	-0.0048193341278236065	1.3798029875520452	1.3832964161987802	1.3801734304634845	1.3838683228335766	1.3836912970174906	227.0	255.0	11111110.0	
-0.005841656471778184	0.00012897933999462809	-0.004817545988267182	1.3797904705751503	1.3832961181755208	1.380159721393552	1.383868620856836	1.3836880187616372	228.0	255.0	11111110.0	
-0.005879903265323495	0.00012887536578245787	-0.0048094993602632715	1.379789576505372	1.383298502361596	1.3801591253470331	1.3838707070196519	1.3836924891105282	229.0	255.0	11111110.0	
-0.005769139618489306	0.00012877135418170178	-0.004799664592702937	1.3797889804588532	1.383294032012705	1.380157635230736	1.3838647465544638	1.3836892108546748	230.0	255.0	11111110.0	
-0.005546306886060129	0.0001286673053921915	-0.004800558662481149	1.379799113249673	1.3832871774777387	1.3801668739517776	1.3838599781823133	1.383682058296449	231.0	255.0	11111110.0	
-0.005255488167051559	0.00012856321961407673	-0.004817844011526586	1.3798250412732411	1.3832877735242575	1.3801957822079398	1.3838599781823133	1.3836838464360055	232.0	255.0	11111110.0	
-0.004924104469510008	0.000128459097047824	-0.004830957034940366	1.3798748111575616	1.3833020786407089	1.3802458501155197	1.383872197135949	1.383694575273344	233.0	255.0	11111110.0	
-0.0046054208687887266	0.00012835493789421567	-0.00484287796531653	1.3799195146464722	1.3833059529430811	1.3802941298835432	1.3838742832987647	1.3836978535291975	234.0	255.0	11111110.0	
-0.004337703655745741	0.0001282507423543488	-0.004847348314207591	1.3799618339493076	1.383313999571085	1.380336747209638	1.3838859062058815	1.3837088803897954	235.0	255.0	11111110.0	
-0.004161132588887244	0.00012814651062963378	-0.004851818663098652	1.379987165926357	1.3833137015478256	1.380362675233206	1.383885608182622	1.3837088803897954	236.0	255.0	11111110.0	
-0.0040915188692157425	0.00012804224292179325	-0.004855096918952098	1.3800023651125866	1.383311019338491	1.3803775763961763	1.3838823299267686	1.3837073902734984	237.0	255.0	11111110.0	
-0.004122793535551129	0.0001279379394328609	-0.004850030523542228	1.3800023651125866	1.3833059529430811	1.3803760862798793	1.383875177368543	1.3836990456222351	238.0	255.0	11111110.0	
-0.004249940084272798	0.00012783360036518006	-0.0048458581979105705	1.3800014710428083	1.3833065489896	1.3803748941868417	1.38387666748484	1.3836990456222351	239.0	255.0	11111110.0	
-0.004452418141474224	0.00012772922592140236	-0.0048491364537640155	1.379977629182056	1.3832949260824832	1.3803546286052022	1.3838662366707608	1.383688614808156	240.0	255.0	11111110.0	
-0.004685978468258983	0.00012762481630448645	-0.00484943447702342	1.3799531912747849	1.3832898596870733	1.3803275084885964	1.3838614682986103	1.383684144459265	241.0	255.0	11111110.0	
-0.004910828179251181	0.00012752037171769663	-0.004841387849019509	1.3799299454605514	1.3832961181755208	1.3803009844185095	1.3838674287637984	1.3836907009709718	242.0	255.0	11111110.0	
-0.005109962731111745	0.00012741589236460167	-0.004839599709463085	1.3798953747624605	1.3832907537568515	1.3802679038367156	1.3838617663218697	1.3836850385290431	243.0	255.0	11111110.0	
-0.005250055665063778	0.00012731137844907315	-0.004835129360572023	1.3798763012738586	1.383291051780111	1.380246148138779	1.3838635544614262	1.3836862306220807	244.0	255.0	11111110.0	
-0.00531533300624596	0.00012720683017528408	-0.004825592616271092	1.3798563337154786	1.383289561663814	1.3802273726734366	1.3838617663218697	1.3836844424825243	245.0	255.0	11111110.0	
-0.005316285966279155	0.00012710224774770758	-0.004824400523233476	1.3798488831339935	1.3832883695707763	1.3802211141849892	1.3838593821357945	1.3836832503894867	246.0	255.0	11111110.0	
-0.005256271672951067	0.00012699763137111533	-0.004827976802346325	1.3798590159248132	1.3832958201522614	1.3802315449990683	1.3838677267870578	1.3836898069011936	247.0	255.0	11111110.0	
-0.005144397234830929	0.0001268929812505762	-0.0048294669186433456	1.3798727249947458	1.383295522129002	1.3802449560457415	1.3838677267870578	1.38369159504075	248.0	255.0	11111110.0	
-0.005015079556690476	0.00012678829759145473	-0.0048425799420571255	1.3798932885996447	1.3832877735242575	1.3802690959297532	1.3838602762055727	1.3836829523662273	249.0	255.0	11111110.0	
-0.0048822702510793094	0.00012668358059940953	-0.004859269244583755	1.3799239849953633	1.3832868794544793	1.3803009844185095	1.383861170275351	1.3836808662034115	250.0	255.0	11111110.0	
-0.004764230502561914	0.00012657883048039191	-0.004876852616888597	1.3799618339493076	1.3832964161987802	1.380336747209638	1.3838692169033548	1.3836918930640094	251.0	255.0	11111110.0	
-0.004681410599415841	0.00012647404744064439	-0.0048995023846033076	1.3799749469727214	1.3832958201522614	1.3803480720934953	1.3838659386475014	1.383690104924453	252.0	255.0	11111110.0	
-0.004631419103180319	0.00012636923168669902	-0.004914403547573513	1.379984185693763	1.3832943300359644	1.3803599930238715	1.3838647465544638	1.3836880187616372	253.0	255.0	11111110.0	
-0.004615531370038614	0.00012626438342537599	-0.00491857587320517	1.379998192786955	1.3833041648035247	1.3803745961635823	1.383873687252246	1.3836972574826787	254.0	255.0	11111110.0	
-0.004642780860985636	0.00012615950286378185	-0.004924238315133848	1.37998567581006	1.3832922438731485	1.3803614831401685	1.383864150507945	1.3836877207383778	255.0	255.0	11111110.0	
-0.0046959427867911815	0.00012605459020930814	-0.0049230462220962315	1.3799722647633867	1.3832946280592238	1.3803483701167547	1.3838674287637984	1.3836904029477124	0.0	255.0	11111110.0	
-0.004768032274134118	0.0001259496456696297	-0.004920065989502191	1.3799448466235216	1.3832946280592238	1.3803203559303707	1.383870110973133	1.3836895088779342	1.0	255.0	11111110.0	
-0.004849803658042626	0.00012584466945270327	-0.0049197679662427865	1.3799129581347653	1.383299992477893	1.3802860832555393	1.3838727931824677	1.3836924891105282	2.0	255.0	11111110.0	
-0.004924824072311906	0.0001257396617667657	-0.004918277849945766	1.3798667645295577	1.3832961181755208	1.3802398896503316	1.3838668327172796	1.3836898069011936	3.0	255.0	11111110.0	
-0.004980644908086278	0.00012563462282033243	-0.004912317384757683	1.3798459029013994	1.3833089331756752	1.3802169418593575	1.3838808398104716	1.3837014298083103	4.0	255.0	11111110.0	
-0.005011923476116183	0.00012552955282219602	-0.004901588547419136	1.3798196768545719	1.3833071450361187	1.3801919079055676	1.3838805417872122	1.3837005357385321	5.0	255.0	11111110.0	
-0.005019936612849914	0.0001254244519814244	-0.004888475524005356	1.3797952389473007	1.383308039105897	1.3801659798819994	1.3838802437639528	1.3837014298083103	6.0	255.0	11111110.0	
-0.0050145347789983035	0.00012531932050735943	-0.004881024942520254	1.3797797417378117	1.3833107213152316	1.3801475024399164	1.3838835220198062	1.3837044100409044	7.0	255.0	11111110.0	
-0.004993203538214172	0.00012521415860961517	-0.004872382267997535	1.3797693109237326	1.3833026746872277	1.3801352834862808	1.3838754753918023	1.3836990456222351	8.0	255.0	11111110.0	
-0.004955041103122881	0.00012510896649807645	-0.004855096918952098	1.3797728872028454	1.3832996944546336	1.38014064790495	1.3838727931824677	1.383697555505938	9.0	255.0	11111110.0	
-0.004909977331949355	0.0001250037443828972	-0.0048324471512373865	1.3797877883658156	1.3833023766639683	1.3801585293005143	1.3838739852755053	1.383697555505938	10.0	255.0	11111110.0	
-0.00487818125500295	0.00012489849247449884	-0.004820526220861223	1.3798014974357482	1.3832982043383366	1.3801749205797815	1.3838707070196519	1.3836933831803064	11.0	255.0	11111110.0	
-0.004854921447518176	0.0001247932109835687	-0.004813075639376121	1.379816100575459	1.3832990984081148	1.380187735579936	1.3838718991126895	1.3836954693431223	12.0	255.0	11111110.0	
-0.004834826066130639	0.0001246879001210584	-0.004804432964853402	1.3797973251101165	1.3832934359661861	1.3801674699982964	1.3838659386475014	1.383688614808156	13.0	255.0	11111110.0	
-0.004821865918712755	0.00012458256009818241	-0.004799962615962341	1.3797213291789685	1.3832871774777387	1.3800878977880355	1.3838617663218697	1.383683548412746	14.0	255.0	11111110.0	
-0.004818042274392457	0.00012447719112641632	-0.004804730988112806	1.3796116566195078	1.3832907537568515	1.379974648949462	1.3838632564381668	1.3836853365523025	15.0	255.0	11111110.0	
-0.004816293237102232	0.00012437179341749538	-0.004814863778932545	1.3795073484787164	1.3832958201522614	1.3798664665062983	1.3838683228335766	1.3836895088779342	16.0	255.0	11111110.0	
-0.004812870658053355	0.00012426636718341282	-0.004828572848865133	1.3794098948728912	1.383302972710487	1.379764542551582	1.383873687252246	1.3836972574826787	17.0	255.0	11111110.0	
-0.004801285035613455	0.00012416091263641835	-0.0048393016862036805	1.3792957519645395	1.3832973102685584	1.379643545108264	1.3838713030661707	1.3836939792268252	18.0	255.0	11111110.0	
-0.0047848432236028155	0.00012405542998901648	-0.004848242383985803	1.3791851853353005	1.3833011845709307	1.3795297002231717	1.3838739852755053	1.3836993436454945	19.0	255.0	11111110.0	
-0.004771835072571981	0.000123949919453965	-0.004860461337621372	1.3790713404502082	1.383299992477893	1.37941049091941	1.383873687252246	1.3836948732966035	20.0	255.0	11111110.0	
-0.0047591700172098135	0.00012384438124427328	-0.004868507965625282	1.3789703105652702	1.3833020786407089	1.3793032025460246	1.3838769655080994	1.3836972574826787	21.0	255.0	11111110.0	
-0.004754907016439561	0.0001237388155732009	-0.00487566052385098	1.378876433238558	1.3833104232919722	1.3792057489401994	1.383882627950028	1.3837047080641638	22.0	255.0	11111110.0	
-0.004766732026817971	0.00012363322265425595	-0.0048860913379301235	1.3787846420746614	1.3833074430593781	1.3791065071948179	1.3838802437639528	1.3837038139943856	23.0	255.0	11111110.0	
-0.004781180826104161	0.00012352760270119352	-0.004883707151854891	1.3786946390503214	1.3833017806174495	1.3790120338215868	1.3838763694615805	1.383698151552457	24.0	255.0	11111110.0	
-0.0048123910531718	0.0001234219559280141	-0.00488221703555787	1.3786249016076209	1.3833008865476712	1.3789396141695516	1.3838748793452835	1.3836984495757163	25.0	255.0	11111110.0	
-0.004853924964217568	0.00012331628254896195	-0.004878044709926213	1.3785614226533678	1.383289561663814	1.3788731549827045	1.3838644485312044	1.3836859325988213	26.0	255.0	11111110.0	
-0.0048943008189928135	0.0001232105827785235	-0.004864335639993625	1.3785119507923067	1.3832907537568515	1.3788224910286058	1.3838653426009826	1.3836859325988213	27.0	255.0	11111110.0	
-0.004939486611812137	0.00012310485683142582	-0.004853904825914482	1.3784711216057683	1.3832916478266297	1.3787789796327328	1.3838650445777232	1.3836844424825243	28.0	255.0	11111110.0	
-0.004978501374287313	0.00012299910492263508	-0.004844070058354146	1.3784264181168577	1.3832931379429267	1.3787312959112281	1.3838674287637984	1.3836865286453401	29.0	255.0	11111110.0	
-0.004999498290427353	0.00012289332726735493	-0.004830360988421558	1.3783688996277927	1.3832931379429267	1.3786672209104562	1.3838668327172796	1.3836889128314154	30.0	255.0	11111110.0	
-0.005002634172324038	0.00012278752408102485	-0.004818738081304798	1.37829528788272	1.383292541896408	1.3785891388164924	1.3838662366707608	1.3836883167848966	31.0	255.0	11111110.0	
-0.004984137448910711	0.0001226816955793186	-0.004808903313744463	1.378206774974677	1.383297012245299	1.3784964535828177	1.3838713030661707	1.3836924891105282	32.0	255.0	11111110.0	
-0.004939997125377711	0.00012257584197814263	-0.004796684360108896	1.3781000826478103	1.3832988003848554	1.3783846948605412	1.3838710050429113	1.3836939792268252	33.0	255.0	11111110.0	
-0.0048757704345377805	0.00012246996349363454	-0.004783869359954519	1.3779650781113002	1.3832973102685584	1.378242239742546	1.3838704089963925	1.3836909989942312	34.0	255.0	11111110.0	
-0.004803167356885495	0.00012236406034216147	-0.0047758227319506085	1.3777811977602479	1.3832776407334377	1.3780476305541551	1.3838525276008282	1.3836725215521481	35.0	255.0	11111110.0	
-0.004725066093483253	0.0001222581327403185	-0.004766882034168486	1.377582118222966	1.3832725743380279	1.377838120202794	1.3838468651588995	1.383668051203257	36.0	255.0	11111110.0	
-0.00465829695375771	0.00012215218090492707	-0.004764497848093253	1.3774223777559254	1.3832865814312199	1.3776667568286367	1.3838617663218697	1.3836832503894867	37.0	255.0	11111110.0	
-0.004607993931461008	0.00012204620505303335	-0.004765093894612061	1.377279028568152	1.383291051780111	1.3775159570593782	1.3838653426009826	1.383687124691859	38.0	255.0	11111110.0	
-0.004585824830789382	0.00012194020540190667	-0.004773438545875376	1.3771473022874954	1.3832937339894456	1.37737499205768	1.3838674287637984	1.3836904029477124	39.0	255.0	11111110.0	
-0.004588877102730257	0.0001218341821690379	-0.0047823792436574985	1.3770349475187	1.3832982043383366	1.3772551867073997	1.3838727931824677	1.3836948732966035	40.0	255.0	11111110.0	
-0.004617489728049402	0.00012172813557213786	-0.004791021918180217	1.376932427517465	1.3832937339894456	1.3771476003107548	1.3838674287637984	1.3836898069011936	41.0	255.0	11111110.0	
-0.00466583429786967	0.00012162206582913566	-0.004795790290330683	1.3768543454235012	1.3832862834079604	1.3770668360074563	1.3838620643451292	1.383683548412746	42.0	255.0	11111110.0	
-0.0047303619629553125	0.00012151597315817707	-0.004798770522924724	1.3768036814694025	1.3832841972451446	1.3770143839138012	1.3838578920194975	1.383679078063855	43.0	255.0	11111110.0	
-0.004806284913995378	0.00012140985777762298	-0.004803836918334594	1.376772389027165	1.3832782367799565	1.3769795151924509	1.3838543157403846	1.383674607714964	44.0	255.0	11111110.0	
-0.004889488463785751	0.00012130371990604774	-0.004817545988267182	1.3767589779804918	1.383284495268404	1.3769667001922965	1.3838602762055727	1.383680568180152	45.0	255.0	11111110.0	
-0.004959888924686507	0.00012119755976223746	-0.004830062965162154	1.3767461629803375	1.383298502361596	1.3769500108897699	1.383873687252246	1.383697555505938	46.0	255.0	11111110.0	
-0.005007294573680238	0.00012109137756518842	-0.0048390036629442764	1.376700863444908	1.3832886675940357	1.3769038172845622	1.3838623623683886	1.3836862306220807	47.0	255.0	11111110.0	
-0.005031019446898586	0.00012098517353410543	-0.004848838430504611	1.3766680808863736	1.3832868794544793	1.3768671604236555	1.383858190042757	1.3836844424825243	48.0	255.0	11111110.0	
-0.005030274460072965	0.00012087894788840002	-0.004860759360880776	1.3766269536765758	1.3832856873614416	1.3768242450743013	1.3838623623683886	1.383684144459265	49.0	255.0	11111110.0	
-0.0049967312512133625	0.00012077270084768897	-0.004864037616734221	1.376576885768996	1.3832868794544793	1.376770898910868	1.3838653426009826	1.3836844424825243	50.0	255.0	11111110.0	
-0.004945784098671282	0.00012066643263179252	-0.004868209942365878	1.376500293791329	1.3832767466636595	1.376693412863423	1.3838519315543094	1.3836740116684452	51.0	255.0	11111110.0	
-0.00488297492727676	0.00012056014346073271	-0.004870892151700515	1.3764201255345494	1.3832713822449902	1.3766099663507898	1.3838450770193431	1.3836677531799977	52.0	255.0	11111110.0	
-0.004814660509855732	0.00012045383355473172	-0.004868805988884686	1.3763420434405855	1.3832737664310655	1.3765265198381567	1.3838480572519372	1.3836707334125917	53.0	255.0	11111110.0	
-0.0047595772337357236	0.00012034750313421014	-0.004871488198219323	1.3762740941374414	1.3832752565473625	1.376455888325678	1.3838519315543094	1.383673117598667	54.0	255.0	11111110.0	
-0.004718844231126277	0.00012024115241978533	-0.004872382267997535	1.376203760648222	1.383273468407806	1.3763834686736427	1.3838492493449748	1.3836707334125917	55.0	255.0	11111110.0	
-0.004695055516903524	0.00012013478163226976	-0.004868209942365878	1.3761343212287809	1.3832728723612873	1.376310750998348	1.3838477592286778	1.3836707334125917	56.0	255.0	11111110.0	
-0.004692176617658351	0.0001200283909926693	-0.004860163314361968	1.376067265995415	1.3832698921286932	1.376238331346313	1.3838453750426025	1.383668051203257	57.0	255.0	11111110.0	
-0.004706277610811096	0.0001199219807221815	-0.004844964128132358	1.3759984226224926	1.383260951430911	1.3761650176244995	1.383837626437858	1.3836603025985126	58.0	255.0	11111110.0	
-0.004739128629081948	0.00011981555104219392	-0.004828572848865133	1.375947758668394	1.3832692960821744	1.3761149497169196	1.3838432888797867	1.3836677531799977	59.0	255.0	11111110.0	
-0.004789656826440243	0.00011970910217428245	-0.004817545988267182	1.3758956045979982	1.3832743624775843	1.376060709483708	1.383848653298456	1.3836722235288887	60.0	255.0	11111110.0	
-0.004846681218290726	0.00011960263434020964	-0.00481009540678208	1.3758351058763392	1.3832654217798022	1.3759978265759738	1.3838394145774144	1.3836662630637007	61.0	255.0	11111110.0	
-0.004896632093750403	0.00011949614776192299	-0.004801750755518765	1.3757799715733494	1.3832710842217308	1.375944182389281	1.3838468651588995	1.3836710314358511	62.0	255.0	11111110.0	
-0.004928773699421464	0.00011938964266155325	-0.0047892337786237926	1.375716194595837	1.3832761506171407	1.3758753390163587	1.3838519315543094	1.383674607714964	63.0	255.0	11111110.0	
-0.004945273518657542	0.00011928311926141283	-0.00478029308084167	1.3756375164553543	1.3832716802682496	1.3757904023874286	1.3838480572519372	1.383669541319554	64.0	255.0	11111110.0	
-0.0049454689948846	0.00011917657778399395	-0.004777610871507033	1.3755457252914578	1.383270488175212	1.3756923527350846	1.3838465671356401	1.3836692432962947	65.0	255.0	11111110.0	
-0.00492100429197441	0.00011907001845196708	-0.0047725444760971635	1.37545959656949	1.383274958524103	1.375605627966598	1.3838480572519372	1.3836707334125917	66.0	255.0	11111110.0	
-0.0048771649257777164	0.00011896344148817925	-0.004766584010909082	1.3753561824984768	1.3832737664310655	1.3754998297095096	1.3838459710891213	1.383669541319554	67.0	255.0	11111110.0	
-0.004822000035070749	0.00011885684711565223	-0.004761815638758616	1.375250086218129	1.3832707861984714	1.3753877729639736	1.3838477592286778	1.383668051203257	68.0	255.0	11111110.0	
-0.004770082055575202	0.00011875023555758093	-0.0047659879643902735	1.3751326650539237	1.383263037593727	1.3752664774973962	1.3838438849263055	1.3836626867845878	69.0	255.0	11111110.0	
-0.004715082636404106	0.00011864360703733179	-0.004765093894612061	1.3750268667968353	1.3832722763147685	1.3751562088914167	1.3838492493449748	1.3836707334125917	70.0	255.0	11111110.0	
-0.004664326599990957	0.00011853696177844094	-0.004758537382905171	1.3749323934236042	1.3832752565473625	1.3750596493553697	1.3838504414380124	1.3836725215521481	71.0	255.0	11111110.0	
-0.004629873073037605	0.00011843030000461252	-0.0047525769177170895	1.3748468607481552	1.383274958524103	1.3749729245868831	1.3838519315543094	1.3836722235288887	72.0	255.0	11111110.0	
-0.004619987335273178	0.00011832362193971701	-0.004752874940976494	1.3747851699334586	1.3832827071288476	1.3749106377256677	1.3838602762055727	1.383682058296449	73.0	255.0	11111110.0	
-0.004630629469304973	0.00011821692780778951	-0.00475555715031113	1.3747422545841044	1.3832946280592238	1.3748668283065353	1.38387160108943	1.3836933831803064	74.0	255.0	11111110.0	
-0.004659385552068823	0.00011811021783302803	-0.004760623545721	1.3747076838860135	1.383292541896408	1.3748298734223692	1.3838680248103172	1.3836909989942312	75.0	255.0	11111110.0	
-0.0046995820708400984	0.00011800349223979183	-0.0047656899411308695	1.3746901005137087	1.3832886675940357	1.3748113959802861	1.3838659386475014	1.3836874227151184	76.0	255.0	11111110.0	
-0.004744643785881623	0.00011789675125259964	-0.004769564243503123	1.374692484699784	1.3832922438731485	1.374813482143102	1.3838677267870578	1.3836907009709718	77.0	255.0	11111110.0	
-0.00479744312973468	0.00011778999509612791	-0.004781485173879286	1.3746987431882314	1.3832850913149228	1.3748215287711059	1.3838617663218697	1.3836850385290431	78.0	255.0	11111110.0	
-0.004845629326470387	0.00011768322399520921	-0.004795194243811875	1.3747067898162353	1.3832877735242575	1.3748301714456286	1.3838662366707608	1.3836880187616372	79.0	255.0	11111110.0	
-0.004879179736863948	0.00011757643817483039	-0.004804730988112806	1.3747011273743066	1.3832841972451446	1.3748248070269593	1.3838608722520915	1.3836826543429679	80.0	255.0	11111110.0	
-0.004901714421981865	0.00011746963786013095	-0.0048160558719701615	1.3747008293510472	1.3832877735242575	1.3748227208641435	1.383864150507945	1.3836850385290431	81.0	255.0	11111110.0	
-0.0049088199131691	0.00011736282327640127	-0.004825294593011688	1.3746909945834869	1.3832946280592238	1.3748143762128802	1.3838698129498737	1.3836904029477124	82.0	255.0	11111110.0	
-0.004903183344261607	0.00011725599464908089	-0.004833639244275003	1.374676391443776	1.3832967142220396	1.3747985809801317	1.3838698129498737	1.3836921910872688	83.0	255.0	11111110.0	
-0.004884659426087781	0.0001171491522037568	-0.00483781156990666	1.3746525495830237	1.3832961181755208	1.3747735470263418	1.383872197135949	1.3836957673663817	84.0	255.0	11111110.0	
-0.0048631245292481	0.00011704229616616174	-0.004843772035094742	1.3746066540010755	1.3832838992218852	1.3747258633048371	1.3838614682986103	1.3836832503894867	85.0	255.0	11111110.0	
-0.004831545699749148	0.00011693542676217241	-0.004839897732722489	1.374567910977353	1.3832773427101783	1.3746856301648176	1.3838522295775688	1.3836734156219264	86.0	255.0	11111110.0	
-0.004799334696745277	0.00011682854421780785	-0.004830957034940366	1.3745467513259353	1.3832746605008437	1.374665960629697	1.3838504414380124	1.3836710314358511	87.0	255.0	11111110.0	
-0.004777389849435518	0.00011672164875922764	-0.004824996569752284	1.3745512216748264	1.3832886675940357	1.3746713250483662	1.3838635544614262	1.383685634575562	88.0	255.0	11111110.0	
-0.004770430162475648	0.00011661474061273023	-0.0048258906395304965	1.3745401948142284	1.383289561663814	1.374656423885396	1.3838647465544638	1.3836889128314154	89.0	255.0	11111110.0	
-0.0047767019603263015	0.00011650782000475121	-0.0048324471512373865	1.3745401948142284	1.3832928399196673	1.3746561258621366	1.3838668327172796	1.383690104924453	90.0	255.0	11111110.0	
-0.004788526429119163	0.00011640088716186155	-0.004838109593166064	1.3745521157446046	1.3832943300359644	1.374668940862291	1.3838718991126895	1.3836936812035658	91.0	255.0	11111110.0	
-0.004809430687298938	0.00011629394231076599	-0.004848242383985803	1.3745747655123193	1.3832862834079604	1.3746951669091185	1.3838674287637984	1.3836880187616372	92.0	255.0	11111110.0	
-0.00482198328804908	0.00011618698567830132	-0.004847050290948187	1.3746108263267072	1.3832883695707763	1.3747342079561005	1.3838662366707608	1.3836874227151184	93.0	255.0	11111110.0	
-0.004829535543275063	0.00011608001749143465	-0.0048390036629442764	1.3746602981877682	1.3832928399196673	1.3747821897008645	1.38387160108943	1.3836924891105282	94.0	255.0	11111110.0	
-0.0048418731735638074	0.00011597303797726166	-0.0048360234303502355	1.3747023194673442	1.3832937339894456	1.3748242109804405	1.3838707070196519	1.3836924891105282	95.0	255.0	11111110.0	
-0.0048500448438163766	0.00011586604736300498	-0.00483125505819977	1.3747240751652807	1.3832856873614416	1.3748450726085988	1.3838635544614262	1.3836844424825243	96.0	255.0	11111110.0	
-0.004852987891774148	0.00011575904587601246	-0.00482469854649288	1.3747535794679617	1.3832883695707763	1.3748763650508362	1.3838659386475014	1.383687124691859	97.0	255.0	11111110.0	
-0.004859534434615527	0.00011565203374375556	-0.004826188662789901	1.3747747391193794	1.3832856873614416	1.3748984187720321	1.3838632564381668	1.383683548412746	98.0	255.0	11111110.0	
-0.004860699036061673	0.00011554501119382761	-0.004827082732568113	1.3747848719101992	1.3832850913149228	1.3749076574930736	1.3838614682986103	1.3836838464360055	99.0	255.0	11111110.0	
-0.0048517348559786	0.00011543797845394207	-0.004821420290639435	1.3747851699334586	1.3832806209660318	1.3749088495861113	1.3838564019032005	1.3836793760871144	100.0	255.0	11111110.0	
-0.004835109872505387	0.00011533093575193095	-0.004809797383522676	1.3747842758636803	1.38328151503581	1.3749073594698142	1.3838584880660163	1.383682058296449	101.0	255.0	11111110.0	
-0.0048140289684253205	0.0001152238833157431	-0.004793704127514855	1.3747705667937478	1.383284495268404	1.3748936503998817	1.3838593821357945	1.3836829523662273	102.0	255.0	11111110.0	
-0.004804088401318456	0.00011511682137344257	-0.00478833970884558	1.3747345059793599	1.3832695941054338	1.3748581856320126	1.383845673065862	1.3836677531799977	103.0	255.0	11111110.0	
-0.004801386793972985	0.0001150097501532069	-0.004790425871661409	1.3747136443512016	1.3832624415472081	1.3748373240038543	1.383840606670452	1.383662090738069	104.0	255.0	11111110.0	
-0.00480004800834401	0.00011490266988332552	-0.004794300174033663	1.3747145384209798	1.383275554570622	1.374838516096892	1.3838507394612718	1.3836725215521481	105.0	255.0	11111110.0	
-0.00480403099745258	0.00011479558079219808	-0.004804134941593998	1.3747130483046828	1.3832746605008437	1.3748361319108167	1.383848653298456	1.3836707334125917	106.0	255.0	11111110.0	
-0.004800836466532226	0.00011468848310833278	-0.004807115174188039	1.3747330158630628	1.3832731703845467	1.3748563974924561	1.3838522295775688	1.3836743096917046	107.0	255.0	11111110.0	
-0.004795204686356494	0.00011458137706034469	-0.004807115174188039	1.374763414235522	1.3832776407334377	1.374887987957953	1.3838543157403846	1.383679078063855	108.0	255.0	11111110.0	
-0.004798896191856983	0.00011447426287695413	-0.0048160558719701615	1.3748063295848763	1.3832773427101783	1.3749335855166418	1.3838528256240876	1.3836784820173362	109.0	255.0	11111110.0	
-0.004809439858695491	0.00011436714078698507	-0.004832149127977982	1.3748513310970463	1.3832684020123962	1.3749812692381465	1.3838444809728243	1.3836668591102195	110.0	255.0	11111110.0	
-0.004812543903182195	0.0001142600110193634	-0.004840493779241297	1.3749088495861113	1.3832582692215765	1.3750390857504708	1.3838379244611174	1.3836597065519938	111.0	255.0	11111110.0	
-0.004812106846760642	0.00011415287380311533	-0.004843474011835338	1.3749821633079247	1.383264527710024	1.3751153797048783	1.383842096786749	1.3836659650404413	112.0	255.0	11111110.0	
-0.004815812661350226	0.0001140457293673657	-0.004847944360726399	1.3750542849367005	1.3832728723612873	1.375188097380173	1.383850143414753	1.3836728195754076	113.0	255.0	11111110.0	
-0.004819088701741991	0.00011393857794133641	-0.004848838430504611	1.375127002611995	1.3832892636405545	1.3752599209856893	1.3838647465544638	1.3836880187616372	114.0	255.0	11111110.0	
-0.00482548339955379	0.00011383141975434488	-0.00484943447702342	1.3751782626126126	1.3832919458498891	1.3753141612189008	1.3838698129498737	1.38369159504075	115.0	255.0	11111110.0	
-0.004840792490442145	0.00011372425503580228	-0.0048562890119897145	1.3752128333107034	1.3832803229427724	1.3753508180798075	1.383859084112535	1.3836793760871144	116.0	255.0	11111110.0	
-0.004853712700573961	0.00011361708401521199	-0.004858971221324351	1.375248596101832	1.3832794288729942	1.3753886670337518	1.3838564019032005	1.3836796741103738	117.0	255.0	11111110.0	
-0.004859509496187818	0.00011350990692216805	-0.0048530107561362695	1.3752563447065764	1.3832713822449902	1.3753940314524211	1.3838468651588995	1.3836692432962947	118.0	255.0	11111110.0	
-0.004869582896971834	0.00011340272398635338	-0.00485092459332044	1.3752569407530952	1.383266017826321	1.3753955215687181	1.3838444809728243	1.3836662630637007	119.0	255.0	11111110.0	
-0.00486786418274192	0.0001132955354375383	-0.00483781156990666	1.3752539605205012	1.3832701901519526	1.3753928393593835	1.3838468651588995	1.3836710314358511	120.0	255.0	11111110.0	
-0.00486888507035328	0.00011318834150557892	-0.0048294669186433456	1.3752536624972418	1.3832707861984714	1.3753913492430865	1.3838459710891213	1.3836707334125917	121.0	255.0	11111110.0	
-0.004871138723931568	0.00011308114242041548	-0.004826486686049305	1.3752733320323625	1.3832767466636595	1.3754134029642824	1.3838513355077906	1.383674607714964	122.0	255.0	11111110.0	
-0.0048691144203156	0.0001129739384120708	-0.00482469854649288	1.3753079027304533	1.3832833031753664	1.3754494637786703	1.3838569979497193	1.3836802701568927	123.0	255.0	11111110.0	
-0.004858281070569608	0.00011286672971064868	-0.004819632151083011	1.3753409833122472	1.3832776407334377	1.3754828423837235	1.3838543157403846	1.383674607714964	124.0	255.0	11111110.0	
-0.004848564994237152	0.00011275951654633229	-0.004820824244120627	1.3753901571500489	1.3832707861984714	1.3755290359889312	1.3838465671356401	1.383668647249776	125.0	255.0	11111110.0	
-0.0048329721400476615	0.0001126522991493826	-0.004820228197601819	1.3754727095929038	1.3832791308497348	1.3756148666876395	1.3838549117869035	1.3836757998080016	126.0	255.0	11111110.0	
-0.004818715691958922	0.00011254507775013679	-0.00482320843019586	1.3755558580822775	1.3832803229427724	1.375705167735239	1.3838578920194975	1.3836781839940768	127.0	255.0	11111110.0	
-0.004799575498701744	0.0001124378525790067	-0.004821122267380031	1.3756399006414295	1.3832803229427724	1.375793680643282	1.3838555078334223	1.383677587947558	128.0	255.0	11111110.0	
-0.004780483891655152	0.0001123306238664772	-0.0048160558719701615	1.3757039756422014	1.3832698921286932	1.375859245760351	1.3838465671356401	1.383668647249776	129.0	255.0	11111110.0	
-0.004773833416482192	0.00011222339184310469	-0.004818738081304798	1.375757619828894	1.3832737664310655	1.3759149761098595	1.3838510374845312	1.3836725215521481	130.0	255.0	11111110.0	
-0.004775003313077282	0.00011211615673951546	-0.004823804476714668	1.3757942766898008	1.3832773427101783	1.3759549112266196	1.3838507394612718	1.3836722235288887	131.0	255.0	11111110.0	
-0.004777373188321349	0.00011200891878640414	-0.004823804476714668	1.375809177852771	1.3832743624775843	1.3759716005291462	1.3838480572519372	1.3836692432962947	132.0	255.0	11111110.0	
-0.0047847062522635	0.00011190167821453214	-0.004822314360417647	1.3757984490154325	1.3832669118960992	1.3759590835522513	1.383840606670452	1.383662090738069	133.0	255.0	11111110.0	
-0.004795758127020841	0.0001117944352547261	-0.004819036104564202	1.3757954687828384	1.3832752565473625	1.3759546132033602	1.38385163353105	1.3836725215521481	134.0	255.0	11111110.0	
-0.004812723772032297	0.00011168719013787626	-0.00481814203478599	1.3757662625034168	1.3832707861984714	1.3759230227378634	1.383848653298456	1.3836689452730353	135.0	255.0	11111110.0	
-0.00483286613537098	0.00011157994309493495	-0.004819632151083011	1.37571470447954	1.3832600573611329	1.375871166690727	1.3838370303913392	1.3836588124822156	136.0	255.0	11111110.0	
-0.004851661714093728	0.00011147269435691502	-0.004821718313898839	1.375677153548855	1.3832576731750577	1.3758318276204857	1.383834646205264	1.3836567263193997	137.0	255.0	11111110.0	
-0.004867031871497078	0.0001113654441548883	-0.00482469854649288	1.375658676106772	1.3832561830587606	1.3758148402946997	1.3838322620191887	1.383654640156584	138.0	255.0	11111110.0	
-0.004876336688840506	0.00011125819271998405	-0.004827678779086921	1.375640198664689	1.383250520616832	1.3757942766898008	1.3838245134144442	1.3836477856216176	139.0	255.0	11111110.0	
-0.004872283937926203	0.00011115094028338742	-0.004823804476714668	1.3756372184320949	1.383259461314614	1.3757930845967632	1.3838343481820046	1.3836567263193997	140.0	255.0	11111110.0	
-0.004857681583072224	0.00011104368707633781	-0.004815161802191949	1.3756482452926928	1.3832716802682496	1.3758014292480265	1.3838468651588995	1.383668647249776	141.0	255.0	11111110.0	
-0.004847874066781224	0.00011093643333012742	-0.00481665191848897	1.3756553978509185	1.3832725743380279	1.3758115620388462	1.383848653298456	1.3836698393428135	142.0	255.0	11111110.0	
-0.0048358857531312725	0.00011082917927609965	-0.004820526220861223	1.3756750673860392	1.3832752565473625	1.375831231573967	1.3838498453914936	1.3836704353893323	143.0	255.0	11111110.0	
-0.004809369626396851	0.00011072192514564768	-0.0048115855230791	1.3757027835491638	1.3832782367799565	1.3758574576207945	1.3838543157403846	1.3836749057382234	144.0	255.0	11111110.0	
-0.004785167567339457	0.00011061467117021277	-0.00480353889507519	1.3757099361073895	1.3832678059658774	1.3758669943650954	1.3838444809728243	1.3836671571334789	145.0	255.0	11111110.0	
-0.004769805950797182	0.00011050741758128288	-0.004801154708999957	1.3757188768051716	1.3832651237565428	1.3758771271559151	1.3838453750426025	1.38366656108696	146.0	255.0	11111110.0	
-0.004762935120704282	0.00011040016461039106	-0.0048029428485563816	1.3757257313401379	1.3832663158495804	1.3758842797141408	1.3838444809728243	1.3836647729474036	147.0	255.0	11111110.0	
-0.004765222408168798	0.0001102929124891139	-0.004808903313744463	1.375727221456435	1.3832648257332834	1.375885173783919	1.3838412027169709	1.3836603025985126	148.0	255.0	11111110.0	
-0.004768273562840463	0.00011018566144907004	-0.00481009540678208	1.3757212609912468	1.3832624415472081	1.3758804054117686	1.3838379244611174	1.383659110505475	149.0	255.0	11111110.0	
-0.004771002590788701	0.00011007841172191866	-0.00480502901137221	1.375691160642047	1.3832481364307567	1.3758494109927906	1.3838227252748878	1.3836462955053206	150.0	255.0	11111110.0	
-0.004775834735833367	0.00010997116353935787	-0.004796684360108896	1.3756667227347759	1.3832493285237943	1.3758237809924818	1.383825109460963	1.3836477856216176	151.0	255.0	11111110.0	
-0.004791897574944007	0.00010986391713312331	-0.004796386336849492	1.3756467551763958	1.3832570771285388	1.37579964110847	1.3838319639959293	1.383654044110065	152.0	255.0	11111110.0	
-0.004800795619719987	0.00010975667273498657	-0.004788041685586176	1.3756157607574178	1.3832666138728398	1.375768646689492	1.3838412027169709	1.3836647729474036	153.0	255.0	11111110.0	
-0.004807839032400939	0.00010964943057675374	-0.004778802964544649	1.3755859584314774	1.3832684020123962	1.3757373542472546	1.3838438849263055	1.3836641769008848	154.0	255.0	11111110.0	
-0.004824606705555948	0.00010954219089026376	-0.004783273313435711	1.3755668849428755	1.3832698921286932	1.3757185787819122	1.3838459710891213	1.3836677531799977	155.0	255.0	11111110.0	
-0.004838875631683878	0.00010943495390738704	-0.00479191598795843	1.3755504936636083	1.3832687000356556	1.3756995052933103	1.383842096786749	1.3836656670171819	156.0	255.0	11111110.0	
-0.004839206018458584	0.00010932771986002392	-0.004793704127514855	1.3755332083145628	1.3832570771285388	1.3756828159907837	1.3838307719028917	1.3836531500402869	157.0	255.0	11111110.0	
-0.004830745558080196	0.00010922048898010314	-0.0047928100577366425	1.3755346984308598	1.3832484344540161	1.375683114014043	1.3838263015540007	1.3836474875983582	158.0	255.0	11111110.0	
-0.004821717282448268	0.0001091132614995804	-0.004796386336849492	1.3755689711056913	1.38326154747743	1.3757173866888746	1.3838388185308956	1.3836597065519938	159.0	255.0	11111110.0	
-0.0048061403678567325	0.0001090060376504368	-0.004796684360108896	1.3756098002922297	1.3832716802682496	1.375762686224304	1.383848653298456	1.3836710314358511	160.0	255.0	11111110.0	
-0.004795048352369952	0.00010889881766467742	-0.0048026448252969775	1.3756455630833582	1.383268998058915	1.3757987470386919	1.3838450770193431	1.38366656108696	161.0	255.0	11111110.0	
-0.004786734124518307	0.00010879160177432978	-0.004810691453300888	1.375697121107235	1.3832782367799565	1.3758523912253846	1.383853123647347	1.3836769919010392	162.0	255.0	11111110.0	
-0.004777829560649145	0.0001086843902114423	-0.004815161802191949	1.375726625409916	1.3832746605008437	1.3758830876211032	1.3838507394612718	1.3836749057382234	163.0	255.0	11111110.0	
-0.004775805978639038	0.00010857718320808289	-0.004821718313898839	1.3757418245961457	1.3832654217798022	1.375900670993408	1.3838415007402303	1.3836641769008848	164.0	255.0	11111110.0	
-0.004780009257842078	0.00010846998099633745	-0.004828870872124537	1.3757644743638604	1.3832669118960992	1.3759230227378634	1.3838429908565273	1.3836656670171819	165.0	255.0	11111110.0	
-0.004790292667246817	0.00010836278380830849	-0.00483632145360964	1.3757704348290485	1.383260951430911	1.375932261458905	1.3838370303913392	1.3836597065519938	166.0	255.0	11111110.0	
-0.004800434539677824	0.00010825559187611359	-0.004838109593166064	1.3757629842475634	1.383253500849426	1.375921234598307	1.38383166597267	1.383654044110065	167.0	255.0	11111110.0	
-0.004809784374384308	0.00010814840543188394	-0.004834235290793811	1.3757477850613338	1.3832639316635051	1.3759066314585962	1.3838403086471927	1.3836608986450314	168.0	255.0	11111110.0	
-0.004820674911812456	0.00010804122470776285	-0.004828572848865133	1.3757182807586528	1.3832707861984714	1.3758744449465805	1.3838489513217154	1.38366656108696	169.0	255.0	11111110.0	
-0.0048258914833367765	0.00010793404993590432	-0.004815757848710757	1.375681623897746	1.383275554570622	1.3758365959926362	1.3838519315543094	1.3836722235288887	170.0	255.0	11111110.0	
-0.004836653980325251	0.0001078268813484715	-0.0048094993602632715	1.3756482452926928	1.3832654217798022	1.3758026213410641	1.3838423948100085	1.3836638788776254	171.0	255.0	11111110.0	
-0.004851569186216333	0.0001077197191776354	-0.0048115855230791	1.375625595524978	1.38326154747743	1.37577967355009	1.383837626437858	1.3836603025985126	172.0	255.0	11111110.0	
-0.004858568062137679	0.00010761256365557333	-0.004811883546338504	1.3756184429667524	1.3832672099193586	1.3757707328523079	1.3838423948100085	1.3836647729474036	173.0	255.0	11111110.0	
-0.004862025185168749	0.00010750541501446741	-0.004815459825451353	1.3756142706411207	1.3832687000356556	1.375768646689492	1.3838438849263055	1.3836632828311066	174.0	255.0	11111110.0	
-0.004857986816962815	0.0001073982734865032	-0.00481814203478599	1.3756220192458652	1.3832633356169863	1.3757760972709772	1.3838400106239332	1.3836614946915502	175.0	255.0	11111110.0	
-0.004844175737919826	0.00010729113930386826	-0.0048160558719701615	1.375641092734467	1.3832633356169863	1.3757969588991354	1.383840606670452	1.3836611966682908	176.0	255.0	11111110.0	
-0.004831973219848787	0.00010718401269875066	-0.004818738081304798	1.3756545037811403	1.3832511166633508	1.3758094758760304	1.3838274936470383	1.3836492757379146	177.0	255.0	11111110.0	
-0.004815974958490921	0.00010707689390333753	-0.004818738081304798	1.3756980151770133	1.3832636336402457	1.3758535833184222	1.383837626437858	1.3836597065519938	178.0	255.0	11111110.0	
-0.004800118547649238	0.0001069697831498137	-0.004817545988267182	1.3757078499445736	1.3832573751517983	1.3758634180859826	1.38383166597267	1.3836543421333245	179.0	255.0	11111110.0	
-0.004795675123762621	0.00010686268067036016	-0.004824996569752284	1.3757069558747954	1.3832543949192042	1.3758616299464261	1.38383166597267	1.383652553993768	180.0	255.0	11111110.0	
-0.004793229533611619	0.00010675558669715266	-0.004830659011680962	1.3756863922698965	1.3832448581749033	1.3758404702950084	1.383825109460963	1.3836445073657642	181.0	255.0	11111110.0	
-0.004791902550129775	0.0001066485014623603	-0.0048324471512373865	1.3756789416884114	1.383254990965723	1.375834211806561	1.3838325600424481	1.3836537460868057	182.0	255.0	11111110.0	
-0.0047970376514525105	0.00010654142519814413	-0.004835427383831427	1.3756664247115165	1.3832654217798022	1.375821694829666	1.3838409046937115	1.3836656670171819	183.0	255.0	11111110.0	
-0.004812632076864035	0.00010643435813665573	-0.004844666104872954	1.375615164710899	1.3832597593378735	1.3757680506429733	1.3838382224843768	1.3836588124822156	184.0	255.0	11111110.0	
-0.004824214627995564	0.00010632730051003568	-0.004846752267688783	1.375551089710127	1.3832576731750577	1.375700697386348	1.383836136321561	1.383654640156584	185.0	255.0	11111110.0	
-0.004829509602727698	0.00010622025255041229	-0.004839897732722489	1.3754774779650543	1.3832499245703131	1.375625595524978	1.3838260035307413	1.3836471895750988	186.0	255.0	11111110.0	
-0.00483985228610509	0.0001061132144899001	-0.004836917500128448	1.3754068464525755	1.3832448581749033	1.375551089710127	1.3838212351585908	1.3836412291099107	187.0	255.0	11111110.0	
-0.004843409091818197	0.00010600618656059853	-0.004827678779086921	1.3753409833122472	1.3832400898027528	1.3754834384302423	1.3838170628329591	1.3836388449238355	188.0	255.0	11111110.0	
-0.0048423617220163615	0.00010589916899459045	-0.004815459825451353	1.3752396554040498	1.383242473988828	1.3753800243592291	1.3838203410888126	1.3836409310866513	189.0	255.0	11111110.0	
-0.004848304216650985	0.0001057921620239408	-0.004813671685894929	1.3751466721471157	1.3832588652680953	1.3752837628464416	1.3838343481820046	1.3836549381798433	190.0	255.0	11111110.0	
-0.004851629130990875	0.00010568516588069525	-0.004814267732413737	1.375077530750934	1.3832642296867645	1.3752119392409252	1.3838400106239332	1.3836611966682908	191.0	255.0	11111110.0	
-0.004845042600781508	0.00010557818079687869	-0.004809797383522676	1.3750182241223126	1.383252010733129	1.375153526682082	1.383829579809854	1.3836516599239899	192.0	255.0	11111110.0	
-0.004837350701532921	0.00010547120700449386	-0.004808307267225655	1.3749791830753306	1.3832388977097152	1.375111505402506	1.3838170628329591	1.3836388449238355	193.0	255.0	11111110.0	
-0.0048343506521427325	0.00010536424473552003	-0.004815161802191949	1.3749717324938455	1.383257971198317	1.3751058429605774	1.3838367323680798	1.3836573223659185	194.0	255.0	11111110.0	
-0.004828476933388895	0.00010525729422191154	-0.004821718313898839	1.3749729245868831	1.3832663158495804	1.375107035053615	1.3838432888797867	1.383665070970663	195.0	255.0	11111110.0	
-0.004811792427482823	0.00010515035569559645	-0.004817545988267182	1.374973520633402	1.383275554570622	1.3751064390070962	1.3838495473682342	1.383673117598667	196.0	255.0	11111110.0	
-0.00478809349602339	0.00010504342938847512	-0.00480353889507519	1.3749738186566614	1.3832791308497348	1.3751046508675397	1.3838528256240876	1.383677587947558	197.0	255.0	11111110.0	
-0.004765795825304187	0.00010493651553241885	-0.004786253546029752	1.374963983889101	1.3832850913149228	1.3750933259836824	1.3838602762055727	1.383680568180152	198.0	255.0	11111110.0	
-0.00476014229160417	0.00010482961435926852	-0.004781187150619882	1.3749261349351567	1.3832803229427724	1.3750548809832193	1.3838558058566817	1.3836769919010392	199.0	255.0	11111110.0	
-0.004765423929443958	0.00010472272610083325	-0.004784167383213923	1.3748763650508362	1.3832797268962536	1.3750051110988988	1.3838558058566817	1.383676097831261	200.0	255.0	11111110.0	
-0.004764117620692287	0.0001046158509888889	-0.004778206918025841	1.374811992026805	1.3832824091055882	1.374938949935311	1.3838572959729787	1.3836793760871144	201.0	255.0	11111110.0	
-0.004767096762420225	0.00010450898925517681	-0.004774630638912992	1.3747428506306232	1.38328151503581	1.3748683184228323	1.3838566999264599	1.3836796741103738	202.0	255.0	11111110.0	
-0.004777225908394366	0.0001044021411314024	-0.004777908894766437	1.3746680467925128	1.3832782367799565	1.374789938305609	1.3838549117869035	1.383676097831261	203.0	255.0	11111110.0	
-0.0047801373616847475	0.00010429530684923374	-0.004774630638912992	1.3746027796987033	1.383271978291509	1.374721989002465	1.3838498453914936	1.3836710314358511	204.0	255.0	11111110.0	
-0.004780365260941127	0.0001041884866403003	-0.004769564243503123	1.3745550959771986	1.383270488175212	1.3746737092344414	1.383850143414753	1.3836707334125917	205.0	255.0	11111110.0	
-0.004778401605188839	0.00010408168073619141	-0.004763603778315041	1.374503835976581	1.3832672099193586	1.374620959117527	1.3838438849263055	1.383663580854366	206.0	255.0	11111110.0	
-0.004777097754548828	0.00010397488936845509	-0.004760027499202192	1.3744650929528586	1.3832642296867645	1.374580427954248	1.3838382224843768	1.3836603025985126	207.0	255.0	11111110.0	
-0.004771061400652553	0.00010386811276859663	-0.004753470987495302	1.3744466155107755	1.3832687000356556	1.3745610564423867	1.3838453750426025	1.383665070970663	208.0	255.0	11111110.0	
-0.004759704023077631	0.00010376135116807721	-0.0047427421501567545	1.3744412510921062	1.3832713822449902	1.374555394000458	1.383848653298456	1.3836698393428135	209.0	255.0	11111110.0	
-0.004752470183290116	0.00010365460479831263	-0.004737079708228077	1.374445423417738	1.3832707861984714	1.374562844581943	1.3838498453914936	1.3836683492265165	210.0	255.0	11111110.0	
-0.004744038763191329	0.00010354787389067189	-0.004731119243039995	1.374457344348114	1.3832672099193586	1.3745714872564658	1.383844182949565	1.3836662630637007	211.0	255.0	11111110.0	
-0.004746322780592388	0.0001034411586764758	-0.004737079708228077	1.3744621127202645	1.3832597593378735	1.3745780437681727	1.3838343481820046	1.3836582164356968	212.0	255.0	11111110.0	
-0.0047488859114127036	0.00010333445938699577	-0.004744828312972583	1.3744576423713735	1.3832558850355012	1.374577447721654	1.38383166597267	1.3836522559705087	213.0	255.0	11111110.0	
-0.004744661563431744	0.00010322777625345239	-0.004746318429269604	1.3744540660922606	1.383245454221422	1.3745720833029846	1.383822129228369	1.3836415271331701	214.0	255.0	11111110.0	
-0.004740972862645459	0.00010312110950701414	-0.004747808545566624	1.3744492977201102	1.38323651352364	1.3745670169075748	1.3838122944608087	1.3836322884121286	215.0	255.0	11111110.0	
-0.004741143584359192	0.00010301445937879604	-0.004752278894457685	1.3744516819061854	1.383239493756234	1.3745705931866876	1.3838167648096997	1.3836367587610197	216.0	255.0	11111110.0	
-0.004742115588859446	0.00010290782609985837	-0.004756451220089343	1.3744561522550764	1.3832463482912003	1.3745750635355787	1.3838230232981472	1.3836439113192454	217.0	255.0	11111110.0	
-0.0047419256515075486	0.00010280120990120524	-0.004757941336386363	1.3744770138832347	1.3832552889889824	1.3745938390009211	1.38383166597267	1.3836519579472493	218.0	255.0	11111110.0	
-0.004746820874168197	0.00010269461101378333	-0.004763007731796233	1.3745029419068029	1.3832570771285388	1.3746191709779705	1.3838328580657075	1.3836528520170275	219.0	255.0	11111110.0	
-0.004753174267313287	0.0001025880296684806	-0.004768372150465506	1.3745515196980858	1.3832597593378735	1.3746698349320692	1.3838334541122264	1.3836549381798433	220.0	255.0	11111110.0	
-0.004761594829256601	0.00010248146609612494	-0.004774928662172396	1.3746132105127824	1.383242473988828	1.3747315257467658	1.3838170628329591	1.3836382488773167	221.0	255.0	11111110.0	
-0.0047688962696251155	0.00010237492052748285	-0.004779697034322862	1.3746880143508928	1.3832290629421549	1.3748093098174703	1.3838042478328048	1.3836287121330157	222.0	255.0	11111110.0	
-0.004776699556644716	0.00010226839319325816	-0.004784465406473327	1.3747792094682705	1.38323651352364	1.3749016970278856	1.3838149766701433	1.3836364607377603	223.0	255.0	11111110.0	
-0.004784980065831443	0.00010216188432409071	-0.004789531801883197	1.3748861998183965	1.383259461314614	1.3750128597036433	1.3838364343448204	1.3836570243426591	224.0	255.0	11111110.0	
-0.0047950822834413815	0.00010205539415055499	-0.004796684360108896	1.374976500865996	1.3832472423609785	1.3751088231931714	1.383822129228369	1.3836442093425048	225.0	255.0	11111110.0	
-0.004802029385612443	0.0001019489229031589	-0.004801154708999957	1.3751088231931714	1.383246944337719	1.3752447217994597	1.3838209371353314	1.3836442093425048	226.0	255.0	11111110.0	
-0.004804272948159548	0.00010184247081234242	-0.004801154708999957	1.3752629012182833	1.3832493285237943	1.3754041642432409	1.3838197450422938	1.3836439113192454	227.0	255.0	11111110.0	
-0.004807172911253173	0.00010173603810847628	-0.004802048778778169	1.3754297942435496	1.3832415799190498	1.3755779118034734	1.3838119964375493	1.3836364607377603	228.0	255.0	11111110.0	
-0.004809538725555908	0.00010162962502186071	-0.0048029428485563816	1.375597581338594	1.3832418779423092	1.375751659363706	1.383816168763181	1.3836382488773167	229.0	255.0	11111110.0	
-0.004805568179102478	0.00010152323178272413	-0.004797876453146512	1.375757619828894	1.3832493285237943	1.375918254365713	1.3838230232981472	1.383645103412283	230.0	255.0	11111110.0	
-0.004800534173944073	0.00010141685862122186	-0.00479191598795843	1.3759069294818556	1.383240983872531	1.3760741205303813	1.3838155727166621	1.3836388449238355	231.0	255.0	11111110.0	
-0.004798787607653298	0.0001013105057674348	-0.004789829825142601	1.3760684580884526	1.3832442621283845	1.3762404175091287	1.3838155727166621	1.383640037016873	232.0	255.0	11111110.0	
-0.004794670394045336	0.00010120417345136823	-0.004786253546029752	1.3762201519274893	1.383250520616832	1.3764001579761693	1.3838242153911848	1.3836459974820612	233.0	255.0	11111110.0	
-0.004793113037698385	0.00010109786190295046	-0.004786253546029752	1.3763378711149539	1.3832463482912003	1.3765247316986002	1.3838185529492562	1.3836409310866513	234.0	255.0	11111110.0	
-0.00479299885092385	0.00010099157135203148	-0.0047889357553643885	1.3764347286742602	1.3832508186400914	1.3766251655370194	1.3838212351585908	1.3836433152727265	235.0	255.0	11111110.0	
-0.004791019877299395	0.00010088530202838184	-0.004790723894920813	1.3765050621634796	1.3832537988726854	1.376699373328611	1.383828089693557	1.383651063877471	236.0	255.0	11111110.0	
-0.004788383981007303	0.00010077905416169136	-0.004792214011217834	1.3765607925129881	1.3832576731750577	1.3767571898409354	1.38383166597267	1.3836543421333245	237.0	255.0	11111110.0	
-0.004786007027909926	0.00010067282798156784	-0.004793704127514855	1.3766046019321205	1.3832499245703131	1.3768045755391807	1.3838224272516284	1.3836448053890236	238.0	255.0	11111110.0	
-0.004782501430890292	0.00010056662371753578	-0.004793108080996047	1.376641854839546	1.3832478384074973	1.3768430205396438	1.3838209371353314	1.3836412291099107	239.0	255.0	11111110.0	
-0.004784431557763481	0.00010046044159903513	-0.004796684360108896	1.3766782136771933	1.383240983872531	1.3768832536796634	1.3838167648096997	1.3836388449238355	240.0	255.0	11111110.0	
-0.004788752626111293	0.00010035428185542006	-0.004801452732259361	1.3767232151893634	1.38323651352364	1.3769303413546492	1.383809612251474	1.3836349706214632	241.0	255.0	11111110.0	
-0.004797384858420028	0.00010024814471595772	-0.0048094993602632715	1.3767604680967889	1.3832216123606698	1.3769717665877064	1.3837938170187256	1.3836173872491584	242.0	255.0	11111110.0	
-0.004803734670575329	0.00010014203040982694	-0.004814267732413737	1.376828417399933	1.3832201222443727	1.3770406099606287	1.383794115041985	1.3836150030630832	243.0	255.0	11111110.0	
-0.0048085636785753505	0.00010003593916611705	-0.004816353895229566	1.3769100757730097	1.3832290629421549	1.3771282287988935	1.383802161669989	1.383624539807384	244.0	255.0	11111110.0	
-0.004816273620867529	9.992987121382662e-05	-0.004820526220861223	1.3769875618204548	1.3832388977097152	1.377210483218489	1.3838114003910305	1.3836328844586474	245.0	255.0	11111110.0	
-0.004823561296478427	9.982382678186214e-05	-0.004824102499974072	1.3770531269375237	1.383260951430911	1.3772781344983738	1.3838334541122264	1.383657620389178	246.0	255.0	11111110.0	
-0.004827704873721546	9.971780609903695e-05	-0.00482469854649288	1.3770808431006483	1.383259461314614	1.3773043605452013	1.3838319639959293	1.3836570243426591	247.0	255.0	11111110.0	
-0.004834120017129573	9.961180939406988e-05	-0.004828274825605729	1.3770903798449492	1.3832514146866102	1.3773153874057993	1.3838245134144442	1.3836474875983582	248.0	255.0	11111110.0	
-0.0048386495435596534	9.950583689558411e-05	-0.00483125505819977	1.3771002146125095	1.3832436660818657	1.3773282024059537	1.3838170628329591	1.3836397389936137	249.0	255.0	11111110.0	
-0.004836656989508823	9.939988883210594e-05	-0.004828870872124537	1.3770859094960581	1.3832374075934182	1.3773138972895023	1.383811102367771	1.383634076551685	250.0	255.0	11111110.0	
-0.004829281480038072	9.929396543206354e-05	-0.004821718313898839	1.3770397158908505	1.3832338313143053	1.3772644254284412	1.3838087181816958	1.3836322884121286	251.0	255.0	11111110.0	
-0.004823536809683184	9.918806692378582e-05	-0.00481665191848897	1.3770048471695002	1.3832377056166776	1.3772283646140533	1.383812592484068	1.3836346725982038	252.0	255.0	11111110.0	
-0.004817846233945185	9.90821935355011e-05	-0.004812181569597908	1.376986965773936	1.3832430700353469	1.3772098871719702	1.3838164667864403	1.3836379508540573	253.0	255.0	11111110.0	
-0.004812606505431425	9.897634549533595e-05	-0.004808605290485059	1.3769920321693458	1.383254990965723	1.3772137614743425	1.3838268976005195	1.3836513619007305	254.0	255.0	11111110.0	
-0.004809665537970485	9.887052303131397e-05	-0.004807711220706847	1.3770036550764626	1.3832445601516439	1.3772253843814592	1.383817658879478	1.3836412291099107	255.0	255.0	11111110.0	
-0.004806253228046227	9.876472637135462e-05	-0.004806519127669231	1.377051934844486	1.383250520616832	1.3772766443820768	1.383825109460963	1.3836474875983582	0.0	255.0	11111110.0	
-0.004801673045781261	9.865895574327199e-05	-0.004803836918334594	1.3771073671707352	1.383250520616832	1.377338037173514	1.383822129228369	1.3836471895750988	1.0	255.0	11111110.0	
-0.00479894692524983	9.855321137477359e-05	-0.004802346802037573	1.3771797868227704	1.3832478384074973	1.3774158212442185	1.3838197450422938	1.3836445073657642	2.0	255.0	11111110.0	
-0.004795618308638251	9.84474934934592e-05	-0.0047993665694435325	1.377276048335558	1.383247540384238	1.3775156590361188	1.3838197450422938	1.3836442093425048	3.0	255.0	11111110.0	
-0.004798084324530607	9.834180232681967e-05	-0.004801452732259361	1.377387509034575	1.3832478384074973	1.3776324841538052	1.3838203410888126	1.383643613295986	4.0	255.0	11111110.0	
-0.004806513569192806	9.823613810223574e-05	-0.0048094993602632715	1.3775073143848555	1.3832400898027528	1.3777612302018678	1.383814082600365	1.3836364607377603	5.0	255.0	11111110.0	
-0.004816224553439376	9.813050104697679e-05	-0.0048193341278236065	1.3776166889210568	1.3832341293375647	1.3778768632265166	1.38380663201888	1.3836307982958316	6.0	255.0	11111110.0	
-0.004819198034893454	9.802489138819974e-05	-0.0048226123836770515	1.3777177188059948	1.3832353214306023	1.3779799792742704	1.3838090162049552	1.383632586435388	7.0	255.0	11111110.0	
-0.004819045881974708	9.791930935294788e-05	-0.004822314360417647	1.3778118941559665	1.3832344273608241	1.3780813071824678	1.3838116984142899	1.383634076551685	8.0	255.0	11111110.0	
-0.004816658321844415	9.781375516814965e-05	-0.004819036104564202	1.3778968307848967	1.3832371095701588	1.3781730983463643	1.3838122944608087	1.3836373548075385	9.0	255.0	11111110.0	
-0.0048166404413646615	9.770822906061753e-05	-0.004817545988267182	1.3779644820647814	1.3832371095701588	1.3782449219518806	1.3838137845771057	1.3836361627145009	10.0	255.0	11111110.0	
-0.004815389475180443	9.760273125704681e-05	-0.004814565755673141	1.378016636135177	1.383247540384238	1.3783009503246486	1.3838230232981472	1.3836439113192454	11.0	255.0	11111110.0	
-0.0048116548382658554	9.749726198401443e-05	-0.004808903313744463	1.3780395839261512	1.383249030500535	1.378326282301698	1.383823619344666	1.3836456994588018	12.0	255.0	11111110.0	
-0.0048107620883258454	9.739182146797785e-05	-0.0048062211044098265	1.3780523989263056	1.383239493756234	1.3783399913716305	1.3838152746934027	1.383639142947095	13.0	255.0	11111110.0	
-0.004807054455181758	9.72864099352739e-05	-0.004801154708999957	1.3780798170661708	1.3832514146866102	1.3783650253254205	1.3838254074842224	1.383649573761174	14.0	255.0	11111110.0	
-0.004808225110470242	9.718102761211773e-05	-0.004801750755518765	1.3781045529967013	1.3832526067796478	1.378391251372248	1.3838263015540007	1.3836522559705087	15.0	255.0	11111110.0	
-0.004809665247797843	9.707567472460155e-05	-0.004803836918334594	1.378142699973905	1.3832576731750577	1.378434762768121	1.38383166597267	1.3836552362031027	16.0	255.0	11111110.0	
-0.004811125550304209	9.697035149869354e-05	-0.004807115174188039	1.37818025090459	1.3832570771285388	1.3784732077685842	1.383830175856373	1.3836537460868057	17.0	255.0	11111110.0	
-0.004810602901466676	9.686505816023667e-05	-0.0048092013370038674	1.378217205788756	1.3832478384074973	1.3785140369551225	1.383819148995775	1.3836433152727265	18.0	255.0	11111110.0	
-0.004809550457441018	9.675979493494763e-05	-0.004810989476560292	1.3782619092776667	1.383235023407343	1.3785611246301084	1.3838093142282146	1.383632586435388	19.0	255.0	11111110.0	
-0.004809862581603386	9.66545620484157e-05	-0.004813969709154333	1.378322706022585	1.3832388977097152	1.3786254976541397	1.3838114003910305	1.3836364607377603	20.0	255.0	11111110.0	
-0.004807870870717564	9.654935972610158e-05	-0.004813969709154333	1.3784025762561054	1.3832523087563884	1.3787095402132916	1.3838257055074819	1.383649573761174	21.0	255.0	11111110.0	
-0.004804468813597043	9.644418819333628e-05	-0.004811287499819696	1.378473803815103	1.3832597593378735	1.3787846420746614	1.383834646205264	1.3836573223659185	22.0	255.0	11111110.0	
-0.00480671671782205	9.633904767532007e-05	-0.004813075639376121	1.3785244677692017	1.3832484344540161	1.3788376902148354	1.3838242153911848	1.3836483816681364	23.0	255.0	11111110.0	
-0.004807751509654491	9.623393839712132e-05	-0.0048127776161167165	1.3785566542812173	1.3832359174771212	1.3788734530059639	1.3838108043445116	1.3836361627145009	24.0	255.0	11111110.0	
-0.004810066567963299	9.612886058367535e-05	-0.004813075639376121	1.3785912249793082	1.383238003639937	1.3789077256807953	1.3838128905073275	1.383638546900576	25.0	255.0	11111110.0	
-0.004813497177135547	9.602381445978346e-05	-0.004814267732413737	1.37861029846791	1.3832418779423092	1.3789306734717695	1.3838173608562185	1.3836403350401325	26.0	255.0	11111110.0	
-0.004816159270418798	9.591880025011167e-05	-0.004814863778932545	1.3786150668400605	1.3832427720120875	1.3789381240532546	1.3838173608562185	1.3836427192262077	27.0	255.0	11111110.0	
-0.0048147254765153425	9.581381817918972e-05	-0.0048115855230791	1.3786156628865793	1.3832585672448359	1.3789360378904387	1.3838319639959293	1.383654640156584	28.0	255.0	11111110.0	
-0.004816110477033757	9.570886847140994e-05	-0.0048115855230791	1.378582284281526	1.3832529048029072	1.3788996790527914	1.3838268976005195	1.3836516599239899	29.0	255.0	11111110.0	
-0.004816098531590072	9.560395135102614e-05	-0.004810989476560292	1.3785381768391343	1.3832561830587606	1.378852889401065	1.3838310699261511	1.3836573223659185	30.0	255.0	11111110.0	
-0.004818933319906485	9.549906704215254e-05	-0.004814267732413737	1.3784898970711108	1.3832529048029072	1.3787992452143722	1.3838277916702977	1.3836528520170275	31.0	255.0	11111110.0	
-0.004821491012165765	9.539421576876271e-05	-0.004818440058045394	1.3784562204427981	1.383249030500535	1.3787655685860596	1.3838242153911848	1.3836489777146552	32.0	255.0	11111110.0	
-0.004824273617718487	9.528939775468848e-05	-0.004823804476714668	1.3784404252100497	1.3832558850355012	1.37875036939983	1.3838319639959293	1.3836567263193997	33.0	255.0	11111110.0	
-0.004833752735396903	9.518461322361889e-05	-0.004836917500128448	1.3784255240470795	1.383259461314614	1.3787321899810063	1.3838334541122264	1.383657620389178	34.0	255.0	11111110.0	
-0.0048409182588515865	9.507986239909903e-05	-0.004848540407245207	1.3784016821863272	1.3832484344540161	1.3787074540504758	1.3838224272516284	1.3836468915518394	35.0	255.0	11111110.0	
-0.004843015169023645	9.497514550452914e-05	-0.004854798895692694	1.3783972118374361	1.383246050267941	1.3787041757946223	1.3838212351585908	1.3836471895750988	36.0	255.0	11111110.0	
-0.004843235473712252	9.487046276316335e-05	-0.004857779128286735	1.3783972118374361	1.383245454221422	1.3787041757946223	1.383819148995775	1.3836454014355424	37.0	255.0	11111110.0	
-0.004845918785753884	9.476581439810878e-05	-0.004861355407399584	1.3784106228841093	1.3832496265470537	1.3787190769575925	1.383823619344666	1.383649573761174	38.0	255.0	11111110.0	
-0.0048487519272730215	9.46612006323244e-05	-0.004863143546956009	1.3784255240470795	1.3832558850355012	1.378731891957747	1.3838304738796323	1.3836567263193997	39.0	255.0	11111110.0	
-0.004852503493686273	9.455662168861994e-05	-0.004864037616734221	1.3784040663724024	1.383257971198317	1.3787101362598104	1.3838298778331135	1.3836567263193997	40.0	255.0	11111110.0	
-0.004856740410056146	9.445207778965496e-05	-0.004864037616734221	1.3783703897440898	1.3832576731750577	1.3786734793989037	1.3838292817865947	1.3836552362031027	41.0	255.0	11111110.0	
-0.004854704396239827	9.434756915793767e-05	-0.004856587035249119	1.3783364150925177	1.3832654217798022	1.3786374185845158	1.3838370303913392	1.383663580854366	42.0	255.0	11111110.0	
-0.004847286067742713	9.424309601582395e-05	-0.0048425799420571255	1.3782791946267121	1.383260951430911	1.3785781119558944	1.3838373284145986	1.3836641769008848	43.0	255.0	11111110.0	
-0.004849389937545251	9.413865858551627e-05	-0.004838109593166064	1.3781993243931918	1.38325648108202	1.3784928773037048	1.383833156088967	1.383660600621772	44.0	255.0	11111110.0	
-0.004851101306033661	9.403425708906271e-05	-0.004834831337312619	1.3781090233455924	1.3832570771285388	1.3783972118374361	1.3838304738796323	1.3836579184124373	45.0	255.0	11111110.0	
-0.0048427351548361725	9.392989174835592e-05	-0.00482320843019586	1.3780094835769514	1.3832558850355012	1.3782911155570883	1.383830175856373	1.3836549381798433	46.0	255.0	11111110.0	
-0.004828349082414569	9.3825562785132e-05	-0.004806817150928635	1.3779018971803065	1.3832567791052794	1.378176674625477	1.3838349442285234	1.3836573223659185	47.0	255.0	11111110.0	
-0.004818720857941363	9.372127042096956e-05	-0.004796684360108896	1.37779013845803	1.3832543949192042	1.378059253461272	1.3838334541122264	1.3836573223659185	48.0	255.0	11111110.0	
-0.004812321942745876	9.361701487728854e-05	-0.00479191598795843	1.3776941749685019	1.3832567791052794	1.3779591176461121	1.3838340501587452	1.383657620389178	49.0	255.0	11111110.0	
-0.004807787376828408	9.351279637534934e-05	-0.004791319941439622	1.3776151988047598	1.3832558850355012	1.3778744790404414	1.3838307719028917	1.3836567263193997	50.0	255.0	11111110.0	
-0.004801700196253787	9.340861513625182e-05	-0.004791021918180217	1.3775690051995522	1.3832603553843923	1.3778247091561209	1.3838352422517828	1.383660600621772	51.0	255.0	11111110.0	
-0.004795246047490013	9.330447138093416e-05	-0.004791319941439622	1.3775311562456078	1.3832576731750577	1.377785668109139	1.3838334541122264	1.383659110505475	52.0	255.0	11111110.0	
-0.004786273998282168	9.32003653301719e-05	-0.0047889357553643885	1.3775082084546337	1.3832582692215765	1.3777603361320896	1.3838364343448204	1.3836608986450314	53.0	255.0	11111110.0	
-0.0047843926207185635	9.309629720457695e-05	-0.0047928100577366425	1.3775028440359645	1.383263037593727	1.3777522895040857	1.3838429908565273	1.3836674551567383	54.0	255.0	11111110.0	
-0.004783669716392055	9.29922672245965e-05	-0.004796684360108896	1.3774939033381823	1.383257971198317	1.3777427527597848	1.383836136321561	1.3836617927148096	55.0	255.0	11111110.0	
-0.004783774545551267	9.28882756105121e-05	-0.004799664592702937	1.3774927112451447	1.383260951430911	1.3777433488063036	1.383839116554155	1.383663580854366	56.0	255.0	11111110.0	
-0.004785880875592199	9.278432258243853e-05	-0.0048026448252969775	1.3774816843845468	1.3832722763147685	1.377731129852668	1.3838507394612718	1.3836755017847422	57.0	255.0	11111110.0	
-0.0047913174502253264	9.26804083603229e-05	-0.004807115174188039	1.3774536701981628	1.3832725743380279	1.377701625549987	1.3838495473682342	1.3836757998080016	58.0	255.0	11111110.0	
-0.004796796346445089	9.25765331639437e-05	-0.00481009540678208	1.3774253579885194	1.383275554570622	1.3776685449681931	1.3838543157403846	1.3836796741103738	59.0	255.0	11111110.0	
-0.004802854282912034	9.247269721290966e-05	-0.0048124795928573124	1.3773678394994544	1.3832713822449902	1.3776077482232747	1.3838510374845312	1.383674607714964	60.0	255.0	11111110.0	
-0.004810641299815084	9.236890072665878e-05	-0.0048160558719701615	1.3772829028705242	1.3832707861984714	1.3775183412454535	1.383847163182159	1.3836737136451858	61.0	255.0	11111110.0	
-0.004819122006441511	9.226514392445746e-05	-0.004820526220861223	1.3771869393809961	1.3832713822449902	1.377419099500072	1.3838489513217154	1.3836757998080016	62.0	255.0	11111110.0	
-0.004828795848268087	9.21614270253994e-05	-0.004827082732568113	1.3770787569378324	1.3832633356169863	1.3773043605452013	1.383842096786749	1.383668647249776	63.0	255.0	11111110.0	
-0.0048332083135793295	9.205775024840461e-05	-0.0048294669186433456	1.3769798132157103	1.3832633356169863	1.3772021385672257	1.3838417987634897	1.383668051203257	64.0	255.0	11111110.0	
-0.004836360681850707	9.195411381221839e-05	-0.004831553081459174	1.3768880220518138	1.3832499245703131	1.3771082612405134	1.383830175856373	1.3836543421333245	65.0	255.0	11111110.0	
-0.00484107399296428	9.185051793541043e-05	-0.00483632145360964	1.376814410306741	1.3832400898027528	1.3770295831000308	1.3838182549259967	1.3836439113192454	66.0	255.0	11111110.0	
-0.004846887796428262	9.174696283637377e-05	-0.004843474011835338	1.3767467590268563	1.383228466895636	1.3769565674014768	1.3838093142282146	1.3836352686447226	67.0	255.0	11111110.0	
-0.004849352449147292	9.164344873332374e-05	-0.004848242383985803	1.3766940089099418	1.38323144712823	1.3768996449589306	1.3838105063212522	1.3836367587610197	68.0	255.0	11111110.0	
-0.004849168476187164	9.153997584429708e-05	-0.004850626570061036	1.3766615243746667	1.3832356194538618	1.3768647762375803	1.383814678646884	1.383639142947095	69.0	255.0	11111110.0	
-0.004843085105274323	9.1436544387151e-05	-0.004846454244429379	1.376652881700144	1.383239493756234	1.3768558355397982	1.383819148995775	1.3836448053890236	70.0	255.0	11111110.0	
-0.004837421377783155	9.133315457956216e-05	-0.004841387849019509	1.3766496034442905	1.383246050267941	1.376853451353723	1.3838260035307413	1.3836522559705087	71.0	255.0	11111110.0	
-0.004832243840731925	9.122980663902564e-05	-0.004835427383831427	1.3766379805371738	1.3832400898027528	1.3768442126326814	1.383820639112072	1.3836471895750988	72.0	255.0	11111110.0	
-0.0048223697692805975	9.112650078285397e-05	-0.00482320843019586	1.3766284437928729	1.3832388977097152	1.3768334837953429	1.383819148995775	1.3836454014355424	73.0	255.0	11111110.0	
-0.0048103126392263955	9.102323722817628e-05	-0.004807115174188039	1.3766120525136056	1.383247540384238	1.3768120261206658	1.383825109460963	1.3836498717844334	74.0	255.0	11111110.0	
-0.0047994574162203785	9.09200161919373e-05	-0.004791021918180217	1.3765607925129881	1.383240983872531	1.3767589779804918	1.383819148995775	1.3836415271331701	75.0	255.0	11111110.0	
-0.004799312219332206	9.081683789089627e-05	-0.004785955522770348	1.3764985056517727	1.3832374075934182	1.3766954990262388	1.3838170628329591	1.3836415271331701	76.0	255.0	11111110.0	
-0.004799728543400813	9.071370254162614e-05	-0.004783273313435711	1.3764260859997375	1.3832374075934182	1.3766195030950907	1.3838152746934027	1.383642123179689	77.0	255.0	11111110.0	
-0.0048017755331278	9.061061036051255e-05	-0.004784763429732731	1.3763322086730252	1.3832293609654143	1.3765202613497092	1.3838108043445116	1.3836364607377603	78.0	255.0	11111110.0	
-0.004799728714823148	9.050756156375285e-05	-0.004784763429732731	1.3762276025089744	1.3832245925932638	1.376410290766989	1.3838060359723612	1.3836302022493128	79.0	255.0	11111110.0	
-0.004788099465850365	9.040455636735514e-05	-0.004776716801728821	1.3761381955311531	1.3832242945700044	1.3763134332076827	1.3838042478328048	1.3836287121330157	80.0	255.0	11111110.0	
-0.004774394837693583	9.030159498713743e-05	-0.004766882034168486	1.3760624976232645	1.3832275728258578	1.3762353511137189	1.3838072280653988	1.3836319903888692	81.0	255.0	11111110.0	
-0.004774285105972935	9.019867763872665e-05	-0.004771054359800143	1.3760040850644213	1.3832275728258578	1.3761763425083569	1.3838090162049552	1.3836328844586474	82.0	255.0	11111110.0	
-0.004786742355811309	9.009580453755761e-05	-0.0047892337786237926	1.3759805412269284	1.383246944337719	1.3761489243684917	1.3838260035307413	1.383649573761174	83.0	255.0	11111110.0	
-0.004793071356955128	8.999297589887223e-05	-0.004802346802037573	1.3759528250638038	1.383247540384238	1.37611971808907	1.3838254074842224	1.3836513619007305	84.0	255.0	11111110.0	
-0.0047937911181690565	8.989019193771847e-05	-0.0048092013370038674	1.3759403080869088	1.3832385996864558	1.3761069030889157	1.3838197450422938	1.383645103412283	85.0	255.0	11111110.0	
-0.004791862415040725	8.978745286894952e-05	-0.004811287499819696	1.375956699366176	1.3832400898027528	1.37612478448448	1.3838209371353314	1.3836433152727265	86.0	255.0	11111110.0	
-0.0047890949117856026	8.968475890722281e-05	-0.0048094993602632715	1.37598471355256	1.3832484344540161	1.3761530966941233	1.383828089693557	1.3836501698076928	87.0	255.0	11111110.0	
-0.004791449830028024	8.958211026699909e-05	-0.004809797383522676	1.3759859056455976	1.3832543949192042	1.3761545868104204	1.3838343481820046	1.3836570243426591	88.0	255.0	11111110.0	
-0.004795612873539676	8.947950716254147e-05	-0.0048094993602632715	1.375748679131112	1.3832445601516439	1.375908717621412	1.383823619344666	1.3836462955053206	89.0	255.0	11111110.0	
-0.00479830008995083	8.937694980791459e-05	-0.0048059230811504225	1.3753189295910513	1.3832391957329746	1.375462576802084	1.3838182549259967	1.3836412291099107	90.0	255.0	11111110.0	
-0.004803348029787093	8.927443841698365e-05	-0.004803836918334594	1.3750521987738846	1.383240983872531	1.37518452110106	1.3838197450422938	1.38364659352858	91.0	255.0	11111110.0	
-0.004804733334193801	8.917197320341354e-05	-0.004798174476405916	1.3748471587714146	1.3832487324772755	1.3749744147031802	1.3838277916702977	1.3836531500402869	92.0	255.0	11111110.0	
-0.0048007866550618195	8.906955438066796e-05	-0.004787743662326772	1.3746442049317604	1.383243964105125	1.3747652023750785	1.3838242153911848	1.3836462955053206	93.0	255.0	11111110.0	
-0.0047951610825927955	8.896718216200833e-05	-0.004776716801728821	1.374413832952241	1.3832371095701588	1.3745297640001493	1.3838170628329591	1.3836412291099107	94.0	255.0	11111110.0	
-0.004767425482973027	8.88648567604931e-05	-0.004743934243194371	1.3724000897884476	1.3832433680586063	1.372484430370859	1.3838230232981472	1.3836486796913958	104.0	255.0	11111110.0	
-0.004768606662750474	8.87625783889768e-05	-0.004741550057119138	1.3723282661829312	1.3832403878260122	1.372412904788602	1.3838194470190344	1.3836468915518394	105.0	255.0	11111110.0	
-0.004769502733659216	8.866034726010917e-05	-0.0047427421501567545	1.3722621050193435	1.3832338313143053	1.3723449554854579	1.3838116984142899	1.3836397389936137	106.0	255.0	11111110.0	
-0.0047641711173005636	8.855816358633423e-05	-0.004741252033859734	1.3721887912975301	1.3832296589886737	1.372272833856682	1.3838093142282146	1.3836352686447226	107.0	255.0	11111110.0	
-0.004757126968742273	8.845602757988943e-05	-0.004740655987340926	1.372119351878089	1.38323651352364	1.3722030964139815	1.3838170628329591	1.3836439113192454	108.0	255.0	11111110.0	
-0.004760845667539729	8.835393945280477e-05	-0.004753172964235898	1.3726072159537335	1.3832451561981627	1.3726927486291824	1.3838254074842224	1.3836516599239899	102.0	255.0	11111110.0	
-0.004745728116532609	8.825189941690184e-05	-0.00474751052230722	1.3724820461847838	1.3832448581749033	1.3725663867671951	1.383825109460963	1.3836516599239899	103.0	255.0	11111110.0	
-0.004734353668465191	8.814990768379308e-05	-0.004743934243194371	1.3724000897884476	1.3832433680586063	1.372484430370859	1.3838230232981472	1.3836486796913958	104.0	255.0	11111110.0	
-0.004726554633336762	8.804796446488075e-05	-0.004741550057119138	1.3723282661829312	1.3832403878260122	1.372412904788602	1.3838194470190344	1.3836468915518394	105.0	255.0	11111110.0	
-0.004724945124884487	8.794606997135616e-05	-0.0047427421501567545	1.3722621050193435	1.3832338313143053	1.3723449554854579	1.3838116984142899	1.3836397389936137	106.0	255.0	11111110.0	
-0.004723335755268517	8.784422441419874e-05	-0.004741252033859734	1.3721887912975301	1.3832296589886737	1.372272833856682	1.3838093142282146	1.3836352686447226	107.0	255.0	11111110.0	
-0.004725152940387901	8.774242800417533e-05	-0.004740655987340926	1.372119351878089	1.38323651352364	1.3722030964139815	1.3838170628329591	1.3836439113192454	108.0	255.0	11111110.0	
-0.004736133628874009	8.764068095183921e-05	-0.004747808545566624	1.372026368621155	1.3832442621283845	1.3721095171105286	1.3838245134144442	1.3836531500402869	109.0	255.0	11111110.0	
-0.004752119218434725	8.75389834675292e-05	-0.004760027499202192	1.3718883838520508	1.3832341293375647	1.371971830364684	1.3838152746934027	1.3836430172494671	110.0	255.0	11111110.0	
-0.0047680106714951985	8.743733576136879e-05	-0.004773140522615972	1.3717253651291568	1.383229957011933	1.371807321525493	1.3838084201584364	1.3836373548075385	111.0	255.0	11111110.0	
-0.004774412820314721	8.733573804326527e-05	-0.004777610871507033	1.371538206522251	1.383223996546745	1.3716189708255495	1.3838042478328048	1.3836328844586474	112.0	255.0	11111110.0	
-0.0047738774334994075	8.723419052290901e-05	-0.0047752266854318	1.3713480676827512	1.3832207182908915	1.3714306201256061	1.3838003735304325	1.3836278180632375	113.0	255.0	11111110.0	
-0.004778536453562728	8.71326934097725e-05	-0.004778206918025841	1.3711618031456236	1.3832186321280757	1.3712434615187004	1.3837991814373949	1.3836257319004217	114.0	255.0	11111110.0	
-0.004784256116434234	8.703124691310948e-05	-0.004782975290176307	1.3709972943064326	1.3832260827095608	1.3710813368655845	1.3838090162049552	1.3836358646912414	115.0	255.0	11111110.0	
-0.004788884649131643	8.692985124195405e-05	-0.004787445639067368	1.3708616937234037	1.383228466895636	1.370946034305815	1.3838119964375493	1.3836364607377603	116.0	255.0	11111110.0	
-0.004795672316312252	8.682850660511996e-05	-0.004794896220552471	1.370736523954454	1.3832222084071886	1.3708193744205683	1.3838018636467295	1.3836278180632375	117.0	255.0	11111110.0	
-0.0047983307644833975	8.672721321119967e-05	-0.004798770522924724	1.370639964418407	1.38321654596526	1.3707231129077808	1.3837976913210979	1.3836224536445683	118.0	255.0	11111110.0	
-0.004803153959938524	8.662597126856348e-05	-0.00480502901137221	1.3706050956970568	1.3832257846863014	1.37068854220969	1.38380663201888	1.3836334805051662	119.0	255.0	11111110.0	
-0.004799728287128598	8.652478098535875e-05	-0.0048026448252969775	1.3705937708131994	1.3832168439885193	1.3706769193025732	1.3837976913210979	1.3836236457376059	120.0	255.0	11111110.0	
-0.004789206097276716	8.642364256950906e-05	-0.004791617964699026	1.3706083739529102	1.3832123736396282	1.370693012558581	1.3837953071350226	1.383618579342196	121.0	255.0	11111110.0	
-0.00477885688642401	8.632255622871325e-05	-0.004778802964544649	1.3706292355810685	1.3832153538722223	1.370712980116961	1.3837967972513197	1.3836227516678277	122.0	255.0	11111110.0	
-0.00477087418303605	8.622152217044474e-05	-0.004766882034168486	1.370635494069516	1.3832207182908915	1.370721026744965	1.383800075507173	1.3836254338771623	123.0	255.0	11111110.0	
-0.004766937461135265	8.61205406019506e-05	-0.004758537382905171	1.370629533604328	1.3832192281745945	1.370714470233258	1.3837988834141355	1.383624539807384	124.0	255.0	11111110.0	
-0.0047616796473574936	8.601961173025074e-05	-0.0047492986618636445	1.3706053937203162	1.3832177380582975	1.3706903303492464	1.3837991814373949	1.3836218575980495	125.0	255.0	11111110.0	
-0.004763840957207689	8.591873576213707e-05	-0.00474900063860424	1.3705615843011838	1.3832096914302936	1.3706456268603358	1.3837929229489474	1.3836158971328614	126.0	255.0	11111110.0	
-0.004766713894486019	8.581791290417272e-05	-0.004751980871198281	1.3705139005796791	1.383217440035038	1.370600029301647	1.383800671553692	1.383625135853903	127.0	255.0	11111110.0	
-0.0047582954666461775	8.571714336269114e-05	-0.004745722382750795	1.3704447591834974	1.3832272748025984	1.3705296958124276	1.383809612251474	1.3836346725982038	128.0	255.0	11111110.0	
-0.0047443483597745945	8.56164273437953e-05	-0.004734695522152844	1.3703595245313078	1.3832329372445271	1.3704408848811251	1.3838134865538463	1.3836388449238355	129.0	255.0	11111110.0	
-0.004740225640896553	8.551576505335689e-05	-0.004734099475634036	1.3702653491813361	1.3832332352677865	1.3703487956939693	1.3838122944608087	1.3836388449238355	130.0	255.0	11111110.0	
-0.004736298312234679	8.541515669701552e-05	-0.00473439749889344	1.3701941216223386	1.3832356194538618	1.3702787602280093	1.3838167648096997	1.383643613295986	131.0	255.0	11111110.0	
-0.004733728559559617	8.531460248017787e-05	-0.0047361856384498646	1.3701440537147587	1.3832406858492716	1.3702307784832453	1.3838209371353314	1.3836456994588018	132.0	255.0	11111110.0	
-0.004730229454688872	8.52141026080169e-05	-0.004736483661709269	1.3701041185979985	1.3832308510817113	1.3701884591804099	1.3838099102747334	1.3836364607377603	133.0	255.0	11111110.0	
-0.004729060248268746	8.511365728547108e-05	-0.004737973778006289	1.370096369993254	1.383232043174749	1.3701780283663307	1.3838122944608087	1.3836397389936137	134.0	255.0	11111110.0	
-0.00472761858134967	8.501326671724354e-05	-0.004737675754746885	1.370121403947044	1.383243964105125	1.370203956389899	1.383822129228369	1.3836513619007305	135.0	255.0	11111110.0	
-0.004730118502132067	8.491293110780122e-05	-0.004739761917562714	1.3701756441802555	1.383252010733129	1.370260878832445	1.3838319639959293	1.383659110505475	136.0	255.0	11111110.0	
-0.004738336480472061	8.481265066137412e-05	-0.004746616452529008	1.370243891506659	1.3832552889889824	1.3703300202286268	1.3838373284145986	1.3836632828311066	137.0	255.0	11111110.0	
-0.004746078797238167	8.471242558195454e-05	-0.0047525769177170895	1.3703088605772091	1.3832514146866102	1.3703937972061393	1.3838322620191887	1.3836597065519938	138.0	255.0	11111110.0	
-0.0047472351459631025	8.461225607329618e-05	-0.004751384824679473	1.370352968019601	1.3832448581749033	1.3704387987183093	1.383825109460963	1.3836507658542117	139.0	255.0	11111110.0	
-0.004752313359912903	8.451214233891338e-05	-0.004753769010754706	1.3703687632523494	1.383242473988828	1.3704534018580201	1.3838230232981472	1.3836489777146552	140.0	255.0	11111110.0	
-0.004760967270778842	8.44120845820804e-05	-0.004760325522461596	1.3703550541824168	1.3832356194538618	1.37043850069505	1.383816168763181	1.3836412291099107	141.0	255.0	11111110.0	
-0.004765375280306462	8.431208300583056e-05	-0.004763603778315041	1.3703288281355892	1.383246944337719	1.3704110825551847	1.3838274936470383	1.383652553993768	142.0	255.0	11111110.0	
-0.004765239666506301	8.421213781295555e-05	-0.004763007731796233	1.3702796542977875	1.383259461314614	1.3703625047639019	1.383840606670452	1.3836668591102195	143.0	255.0	11111110.0	
-0.004759318909240741	8.411224920600461e-05	-0.004756749243348747	1.3701842868547782	1.383254990965723	1.3702701175534866	1.3838364343448204	1.3836629848078472	144.0	255.0	11111110.0	
-0.00475555915208784	8.40124173872837e-05	-0.0047525769177170895	1.3700534546438998	1.3832397917794934	1.3701407754589052	1.3838212351585908	1.38364659352858	145.0	255.0	11111110.0	
-0.004755089979627543	8.391264255885472e-05	-0.004751980871198281	1.3699202382469462	1.3832341293375647	1.3700090491782486	1.3838122944608087	1.3836379508540573	146.0	255.0	11111110.0	
-0.0047508239996582125	8.38129249225348e-05	-0.004747808545566624	1.3698046052222974	1.3832421759655686	1.3698934161535998	1.3838224272516284	1.3836462955053206	147.0	255.0	11111110.0	
-0.004750294841175869	8.371326467989554e-05	-0.00474751052230722	1.3696830117324605	1.383223996546745	1.3697742068498382	1.3838042478328048	1.3836299042260534	148.0	255.0	11111110.0	
-0.00475286437917675	8.361366203226217e-05	-0.004750788778160665	1.3695953928941957	1.3832242945700044	1.3696842038254982	1.3838033537630265	1.383631096319091	149.0	255.0	11111110.0	
-0.004751568084464925	8.351411718071286e-05	-0.004750490754901261	1.3695334040562397	1.3832311491049707	1.3696195327782075	1.3838108043445116	1.3836379508540573	150.0	255.0	11111110.0	
-0.004751235446743088	8.341463032607798e-05	-0.004751086801420069	1.3694878064975509	1.38323144712823	1.3695790016149285	1.3838116984142899	1.3836358646912414	151.0	255.0	11111110.0	
-0.004751336173596226	8.331520166893934e-05	-0.004751980871198281	1.3694791638230281	1.3832368115468994	1.3695709549869246	1.3838164667864403	1.3836412291099107	152.0	255.0	11111110.0	
-0.0047480039895269775	8.321583140962936e-05	-0.00474900063860424	1.369510754288525	1.3832573751517983	1.3695998632430868	1.383834646205264	1.383663580854366	153.0	255.0	11111110.0	
-0.004747292229505117	8.311651974823038e-05	-0.004748106568826028	1.3695193969630477	1.3832555870122418	1.3696085059176095	1.3838340501587452	1.3836611966682908	154.0	255.0	11111110.0	
-0.00475135163679993	8.301726688457394e-05	-0.004751980871198281	1.3694428049853808	1.3832359174771212	1.369533702079499	1.383817658879478	1.3836418251564295	155.0	255.0	11111110.0	
-0.004755590879051666	8.291807301824002e-05	-0.004756451220089343	1.369311674751243	1.3832293609654143	1.36940316789188	1.383812592484068	1.3836343745749444	156.0	255.0	11111110.0	
-0.004756568843438712	8.281893834855635e-05	-0.004757941336386363	1.3692011081220041	1.3832359174771212	1.3692937933556788	1.3838212351585908	1.383643613295986	157.0	255.0	11111110.0	
-0.00476027543235304	8.271986307459754e-05	-0.0047624116852774245	1.369096203934694	1.383246050267941	1.369187697075331	1.3838304738796323	1.3836528520170275	158.0	255.0	11111110.0	
-0.0047594299838359735	8.262084739518446e-05	-0.0047624116852774245	1.3689647756772967	1.3832511166633508	1.3690568648644525	1.3838364343448204	1.3836585144589562	159.0	255.0	11111110.0	
-0.004754679143716535	8.252189150888355e-05	-0.004757941336386363	1.3688151680010758	1.3832478384074973	1.368911131490604	1.3838310699261511	1.3836558322496215	160.0	255.0	11111110.0	
-0.004754133016547212	8.242299561400604e-05	-0.004757047266608151	1.3686679445109302	1.3832529048029072	1.368763609977199	1.3838379244611174	1.3836617927148096	161.0	255.0	11111110.0	
-0.0047558977291209436	8.232415990860718e-05	-0.004758239359645767	1.3684971771832917	1.3832517127098696	1.368592544626301	1.3838349442285234	1.3836585144589562	162.0	255.0	11111110.0	
-0.004761630701782632	8.222538459048567e-05	-0.004763603778315041	1.368303462064679	1.3832311491049707	1.368401511717023	1.3838116984142899	1.3836373548075385	163.0	255.0	11111110.0	
-0.004752929106235658	8.212666985718283e-05	-0.00475406703401411	1.3681422314813414	1.3832341293375647	1.3682420692732418	1.3838152746934027	1.3836394409703543	164.0	255.0	11111110.0	
-0.004736840549769075	8.202801590598192e-05	-0.004735291568671652	1.36799292182838	1.3832442621283845	1.3680906734574645	1.3838271956237789	1.3836513619007305	165.0	255.0	11111110.0	
-0.004733372597124782	8.192942293390745e-05	-0.004727840987186549	1.3678227505472602	1.3832493285237943	1.3679222903159012	1.3838334541122264	1.3836558322496215	166.0	255.0	11111110.0	
-0.00473860173166544	8.183089113772452e-05	-0.004729629126742974	1.3676409563590237	1.3832418779423092	1.3677434763602587	1.3838260035307413	1.383649573761174	167.0	255.0	11111110.0	
-0.0047481887786746885	8.173242071393802e-05	-0.004737675754746885	1.3674999913573256	1.383223996546745	1.3676051935678952	1.3838078241119176	1.383631096319091	168.0	255.0	11111110.0	
-0.004750366512057637	8.163401185879201e-05	-0.004740357964081522	1.367420717170324	1.3832192281745945	1.367526813450672	1.3838015656234701	1.3836239437608653	169.0	255.0	11111110.0	
-0.004749608250544497	8.153566476826898e-05	-0.004741550057119138	1.3673766097279323	1.383222506430448	1.3674812158919831	1.3838057379491018	1.3836263279469405	170.0	255.0	11111110.0	
-0.004750341617210173	8.143737963808921e-05	-0.004745424359491391	1.3673533639136988	1.3832201222443727	1.3674564799614526	1.383803651786286	1.3836248378306435	171.0	255.0	11111110.0	
-0.004759700953477711	8.133915666371008e-05	-0.0047594314526833836	1.3673369726344315	1.383225486663042	1.3674418768217418	1.383808122135177	1.3836302022493128	172.0	255.0	11111110.0	
-0.004761463121000985	8.12409960403254e-05	-0.004766882034168486	1.3673155149597545	1.3832290629421549	1.3674204191470647	1.3838122944608087	1.3836343745749444	173.0	255.0	11111110.0	
-0.0047530262220182185	8.114289796286465e-05	-0.004763305755055637	1.3672925671687803	1.3832430700353469	1.3673956832165342	1.3838271956237789	1.3836486796913958	174.0	255.0	11111110.0	
-0.004747222846554711	8.104486262599238e-05	-0.004760325522461596	1.3672505458892044	1.383246050267941	1.3673545560067364	1.383829579809854	1.3836537460868057	175.0	255.0	11111110.0	
-0.00475036737354827	8.094689022410753e-05	-0.004764497848093253	1.3671784242604283	1.3832388977097152	1.3672839244942576	1.3838218312051096	1.3836448053890236	176.0	255.0	11111110.0	
-0.0047532026474957885	8.084898095134275e-05	-0.004766882034168486	1.367077096352231	1.3832371095701588	1.3671834906558382	1.3838227252748878	1.3836456994588018	177.0	255.0	11111110.0	
-0.004755507310628898	8.07511350015637e-05	-0.00476718005742789	1.3669572910019505	1.3832385996864558	1.3670639833288172	1.383822129228369	1.3836445073657642	178.0	255.0	11111110.0	
-0.004762490130574941	8.065335256836848e-05	-0.004771054359800143	1.3668216904189217	1.3832344273608241	1.366928084722529	1.3838197450422938	1.3836412291099107	179.0	255.0	11111110.0	
-0.004770443603434705	8.055563384508681e-05	-0.004775524708691204	1.3666726787892196	1.3832236985234856	1.3667796691393457	1.383808122135177	1.3836305002725722	180.0	255.0	11111110.0	
-0.004770709298103195	8.045797902477952e-05	-0.004771948429578355	1.3665326078572997	1.3832150558489629	1.3666398962306852	1.3837962012048008	1.3836206655050118	181.0	255.0	11111110.0	
-0.004783067660722459	8.036038830023783e-05	-0.004780889127360478	1.3664202530885043	1.3832207182908915	1.3665320118107809	1.383805141902583	1.3836254338771623	182.0	255.0	11111110.0	
-0.004789638786417488	8.026286186398274e-05	-0.004785359476251539	1.3663430650643187	1.3832296589886737	1.3664557178563734	1.383812592484068	1.3836334805051662	183.0	255.0	11111110.0	
-0.004781841715214987	8.016539990826437e-05	-0.0047758227319506085	1.3662766058774716	1.3832290629421549	1.3663847883206353	1.383812592484068	1.3836334805051662	184.0	255.0	11111110.0	
-0.004779949293287415	8.00680026250612e-05	-0.004772246452837759	1.3662235577372976	1.3832296589886737	1.3663356144828336	1.3838158707399215	1.3836364607377603	185.0	255.0	11111110.0	
-0.0047830297756640714	7.997067020607957e-05	-0.004774630638912992	1.366203888202177	1.3832290629421549	1.3663162429709723	1.383814678646884	1.3836367587610197	186.0	255.0	11111110.0	
-0.0047763380794246585	7.987340284275301e-05	-0.004768074127206102	1.366209848667365	1.3832356194538618	1.3663216073896416	1.3838197450422938	1.3836427192262077	187.0	255.0	11111110.0	
-0.004773624083690051	7.977620072624157e-05	-0.0047659879643902735	1.3662199814581848	1.383238003639937	1.3663305480874237	1.3838212351585908	1.3836442093425048	188.0	255.0	11111110.0	
-0.004768567772905793	7.967906404743113e-05	-0.00476211366201802	1.3662170012255908	1.3832353214306023	1.3663269718083109	1.3838224272516284	1.3836430172494671	189.0	255.0	11111110.0	
-0.0047582006848006075	7.958199299693289e-05	-0.004752874940976494	1.3661740858762366	1.38323144712823	1.366285844598513	1.3838155727166621	1.3836367587610197	190.0	255.0	11111110.0	
-0.004751694032669447	7.948498776508263e-05	-0.004747212499047816	1.3661210377360626	1.3832341293375647	1.366231902388561	1.3838167648096997	1.3836394409703543	191.0	255.0	11111110.0	
-0.004749518057124364	7.938804854194015e-05	-0.0047460204060101995	1.3660599429678848	1.3832415799190498	1.3661696155273455	1.3838218312051096	1.3836468915518394	192.0	255.0	11111110.0	
-0.004747043070909562	7.929117551728858e-05	-0.004744828312972583	1.3659764964552517	1.3832618455006893	1.3660891492473064	1.383843586903046	1.3836674551567383	193.0	255.0	11111110.0	
-0.004741079558416308	7.919436888063375e-05	-0.004740059940822118	1.3658495385467455	1.3832678059658774	1.3659621913388003	1.3838483552751966	1.383673117598667	194.0	255.0	11111110.0	
-0.004736402566616643	7.909762882120365e-05	-0.0047361856384498646	1.365674300870216	1.383245454221422	1.3657881457553083	1.3838277916702977	1.3836516599239899	195.0	255.0	11111110.0	
-0.004726824507579355	7.900095552794776e-05	-0.004726648894148933	1.365498169123908	1.3832329372445271	1.3656135041252975	1.3838167648096997	1.3836409310866513	196.0	255.0	11111110.0	
-0.0047188739690996375	7.890434918953643e-05	-0.00471770819636681	1.3653470713313902	1.3832385996864558	1.3654621083095202	1.3838215331818502	1.3836456994588018	197.0	255.0	11111110.0	
-0.0047164892074288865	7.880780999436026e-05	-0.004713833893994557	1.3652105766785831	1.3832433680586063	1.3653265077264913	1.3838257055074819	1.3836504678309522	198.0	255.0	11111110.0	
-0.0047224756531505435	7.871133813052949e-05	-0.0047189002894044265	1.3650994140028254	1.3832433680586063	1.3652162391205118	1.3838257055074819	1.383649573761174	199.0	255.0	11111110.0	
-0.00473231834390032	7.861493378587339e-05	-0.00472933110348357	1.365027590397309	1.383252010733129	1.3651462036545519	1.3838349442285234	1.3836588124822156	200.0	255.0	11111110.0	
-0.004732968265931953	7.851859714793964e-05	-0.004731715289558803	1.3649733501640975	1.383247540384238	1.3650919634213403	1.3838274936470383	1.3836516599239899	201.0	255.0	11111110.0	
-0.004742530218783356	7.84223284039937e-05	-0.004743934243194371	1.3649527865591986	1.3832445601516439	1.365072591909479	1.383828089693557	1.3836519579472493	202.0	255.0	11111110.0	
-0.004754649006094344	7.832612774101827e-05	-0.004760027499202192	1.364954574698755	1.383240983872531	1.365075572142073	1.3838248114377036	1.3836474875983582	203.0	255.0	11111110.0	
-0.004755496072755672	7.822999534571266e-05	-0.004765093894612061	1.3649676877221688	1.3832311491049707	1.365088089118968	1.3838137845771057	1.3836349706214632	204.0	255.0	11111110.0	
-0.004757644812375746	7.813393140449215e-05	-0.004770458313281335	1.3650049406295943	1.3832362155003806	1.365122659817059	1.383819148995775	1.3836397389936137	205.0	255.0	11111110.0	
-0.004763668244212408	7.803793610348746e-05	-0.004778504941285245	1.3650284844670872	1.3832478384074973	1.3651453095847736	1.3838304738796323	1.3836516599239899	206.0	255.0	11111110.0	
-0.004761110423028552	7.79420096285441e-05	-0.004776120755210013	1.3650213319088615	1.383257971198317	1.365139647142845	1.383840606670452	1.3836632828311066	207.0	255.0	11111110.0	
-0.004752525063832154	7.784615216522177e-05	-0.004764795871352657	1.364984079001436	1.3832603553843923	1.3651044803982353	1.3838432888797867	1.383665070970663	208.0	255.0	11111110.0	
-0.004761086443284609	7.775036389879378e-05	-0.00476867017372491	1.3649134474889573	1.3832573751517983	1.365032656792719	1.383840606670452	1.383662090738069	209.0	255.0	11111110.0	
-0.004776035173405511	7.765464501424643e-05	-0.0047791009878040535	1.3648356634182528	1.3832543949192042	1.3649542766754956	1.383839116554155	1.3836626867845878	210.0	255.0	11111110.0	
-0.00478530409848555	7.755899569627844e-05	-0.004784763429732731	1.3647292691146455	1.383249030500535	1.364850564581223	1.3838313679494105	1.3836564282961403	211.0	255.0	11111110.0	
-0.004789301075962115	7.746341612930044e-05	-0.004785955522770348	1.3646046953922146	1.383254990965723	1.364726586905311	1.3838367323680798	1.3836588124822156	212.0	255.0	11111110.0	
-0.00478739416049971	7.736790649743427e-05	-0.00478178319713869	1.364454491669475	1.3832532028261666	1.3645763831825712	1.3838382224843768	1.3836597065519938	213.0	255.0	11111110.0	
-0.004779691304973495	7.727246698451249e-05	-0.004771948429578355	1.364303989923476	1.3832552889889824	1.3644291596924256	1.383840606670452	1.3836611966682908	214.0	255.0	11111110.0	
-0.004774178518271706	7.717709777407774e-05	-0.004764497848093253	1.364180906317342	1.3832558850355012	1.3643063741095511	1.383842096786749	1.3836641769008848	215.0	255.0	11111110.0	
-0.004770903850450208	7.708179904938216e-05	-0.004760027499202192	1.3640682535252873	1.3832487324772755	1.3641952114337934	1.3838340501587452	1.3836582164356968	216.0	255.0	11111110.0	
-0.004758227801581843	7.698657099338687e-05	-0.004746616452529008	1.3639889793382858	1.3832591632913547	1.3641147451537543	1.383843586903046	1.3836668591102195	217.0	255.0	11111110.0	
-0.004754555606292313	7.689141378876132e-05	-0.0047427421501567545	1.3639085130582467	1.3832633356169863	1.364034874920234	1.3838468651588995	1.3836677531799977	218.0	255.0	11111110.0	
-0.004749246384113371	7.679632761788275e-05	-0.004738271801265693	1.363822384336279	1.3832612494541705	1.3639484481750068	1.3838438849263055	1.38366656108696	219.0	255.0	11111110.0	
-0.0047420139718669695	7.670131266283563e-05	-0.0047326093593370155	1.3637305931723824	1.383254990965723	1.3638566570111104	1.3838397126006738	1.3836611966682908	220.0	255.0	11111110.0	
-0.004737471855928722	7.660636910541108e-05	-0.004730225173261783	1.363649828869084	1.3832484344540161	1.3637779788706277	1.3838325600424481	1.3836549381798433	221.0	255.0	11111110.0	
-0.004734989483443843	7.651149712710631e-05	-0.004730523196521187	1.3635714487518606	1.3832400898027528	1.3637004928231826	1.383823619344666	1.3836462955053206	222.0	255.0	11111110.0	
-0.004732683716986457	7.641669690912409e-05	-0.004731417266299399	1.3634915785183404	1.3832448581749033	1.3636197285198841	1.3838319639959293	1.3836537460868057	223.0	255.0	11111110.0	
-0.004735396346667993	7.632196863237211e-05	-0.004737675754746885	1.3633893565403647	1.3832463482912003	1.3635186986349461	1.3838334541122264	1.3836549381798433	224.0	255.0	11111110.0	
-0.004741545844373693	7.622731247746248e-05	-0.004747808545566624	1.3632772997948288	1.3832546929424636	1.3634060458428914	1.3838432888797867	1.3836632828311066	225.0	255.0	11111110.0	
-0.004740837883185614	7.61327286247112e-05	-0.004750788778160665	1.3631399110722435	1.3832526067796478	1.3632683590970467	1.3838397126006738	1.3836614946915502	226.0	255.0	11111110.0	
-0.004735151769308477	7.60382172541375e-05	-0.004747212499047816	1.3629807666517217	1.383254990965723	1.3631124929323784	1.383839116554155	1.3836632828311066	227.0	255.0	11111110.0	
-0.004730762288112569	7.59437785454634e-05	-0.0047427421501567545	1.362807615138008	1.3832585672448359	1.3629402354884428	1.3838438849263055	1.3836677531799977	228.0	255.0	11111110.0	
-0.004733485340341302	7.584941267811313e-05	-0.004743636219934967	1.3626177743217676	1.3832543949192042	1.3627533749047964	1.3838409046937115	1.3836656670171819	229.0	255.0	11111110.0	
-0.004740617213123484	7.575511983121255e-05	-0.004748106568826028	1.3624297216450836	1.383242473988828	1.3625626400187778	1.383828685740076	1.383652553993768	230.0	255.0	11111110.0	
-0.004744869804981218	7.566090018358867e-05	-0.0047492986618636445	1.3622720673408588	1.3832463482912003	1.3624052837378124	1.3838319639959293	1.383654640156584	231.0	255.0	11111110.0	
-0.00474985134653654	7.556675391376906e-05	-0.004751086801420069	1.362120969548341	1.3832385996864558	1.3622583582709262	1.3838257055074819	1.3836477856216176	232.0	255.0	11111110.0	
-0.004751432212891327	7.547268119998136e-05	-0.004749596685123049	1.3620121910586585	1.3832391957329746	1.3621486857114655	1.3838260035307413	1.383648083644877	233.0	255.0	11111110.0	
-0.004753273354170781	7.537868222015272e-05	-0.004748702615344836	1.3619326188483976	1.3832406858492716	1.362070901640761	1.38382659957726	1.383649573761174	234.0	255.0	11111110.0	
-0.004753590382978872	7.528475715190933e-05	-0.004746914475788412	1.3618926837316374	1.383246944337719	1.3620330526868167	1.383834646205264	1.3836570243426591	235.0	255.0	11111110.0	
-0.00475172456372478	7.519090617257584e-05	-0.004743636219934967	1.3618834450105959	1.3832448581749033	1.3620223238494782	1.38383166597267	1.3836558322496215	236.0	255.0	11111110.0	
-0.004750262242283067	7.509712945917479e-05	-0.004741550057119138	1.361915929545871	1.3832502225935726	1.3620548083847532	1.3838355402750422	1.3836611966682908	237.0	255.0	11111110.0	
-0.004746809747775692	7.500342718842618e-05	-0.004738271801265693	1.361957950825447	1.3832552889889824	1.362095935594551	1.3838409046937115	1.3836641769008848	238.0	255.0	11111110.0	
-0.004745798087955082	7.490979953674696e-05	-0.004738271801265693	1.3619659974534508	1.383257971198317	1.3621036841992955	1.383843586903046	1.383668051203257	239.0	255.0	11111110.0	
-0.004746738402509451	7.481624668025048e-05	-0.004741252033859734	1.3619531824532964	1.3832558850355012	1.3620902731526223	1.3838426928332679	1.38366656108696	240.0	255.0	11111110.0	
-0.004743998580546316	7.472276879474598e-05	-0.004741252033859734	1.3619090750109046	1.383252010733129	1.3620473578032681	1.3838379244611174	1.3836617927148096	241.0	255.0	11111110.0	
-0.004734414848928272	7.462936605573811e-05	-0.004734099475634036	1.3618277146610873	1.3832573751517983	1.361965401406932	1.3838450770193431	1.383670137366073	242.0	255.0	11111110.0	
-0.004721095509586545	7.453603863842635e-05	-0.004721880521998467	1.3617305590785216	1.3832603553843923	1.361868841870885	1.3838474612054183	1.3836722235288887	243.0	255.0	11111110.0	
-0.0047116824792891995	7.444278671770459e-05	-0.004712045754438132	1.3616131379143164	1.3832582692215765	1.3617511226834205	1.3838450770193431	1.3836689452730353	244.0	255.0	11111110.0	
-0.004711570440236254	7.434961046816056e-05	-0.004710853661400516	1.3614590598892045	1.3832523087563884	1.3616006209374214	1.3838394145774144	1.3836644749241442	245.0	255.0	11111110.0	
-0.004703250054030693	7.42565100640754e-05	-0.004701018893840181	1.3612856103522313	1.383246944337719	1.3614271714004482	1.383836136321561	1.383659110505475	246.0	255.0	11111110.0	
-0.004697590382841624	7.416348567942306e-05	-0.004693270289095675	1.361123187675856	1.3832478384074973	1.3612629605845166	1.3838385205076362	1.3836608986450314	247.0	255.0	11111110.0	
-0.0047040805184882335	7.407053748786986e-05	-0.004698336684505544	1.3609944416277935	1.383246050267941	1.3611351086062322	1.3838340501587452	1.3836555342263621	248.0	255.0	11111110.0	
-0.004710374762312695	7.397766566277401e-05	-0.004704893196212434	1.3609068227895287	1.3832552889889824	1.3610492779075238	1.3838423948100085	1.3836662630637007	249.0	255.0	11111110.0	
-0.0047158908665408585	7.388487037718508e-05	-0.0047123437776975365	1.360845131974832	1.3832487324772755	1.3609875870928272	1.3838358382983016	1.3836600045752532	250.0	255.0	11111110.0	
-0.004718120691159606	7.379215180384356e-05	-0.00471770819636681	1.360821588137339	1.3832514146866102	1.3609673215111877	1.3838388185308956	1.3836623887613284	251.0	255.0	11111110.0	
-0.004716461189097449	7.369951011518031e-05	-0.004719496335923235	1.360812647439557	1.3832552889889824	1.3609580827901462	1.3838415007402303	1.3836647729474036	252.0	255.0	11111110.0	
-0.004724473934833794	7.360694548331611e-05	-0.004731119243039995	1.3608209920908203	1.3832576731750577	1.3609640432553343	1.3838453750426025	1.3836698393428135	253.0	255.0	11111110.0	
-0.004733103923234216	7.351445808006119e-05	-0.004743636219934967	1.3608549667423924	1.3832546929424636	1.360999209999944	1.3838438849263055	1.3836677531799977	254.0	255.0	11111110.0	
-0.004729661255915139	7.342204807691469e-05	-0.004743040173416159	1.360908610929085	1.3832526067796478	1.3610540462796743	1.383840606670452	1.3836632828311066	255.0	255.0	11111110.0	
-0.004734549953915256	7.332971564506421e-05	-0.00474900063860424	1.3604433966211553	1.383243964105125	1.360587639878707	1.38383166597267	1.3836555342263621	8.0	255.0	11111110.0	
-0.004743643534793977	7.323746095538536e-05	-0.004757941336386363	1.3603969049926883	1.383245454221422	1.3605426383665369	1.3838325600424481	1.3836552362031027	9.0	255.0	11111110.0	
-0.004743865866912057	7.314528417844124e-05	-0.004756451220089343	1.360367996736526	1.3832371095701588	1.360514624180153	1.3838242153911848	1.3836483816681364	10.0	255.0	11111110.0	
-0.0047414405316306	7.305318548448197e-05	-0.004750192731641857	1.3603787255738646	1.3832403878260122	1.3605271411570479	1.3838248114377036	1.3836492757379146	11.0	255.0	11111110.0	
-0.004741570448813473	7.296116504344418e-05	-0.004744828312972583	1.3604198527836624	1.383250520616832	1.3605664802272892	1.383834646205264	1.3836579184124373	12.0	255.0	11111110.0	
-0.004739334055478269	7.28692230249506e-05	-0.0047361856384498646	1.3606448603445125	1.3832517127098696	1.3607873154625076	1.3838400106239332	1.3836626867845878	6.0	255.0	11111110.0	
-0.0047503970924632245	7.277735959830958e-05	-0.004741550057119138	1.3605336976687548	1.3832499245703131	1.360677642903047	1.3838379244611174	1.383660600621772	7.0	255.0	11111110.0	
-0.004761101547724275	7.268557493251465e-05	-0.00474900063860424	1.3604433966211553	1.383243964105125	1.360587639878707	1.38383166597267	1.3836555342263621	8.0	255.0	11111110.0	
-0.004770334918393635	7.259386919624403e-05	-0.004757941336386363	1.3603969049926883	1.383245454221422	1.3605426383665369	1.3838325600424481	1.3836552362031027	9.0	255.0	11111110.0	
-0.004766877481173157	7.250224255786017e-05	-0.004756451220089343	1.360367996736526	1.3832371095701588	1.360514624180153	1.3838242153911848	1.3836483816681364	10.0	255.0	11111110.0	
-0.004757756393093084	7.241069518540927e-05	-0.004750192731641857	1.3603787255738646	1.3832403878260122	1.3605271411570479	1.3838248114377036	1.3836492757379146	11.0	255.0	11111110.0	
-0.004749358537054767	7.231922724662088e-05	-0.004744828312972583	1.3604198527836624	1.383250520616832	1.3605664802272892	1.383834646205264	1.3836579184124373	12.0	255.0	11111110.0	
-0.004742605576520791	7.222783890890737e-05	-0.00474095401060033	1.3604854179007313	1.3832523087563884	1.360632045344358	1.383839116554155	1.3836617927148096	13.0	255.0	11111110.0	
-0.004748096943280368	7.21365303393636e-05	-0.004749596685123049	1.3605667782505486	1.3832517127098696	1.3607110215081002	1.3838388185308956	1.3836626867845878	14.0	255.0	11111110.0	
-0.004754151464610302	7.204530170476635e-05	-0.0047594314526833836	1.3606546951120728	1.383242473988828	1.3607968522068086	1.3838289837633353	1.3836516599239899	15.0	255.0	11111110.0	
-0.004757557011238459	7.195415317157396e-05	-0.004766584010909082	1.360749168485304	1.383246050267941	1.3608907295335209	1.3838325600424481	1.383654640156584	16.0	255.0	11111110.0	
-0.004757469744315408	7.186308490592586e-05	-0.0047692662202437185	1.360820098021042	1.3832514146866102	1.3609610630227402	1.3838379244611174	1.3836588124822156	17.0	255.0	11111110.0	
-0.004761730202338363	7.177209707364214e-05	-0.004774928662172396	1.3608609272075805	1.383250520616832	1.361003680348835	1.3838388185308956	1.3836588124822156	18.0	255.0	11111110.0	
-0.0047672493910021155	7.168118984022307e-05	-0.004780591104101074	1.3608779145333665	1.3832537988726854	1.361022157790918	1.3838412027169709	1.383665070970663	19.0	255.0	11111110.0	
-0.004764128556897393	7.159036337084876e-05	-0.0047758227319506085	1.3608788086031447	1.3832684020123962	1.361023647907215	1.3838552098101629	1.3836784820173362	20.0	255.0	11111110.0	
-0.004756892184196493	7.149961783037866e-05	-0.004764497848093253	1.3608415556957192	1.3832746605008437	1.3609860969765302	1.3838629584149074	1.383685634575562	21.0	255.0	11111110.0	
-0.0047567793084080144	7.140895338335114e-05	-0.004758537382905171	1.3607572151133078	1.3832713822449902	1.3609011603476	1.3838599781823133	1.3836829523662273	22.0	255.0	11111110.0	
-0.00475827571005754	7.131837019398309e-05	-0.004753769010754706	1.3606549931353322	1.3832669118960992	1.3607998324394026	1.3838534216706064	1.383676097831261	23.0	255.0	11111110.0	
-0.004761735083402482	7.12278684261695e-05	-0.004751682847938877	1.360558135576026	1.3832657198030616	1.360703570926615	1.3838513355077906	1.3836752037614828	24.0	255.0	11111110.0	
-0.004765559368582306	7.113744824348306e-05	-0.004751682847938877	1.3604827356913967	1.3832672099193586	1.360632045344358	1.3838537196938658	1.3836757998080016	25.0	255.0	11111110.0	
-0.004769940762249557	7.104710980917369e-05	-0.004754663080532918	1.3604210448767	1.3832573751517983	1.3605718446459585	1.3838444809728243	1.3836677531799977	26.0	255.0	11111110.0	
-0.004767799047788197	7.095685328616828e-05	-0.004753470987495302	1.3604067397602486	1.383264527710024	1.3605533672038754	1.3838513355077906	1.3836755017847422	27.0	255.0	11111110.0	
-0.004768927731139075	7.086667883707013e-05	-0.004757643313126959	1.3604249191790723	1.3832746605008437	1.3605688644133644	1.3838614682986103	1.3836850385290431	28.0	255.0	11111110.0	
-0.0047687995222410046	7.07765866241586e-05	-0.0047624116852774245	1.360447568946787	1.3832669118960992	1.360595090460192	1.3838519315543094	1.383677587947558	29.0	255.0	11111110.0	
-0.004767339694802712	7.068657680938863e-05	-0.004766882034168486	1.3605137301103747	1.38325648108202	1.3606624437168173	1.3838444809728243	1.383669541319554	30.0	255.0	11111110.0	
-0.004764659551556841	7.059664955439051e-05	-0.004770160290021931	1.3606219125535384	1.383263037593727	1.3607700301134622	1.3838513355077906	1.3836752037614828	31.0	255.0	11111110.0	
-0.00476621811060998	7.050680502046939e-05	-0.004777014824988225	1.3607339692990743	1.3832639316635051	1.3608794046496635	1.3838513355077906	1.3836752037614828	32.0	255.0	11111110.0	
-0.004761342799649887	7.041704336860485e-05	-0.0047758227319506085	1.3608242703466737	1.3832540968959448	1.360969705697263	1.3838400106239332	1.383663580854366	33.0	255.0	11111110.0	
-0.00475922461620971	7.032736475945065e-05	-0.004774928662172396	1.360907716859307	1.3832555870122418	1.3610528541866367	1.3838412027169709	1.3836638788776254	34.0	255.0	11111110.0	
-0.004767348981910326	7.023776935333419e-05	-0.0047823792436574985	1.3609625531390372	1.3832499245703131	1.3611064983733294	1.383836136321561	1.3836600045752532	35.0	255.0	11111110.0	
-0.004776589268876322	7.014825731025616e-05	-0.004789829825142601	1.360992653488237	1.383247540384238	1.3611363006992698	1.383834646205264	1.3836582164356968	36.0	255.0	11111110.0	
-0.004789361964337332	7.005882878989023e-05	-0.004800260639221745	1.3610108329070607	1.383250520616832	1.36115120186224	1.3838367323680798	1.383660600621772	37.0	255.0	11111110.0	
-0.004804887598750784	6.996948395158265e-05	-0.004813671685894929	1.360997719883647	1.3832517127098696	1.361140175001642	1.3838385205076362	1.383662090738069	38.0	255.0	11111110.0	
-0.004807088796142821	6.988022295435184e-05	-0.004813671685894929	1.3609652353483719	1.3832552889889824	1.3611082865128858	1.3838412027169709	1.3836641769008848	39.0	255.0	11111110.0	
-0.0048003484468701245	6.979104595688804e-05	-0.00480353889507519	1.3609163595338296	1.3832558850355012	1.361062688954197	1.383843586903046	1.383665070970663	40.0	255.0	11111110.0	
-0.0048021595091593565	6.970195311755294e-05	-0.004801154708999957	1.3608668876727685	1.3832552889889824	1.3610150052326924	1.3838432888797867	1.3836662630637007	41.0	255.0	11111110.0	
-0.004811263949684558	6.961294459437932e-05	-0.004806817150928635	1.3608260584862302	1.383250520616832	1.360972685929857	1.3838388185308956	1.3836611966682908	42.0	255.0	11111110.0	
-0.004817072134362486	6.95240205450706e-05	-0.004810691453300888	1.360820694067561	1.3832657198030616	1.360963149185556	1.3838522295775688	1.3836755017847422	43.0	255.0	11111110.0	
-0.00481297930030902	6.943518112700057e-05	-0.004805625057891018	1.3608499003469825	1.3832836011986258	1.360994143604534	1.3838689188800954	1.3836927871337876	44.0	255.0	11111110.0	
-0.004801192556572893	6.934642649721295e-05	-0.0047928100577366425	1.3608823848822575	1.3832841972451446	1.3610275222095873	1.3838695149266143	1.3836918930640094	45.0	255.0	11111110.0	
-0.004799932664376916	6.925775681242114e-05	-0.004790723894920813	1.3609437776736948	1.3832841972451446	1.361087722907987	1.3838707070196519	1.3836921910872688	46.0	255.0	11111110.0	
-0.00480504838499929	6.916917222900778e-05	-0.004796386336849492	1.3610224558141775	1.3832862834079604	1.3611658050019508	1.3838718991126895	1.3836933831803064	47.0	255.0	11111110.0	
-0.004804873749751878	6.908067290302438e-05	-0.004798174476405916	1.3611085845361452	1.3832776407334377	1.3612528277936968	1.3838635544614262	1.3836865286453401	48.0	255.0	11111110.0	
-0.0048022039330247925	6.899225899019101e-05	-0.004798174476405916	1.3612048460489328	1.3832776407334377	1.3613481952367061	1.3838650445777232	1.3836868266685995	49.0	255.0	11111110.0	
-0.004795129119212347	6.890393064589586e-05	-0.004793704127514855	1.361272795352077	1.3832740644543249	1.3614149524468127	1.3838608722520915	1.3836838464360055	50.0	255.0	11111110.0	
-0.004792061401110758	6.881568802519503e-05	-0.0047928100577366425	1.3613219691898786	1.3832684020123962	1.361462338145058	1.383853123647347	1.3836763958545204	51.0	255.0	11111110.0	
-0.0047882985171768064	6.872753128281202e-05	-0.004790723894920813	1.3613535596553754	1.383260951430911	1.3614921404709983	1.3838459710891213	1.3836677531799977	52.0	255.0	11111110.0	
-0.004787753192767591	6.863946057313754e-05	-0.004791319941439622	1.3613774015161277	1.383263037593727	1.3615174724480477	1.3838483552751966	1.3836710314358511	53.0	255.0	11111110.0	
-0.004787632998614913	6.855147605022902e-05	-0.00479191598795843	1.3613860441906505	1.3832642296867645	1.3615264131458298	1.3838495473682342	1.3836725215521481	54.0	255.0	11111110.0	
-0.004788788447667188	6.846357786781039e-05	-0.004793406104255451	1.3613622023298981	1.383264527710024	1.3614995910524834	1.3838507394612718	1.3836728195754076	55.0	255.0	11111110.0	
-0.004789410138072575	6.83757661792716e-05	-0.004794002150774259	1.3613079620966866	1.3832612494541705	1.3614480330286065	1.383848653298456	1.383668647249776	56.0	255.0	11111110.0	
-0.004790120463912444	6.828804113766843e-05	-0.004794300174033663	1.3612438870959147	1.383264527710024	1.3613848520976128	1.383850143414753	1.3836743096917046	57.0	255.0	11111110.0	
-0.004789201041764247	6.820040289572208e-05	-0.004792512034477238	1.361182196281218	1.3832695941054338	1.3613240553526944	1.3838549117869035	1.3836784820173362	58.0	255.0	11111110.0	
-0.0047859483064986936	6.811285160581881e-05	-0.004787743662326772	1.3611476255831272	1.3832865814312199	1.361292762910457	1.3838718991126895	1.3836966614361599	59.0	255.0	11111110.0	
-0.004788922813812669	6.802538742000972e-05	-0.0047889357553643885	1.3611219955828184	1.3832856873614416	1.3612656427938512	1.3838704089963925	1.3836939792268252	60.0	255.0	11111110.0	
-0.004793560927087336	6.79380104900103e-05	-0.004792214011217834	1.361112756861777	1.3832782367799565	1.3612531258169562	1.3838617663218697	1.3836832503894867	61.0	255.0	11111110.0	
-0.004797274576168843	6.785072096720016e-05	-0.004795194243811875	1.361112160815258	1.3832737664310655	1.3612549139565127	1.383857593996238	1.3836799721336333	62.0	255.0	11111110.0	
-0.004801218288162799	6.776351900262267e-05	-0.004799068546184128	1.3611374927923074	1.3832695941054338	1.3612790538405244	1.3838543157403846	1.3836757998080016	63.0	255.0	11111110.0	
-0.004804242945126838	6.767640474698467e-05	-0.0048026448252969775	1.3611893488394438	1.383273468407806	1.3613294197713637	1.3838584880660163	1.383682058296449	64.0	255.0	11111110.0	
-0.0048054080507200945	6.758937835065623e-05	-0.004804730988112806	1.3612423969796177	1.3832767466636595	1.3613833619813158	1.383864150507945	1.3836862306220807	65.0	255.0	11111110.0	
-0.004805889984877721	6.750243996367018e-05	-0.0048062211044098265	1.3613028957012767	1.3832746605008437	1.3614435626797154	1.3838608722520915	1.3836829523662273	66.0	255.0	11111110.0	
-0.004807567354012961	6.741558973572194e-05	-0.004808903313744463	1.3613663746555298	1.3832725743380279	1.361505849540931	1.3838569979497193	1.3836802701568927	67.0	255.0	11111110.0	
-0.004810675147041812	6.732882781616908e-05	-0.004813075639376121	1.3613926007023573	1.3832624415472081	1.3615359498901307	1.3838459710891213	1.3836707334125917	68.0	255.0	11111110.0	
-0.0048145695063894454	6.724215435403112e-05	-0.00481814203478599	1.361413760353775	1.3832654217798022	1.3615574075648078	1.3838498453914936	1.3836743096917046	69.0	255.0	11111110.0	
-0.004819808778777698	6.715556949798919e-05	-0.00482469854649288	1.3614289595400046	1.3832642296867645	1.3615702225649622	1.3838492493449748	1.3836737136451858	70.0	255.0	11111110.0	
-0.004820464532382222	6.70690733963857e-05	-0.004826486686049305	1.3614241911678542	1.383264527710024	1.3615684344254058	1.3838498453914936	1.3836737136451858	71.0	255.0	11111110.0	
-0.004815811705864546	6.698266619722409e-05	-0.004822016337158243	1.361393792795395	1.3832692960821744	1.3615389301227248	1.3838543157403846	1.3836781839940768	72.0	255.0	11111110.0	
-0.004809342948813457	6.689634804816847e-05	-0.004814267732413737	1.3613490893064844	1.3832639316635051	1.3614921404709983	1.3838489513217154	1.38367162748237	73.0	255.0	11111110.0	
-0.004802296319121767	6.681011909654338e-05	-0.004804432964853402	1.3613094522129836	1.3832642296867645	1.361452801400757	1.3838465671356401	1.3836725215521481	74.0	255.0	11111110.0	
-0.00480229331328259	6.672397948933352e-05	-0.004800856685740553	1.361280245933562	1.3832666138728398	1.3614241911678542	1.3838513355077906	1.3836749057382234	75.0	255.0	11111110.0	
-0.004803581637295094	6.66379293731834e-05	-0.004798770522924724	1.3612730933753363	1.3832713822449902	1.3614158465165909	1.3838569979497193	1.383680568180152	76.0	255.0	11111110.0	
-0.0048033333666967866	6.655196889439708e-05	-0.004795790290330683	1.3612695170962235	1.3832743624775843	1.361412270237478	1.3838617663218697	1.3836877207383778	77.0	255.0	11111110.0	
-0.004803615806098271	6.646609819893792e-05	-0.004794300174033663	1.3612429930261365	1.3832707861984714	1.3613830639580564	1.3838578920194975	1.3836811642266709	78.0	255.0	11111110.0	
-0.004801883256960664	6.638031743242825e-05	-0.00479191598795843	1.3611741496532141	1.383267507942618	1.3613145186083935	1.3838519315543094	1.383674607714964	79.0	255.0	11111110.0	
-0.004801638084032743	6.62946267401491e-05	-0.004792214011217834	1.3611455394203114	1.38326154747743	1.3612894846546035	1.3838468651588995	1.3836683492265165	80.0	255.0	11111110.0	
-0.004803865608243597	6.62090262670399e-05	-0.004796386336849492	1.3611875606998873	1.3832558850355012	1.3613309098876607	1.3838403086471927	1.3836656670171819	81.0	255.0	11111110.0	
-0.004802597132447203	6.612351615769825e-05	-0.004798174476405916	1.361278755817265	1.3832585672448359	1.3614197208189631	1.3838432888797867	1.383668051203257	82.0	255.0	11111110.0	
-0.004800856717472055	6.603809655637967e-05	-0.004799962615962341	1.3613744212835337	1.3832627395704675	1.3615150882619724	1.3838504414380124	1.383673117598667	83.0	255.0	11111110.0	
-0.00480166169760757	6.595276760699727e-05	-0.004804432964853402	1.3614525033774976	1.3832627395704675	1.3615946604722333	1.383850143414753	1.38367162748237	84.0	255.0	11111110.0	
-0.0048001242788003355	6.58675294531215e-05	-0.0048062211044098265	1.3615130020991566	1.3832642296867645	1.361654861170633	1.3838498453914936	1.3836725215521481	85.0	255.0	11111110.0	
-0.004799475193714805	6.578238223797986e-05	-0.004808009243966251	1.3615621759369583	1.3832657198030616	1.3617022468688782	1.3838507394612718	1.3836737136451858	86.0	255.0	11111110.0	
-0.004800494775959169	6.569732610445672e-05	-0.004810393430041484	1.3616155221003916	1.3832648257332834	1.361752910822977	1.3838519315543094	1.383673117598667	87.0	255.0	11111110.0	
-0.004802611411086011	6.561236119509298e-05	-0.0048127776161167165	1.3616664840777497	1.3832657198030616	1.3618050648933726	1.3838534216706064	1.3836752037614828	88.0	255.0	11111110.0	
-0.004806300151032041	6.55274876520859e-05	-0.004815757848710757	1.3617022468688782	1.3832618455006893	1.361842913847317	1.3838495473682342	1.3836725215521481	89.0	255.0	11111110.0	
-0.00481325000915565	6.544270561728882e-05	-0.004821420290639435	1.3617365195437097	1.3832669118960992	1.3618771865221484	1.383853123647347	1.3836749057382234	90.0	255.0	11111110.0	
-0.00481422460189994	6.535801523221079e-05	-0.004820526220861223	1.3617555930323115	1.3832678059658774	1.3618956639642315	1.383854613763644	1.3836784820173362	91.0	255.0	11111110.0	
-0.004817287445453009	6.527341663801644e-05	-0.004821122267380031	1.3617782428000262	1.3832731703845467	1.361915929545871	1.383859680159054	1.3836844424825243	92.0	255.0	11111110.0	
-0.004821344170273447	6.518890997552566e-05	-0.0048226123836770515	1.3617970182653687	1.3832713822449902	1.36193142675536	1.383856103879941	1.383679078063855	93.0	255.0	11111110.0	
-0.004825128473140804	6.51044953852134e-05	-0.004824102499974072	1.3618354632658318	1.3832779387566971	1.361973448034936	1.3838602762055727	1.383684144459265	94.0	255.0	11111110.0	
-0.004825317287829348	6.502017300720947e-05	-0.004822314360417647	1.3618971540805285	1.3832892636405545	1.362035436872892	1.3838727931824677	1.3836954693431223	95.0	255.0	11111110.0	
-0.004829394528873734	6.493594298129819e-05	-0.004824996569752284	1.3619496061741836	1.383280024919513	1.362087888966547	1.3838617663218697	1.3836862306220807	96.0	255.0	11111110.0	
-0.0048316801448733855	6.485180544691829e-05	-0.004826784709308709	1.3620035483841357	1.383257971198317	1.362142427223018	1.3838450770193431	1.3836662630637007	97.0	255.0	11111110.0	
-0.0048337177473910375	6.476776054316254e-05	-0.0048291688953839415	1.3620840146641748	1.38326154747743	1.3622175290843879	1.3838489513217154	1.383670137366073	98.0	255.0	11111110.0	
-0.004834447676157526	6.46838084087776e-05	-0.004830957034940366	1.3621698453628832	1.3832731703845467	1.3623033597830962	1.3838566999264599	1.3836793760871144	99.0	255.0	11111110.0	
-0.0048338650510487725	6.459994918216373e-05	-0.004831851104718578	1.3622407748986214	1.3832797268962536	1.3623790576909849	1.3838635544614262	1.383685634575562	100.0	255.0	11111110.0	
-0.004833419057641408	6.45161830013746e-05	-0.004833043197756195	1.362288458620126	1.3832728723612873	1.3624237611798955	1.3838569979497193	1.383680568180152	101.0	255.0	11111110.0	
-0.004830482066506198	6.4432510004117e-05	-0.004831553081459174	1.3623286917601456	1.3832687000356556	1.3624622061803586	1.3838528256240876	1.3836784820173362	102.0	255.0	11111110.0	
-0.0048244050246180415	6.434893032775074e-05	-0.004826188662789901	1.3623471692022286	1.3832654217798022	1.3624812796689605	1.3838513355077906	1.3836728195754076	103.0	255.0	11111110.0	
-0.004818738402011926	6.42654441092883e-05	-0.004820228197601819	1.3623567059465296	1.3832672099193586	1.3624911144365208	1.3838543157403846	1.3836755017847422	104.0	255.0	11111110.0	
