29.0 29.0 29.0 29.0 29.0 29.0 29.0 29.0 29.0 29.0 29.0 29.0 29.0 29.0 29.0 29.0 29.0 29.0 29.0 29.0 29.0 29.0 29.0 29.0 29.0 29.0 29.0 29.0 29.0 29.0 29.0 29.0 29.0 29.0 29.0 29.0 29.0 29.0 29.0 29.0 29.0 29.0 29.0 29.0 29.0 29.0 29.0 29.0 29.0 29.0 29.0 29.0 29.0 29.0 29.0 29.0 29.0 29.0 29.0 29.0 29.0 29.0 29.0 29.0 29.0 29.0 29.0 29.0 29.0 29.0 29.0 29.0 29.0 29.0 29.0 29.0 29.0 29.0 29.0 29.0 29.0 29.0 29.0 29.0 29.0 29.0 29.0 29.0 29.0 29.0 29.0 29.0 29.0 29.030763596410914 29.0 29.0 29.0 29.0 29.0 29.0 29.0 29.0 29.0 29.0 29.0 29.0 29.0 29.0 29.0 29.0 29.0 29.0 29.0 29.0 29.0 29.0 29.0 29.0 29.0 29.0 29.0 29.0 29.0 29.0 29.0 29.0 29.0 29.0 29.0 29.0 29.0 29.0 29.0 29.0 29.0 29.0 29.0 29.0 29.0 29.0 29.0 29.0 29.0 29.0 29.0 29.0 29.0 29.0 29.0 29.0 29.0 29.0 29.0 29.0 29.0 29.0 29.0 29.0 29.0 29.0 29.0 29.0 29.0 29.0 29.0 29.0 29.0 29.0 29.0 29.0 29.0 29.0 29.0 29.0 29.0 29.0 29.0 29.0 29.0 29.0 29.0 29.0 29.0 29.0 29.0 29.0 29.0 29.0 29.0 29.0 29.0 29.0 29.0 29.0 29.030763596410914 29.0 29.0 29.0 29.0 29.0 29.0 29.0 29.0 29.0 29.0 29.0 29.0 29.0 29.0 29.0 29.0 29.0 29.0 29.0 29.0 29.0 29.0 29.0 29.0 29.0 29.0 29.0 29.0 29.0 29.0 29.0 29.0 29.0 29.0 29.0 29.0 29.0 29.0 29.0 29.0 29.0 29.0 29.0 29.0 29.0 29.0 29.0 29.0 29.0 29.0 29.0 29.0 29.0 29.0 29.0 29.0 29.0 29.0 29.0 29.0 29.0 29.0 29.0 29.0 29.0 29.0 29.0 29.0 29.0 29.0 29.0 29.0 29.0 29.0 29.0 29.0 29.0 29.0 29.0 29.0 29.0 29.0 29.0 29.0 29.0 29.0 29.0 29.0 29.0 29.0 29.0 29.0 29.0 29.0 29.0 29.0 29.0 29.0 29.0 29.0 29.0 29.0 29.0 29.0 29.0 29.0 29.0 29.0 29.0 29.0 29.0 29.0 29.0 29.0 29.0 29.0 29.0 29.0 29.0 29.0 29.0 29.0 29.0 29.0 29.0 29.0 29.0 29.0 29.0 29.0 29.0 29.0 29.0 29.0 29.0 29.0 29.0 29.0 29.0 29.0 29.0 29.0 29.0 29.0 29.0 29.0 29.0 29.0 29.0 29.0 29.0 29.0 29.0 29.0 29.0 29.0 29.0 29.0 29.0 29.0 29.0 29.0 29.0 29.0 29.0 29.0 29.0 29.0 29.0 29.0 29.0 29.0 29.0 29.0 29.0 29.0 29.0 29.0 29.0 29.0 29.0 29.0 29.0 29.0 29.0 29.0 29.0 29.0 29.0 29.0 29.0 29.0 29.0 29.0 29.0 29.0 29.0 29.0 29.0 29.0 29.0 29.0 29.0 29.0 29.0 29.0 29.0 29.0 29.0 29.0 29.0 29.0 29.0 29.0 29.0 29.0 29.0 29.0 29.0 29.0 29.0 29.0 29.0 29.0 29.0 29.0 29.0 29.0 29.0 29.0 29.0 29.0 29.0 29.0 29.0 29.0 29.0 29.0 29.0 29.0 29.0 29.0 29.0 29.0 29.0 29.0 29.0 29.0 29.0 29.0 29.0 29.0 29.0 29.0 29.0 29.0 29.0 29.0 29.0 29.0 29.0 29.0 29.0 29.0 29.0 29.0 29.0 29.0 29.0 29.0 29.0 29.0 29.0 29.0 29.0 29.0 29.0 29.0 29.0 29.0 29.0 29.0 29.0 29.0 29.0 29.0 29.0 29.0 29.0 29.0 29.0 29.0 29.0 29.0 29.0 29.0 29.0 29.0 29.0 29.0 29.0 29.0 29.0 29.0 29.0 29.0 29.0 29.0 29.0 29.0 29.0 29.0 29.0 29.0 29.0 29.0 29.0 29.0 29.0 29.0 29.0 29.0 29.0 29.0 29.0 29.0 29.0 29.0 29.0 29.0 29.0 29.0 29.0 29.0 29.0 29.0 29.0 29.0 29.0 29.0 29.0 29.0 29.0 29.0 29.0 29.0 29.0 29.0 29.0 29.0 29.0 29.0 29.0 29.0 29.0 29.0 29.0 29.0 29.0 29.0 29.0 29.0 29.0 29.0 29.0 29.0 29.0 29.0 29.0 29.0 29.0 29.0 29.0 29.0 29.0 29.0 29.0 29.0 29.0 29.0 29.0 29.0 29.0 29.0 29.0 29.0 29.0 29.0 29.0 29.0 29.0 29.0 29.0 29.0 29.0 29.0 29.0 29.0 29.0 29.0 29.0 29.0 29.0 29.0 29.0 29.0 29.0 29.0 29.0 29.0 29.0 29.030763596410914 29.030763596410914 29.061527192821828 29.15381798205457 29.276872367698225 29.39992675334188 29.553744735396446 29.646035524629188 29.799853506683757 29.953671488738326 30.199780260025637 30.353598242080206 30.445889031312948 30.599707013367514 30.72276139901117 30.907342977476652 31.12268815235305 31.36879692364036 31.676432887749495 31.984068851858634 32.32246841237868 32.72239516572056 33.214612708295185 33.7068302508698 34.16828419703351 34.783556125251785 35.52188243911371 35.952572788866505 36.78318989196118 37.61380699505585 38.629005676616 39.45962277971067 40.444057864859914 41.490020142830986 42.68980040285662 43.7665262772386 45.02783373008606 46.38143197216627 47.7965574070683 49.30397363120308 50.903680644570585 52.53415125434902 54.19538546053836 55.79509247390588 57.39479948727339 58.99450650064091 60.50192272477568 61.947811756088626 63.33217359457974 64.74729902948178 65.9163156930965 67.30067753158761 68.46969419520234 69.79252884087163 71.08459989013001 72.34590734297747 73.5456876030031 74.80699505585056 76.1913568943417 77.48342794360008 78.80626258926935 80.12909723493865 81.54422266984068 82.92858450833181 84.282182750412 85.45119941402672 86.74327046328511 88.06610510895439 89.35817615821279 90.58872001464934 91.97308185314044 93.26515290239884 94.52646035524629 95.78776780809376 96.86449368247573 98.21809192455594 99.57169016663615 100.86376121589451 101.90972349386558 103.10950375389123 104.27852041750594 105.32448269547702 106.37044497344809 107.35488005859733 108.37007874015747 109.13916865043032 109.87749496429225 110.58505768174327 111.3233839956052 112.03094671305621 113.04614539461636 113.47683574436915 113.90752609412195 114.15363486540926 114.18439846182018 114.21516205823109 114.18439846182018 113.50759934078008 112.9230910089727 112.18476469511077 111.07727522431789 109.7852041750595 108.80076908991026 107.2933528657755 106.21662699139351 104.55539278520418 102.92492217542575 101.75590551181102 99.44863578099249 98.27961911737776 97.04907526094121 94.68027833730086 93.75737044497345 92.64988097418055 90.3118476469511 88.83519501922726 87.48159677714705 85.8203625709577 84.62058231093206 82.89782091192089 81.75956784471708 80.09833363852775 78.40633583592748 77.48342794360008 75.88372093023256 74.77623145943966 72.46896172862114 71.11536348654093 69.97711041933712 68.592748580846 67.02380516388939 65.85478850027468 63.76286394433254 62.716901666361466 61.17872184581578 59.79436000732467 58.779161325764505 57.79472624061527 56.01043764878227 54.872184581578466 53.64164072514191 52.65720563999267 51.30360739791247 49.888481963010435 48.473356528108404 47.61197582860282 46.28914118293353 45.396996887017025 44.16645303058048 43.33583592748581 41.82841970335103 40.81322102179088 40.10565830433986 39.45962277971067 38.475187694561434 37.89067936275407 36.78318989196118 36.198681560153815 35.27577366782641 34.66050173960813 34.26057498626625 33.829884636513455 33.214612708295185 32.69163156930965 32.23017762314594 31.984068851858634 31.676432887749495 31.491851309284012 31.36879692364036 31.21497894158579 31.06116095953122 30.938106573887566 30.691997802600255 30.538179820545686 30.261307452847465 29.799853506683757 29.646035524629188 29.615271928218274 29.615271928218274 29.615271928218274 29.58450833180736 29.553744735396446 29.522981138985532 29.461453946163708 29.39992675334188 29.369163156930966 29.30763596410914 29.276872367698225 29.215345174876397 29.184581578465483 29.09229078923274 29.061527192821828 29.030763596410914 29.030763596410914 29.030763596410914 29.0 29.0 29.030763596410914 29.0 29.0 29.0 29.0 29.0 29.0 29.0 29.0 29.030763596410914 29.030763596410914 29.0 29.0 29.030763596410914 29.0 29.030763596410914 29.030763596410914 29.030763596410914 29.061527192821828 29.030763596410914 29.061527192821828 29.061527192821828 29.061527192821828 29.09229078923274 29.09229078923274 29.461453946163708 30.13825306720381 30.29207104925838 30.784288591832997 31.307269730818533 31.79948727339315 32.59934078007691 33.368430690349754 34.783556125251785 36.29097234938656 37.398461820179456 39.121223219190625 40.32100347921626 41.9822376854056 43.70499908441677 44.935542940853324 46.658304339864486 49.1501556491485 50.56528108405054 52.56491485075993 54.01080388207288 55.51822010620765 57.27174510162973 58.7483977293536 61.57864859915766 62.96301043764878 65.08569859000184 67.02380516388939 68.74656656290057 70.19245559421351 72.31514374656656 73.66874198864676 75.7606665445889 77.08350119025819 79.02160776414576 80.86742354880059 82.28254898370261 84.15912836476835 86.066471342245 87.32777879509247 89.01977659769273 90.40413843618384 92.40377220289324 94.43416956601355 95.08020509064274 96.0954037722029 97.29518403222852 98.24885552096686 99.44863578099249 100.52536165537447 101.4790331441128 102.30965024720747 102.86339498260392 103.2633217359458 103.81706647134224 103.9708844533968 104.3708112067387 104.49386559238233 104.61691997802599 104.64768357443693 104.64768357443693 104.67844717084783 104.64768357443693 104.64768357443693 104.52462918879327 104.34004761032779 103.81706647134224 103.01721296465848 102.4019410364402 101.75590551181102 100.8329976194836 100.03314411279985 98.34114631019959 97.63358359274858 95.94158579014832 94.46493316242446 93.17286211316609 92.00384544955136 90.15802966489653 89.05054019410363 87.45083318073613 86.3125801135323 84.80516388939753 83.23622047244095 82.0364402124153 80.83665995238968 79.7906976744186 78.4370994323384 77.11426478666911 76.09906610510895 74.53012268815235 73.66874198864676 72.74583409631936 71.23841787218458 70.31550997985717 68.40816700238051 66.99304156747849 65.94707928950741 64.34737227613991 62.74766526277239 61.64017579197949 60.40963193554294 58.68687053653177 56.994872733931516 55.27211133492034 54.10309467130563 52.411096868705364 50.288408716352315 49.45779161325764 48.25801135323201 47.27357626808276 45.98150521882439 44.781724958798755 43.88958066288225 42.35140084233657 41.21314777513276 40.444057864859914 39.367331990477936 38.93664164072514 37.859915766343164 36.53708112067387 35.86028199963376 34.937374107306354 34.383629371909905 33.983702618568024 33.42995788317158 33.12232191906244 32.72239516572056 32.3532320087896 32.168650430324114 31.86101446621498 31.737960080571323 31.64566929133858 31.522614905694926 31.430324116462188 31.338033327229446 31.21497894158579 31.12268815235305 30.96887017029848 30.784288591832997 30.66123420618934 30.445889031312948 30.353598242080206 30.07672587438198 29.769089910272843 29.707562717451015 29.73832631386193 29.707562717451015 29.707562717451015 29.646035524629188 29.615271928218274 29.58450833180736 29.553744735396446 29.522981138985532 29.522981138985532 29.49221754257462 29.461453946163708 29.461453946163708 29.430690349752794 29.430690349752794 29.430690349752794 29.39992675334188 29.39992675334188 29.39992675334188 29.39992675334188 29.369163156930966 29.369163156930966 29.338399560520052 29.30763596410914 29.276872367698225 29.24610877128731 29.24610877128731 29.215345174876397 29.215345174876397 29.215345174876397 29.184581578465483 29.15381798205457 29.15381798205457 29.123054385643655 29.09229078923274 29.09229078923274 29.061527192821828 29.061527192821828 29.061527192821828 29.061527192821828 29.061527192821828 29.061527192821828 29.061527192821828 29.061527192821828 29.061527192821828 29.061527192821828 29.061527192821828 29.061527192821828 29.061527192821828 
