29.0 29.0 29.0 29.0 29.0 29.0 29.0 29.0 29.0 29.0 29.0 29.0 29.0 29.0 29.0 29.0 29.0 29.0 29.0 29.0 29.0 29.0 29.0 29.0 29.0 29.0 29.0 29.0 29.0 29.0 29.0 29.0 29.0 29.0 29.0 29.0 29.0 29.0 29.0 29.0 29.0 29.0 29.0 29.0 29.0 29.0 29.0 29.0 29.0 29.0 29.0 29.0 29.0 29.0 29.0 29.0 29.0 29.0 29.0 29.0 29.0 29.0 29.0 29.0 29.0 29.0 29.0 29.0 29.0 29.0 29.0 29.0 29.0 29.0 29.0 29.0 29.0 29.0 29.0 29.0 29.0 29.0 29.0 29.0 29.0 29.0 29.0 29.0 29.0 29.0 29.0 29.0 29.0 29.0 29.0 29.0 29.0 29.0 29.0 29.0 29.0 29.0 29.0 29.0 29.0 29.0 29.0 29.0 29.0 29.0 29.0 29.0 29.0 29.0 29.0 29.0 29.0 29.0 29.0 29.0 29.0 29.0 29.0 29.0 29.0 29.0 29.0 29.0 29.0 29.0 29.0 29.0 29.0 29.0 29.0 29.0 29.0 29.0 29.0 29.0 29.0 29.0 29.0 29.0 29.0 29.0 29.0 29.0 29.0 29.0 29.0 29.0 29.0 29.0 29.0 29.0 29.0 29.0 29.0 29.0 29.0 29.0 29.0 29.0 29.0 29.0 29.0 29.0 29.0 29.0 29.0 29.0 29.0 29.0 29.0 29.0 29.0 29.0 29.0 29.0 29.0 29.0 29.0 29.0 29.0 29.0 29.0 29.0 29.0 29.0 29.0 29.0 29.0 29.0 29.0 29.0 29.0 29.0 29.0 29.0 29.0 29.0 29.0 29.0 29.0 29.0 29.0 29.0 29.0 29.0 29.0 29.0 29.0 29.0 29.0 29.0 29.0 29.0 29.0 29.0 29.0 29.0 29.0 29.0 29.0 29.0 29.0 29.0 29.0 29.0 29.0 29.0 29.0 29.0 29.0 29.0 29.0 29.0 29.0 29.0 29.0 29.0 29.0 29.0 29.0 29.0 29.0 29.0 29.0 29.0 29.0 29.0 29.0 29.0 29.0 29.0 29.0 29.0 29.0 29.0 29.0 29.0 29.0 29.0 29.0 29.0 29.0 29.0 29.0 29.0 29.0 29.0 29.0 29.0 29.0 29.0 29.0 29.0 29.0 29.0 29.0 29.0 29.0 29.0 29.0 29.0 29.0 29.0 29.0 29.0 29.0 29.0 29.0 29.0 29.0 29.0 29.0 29.0 29.0 29.0 29.0 29.0 29.0 29.0 29.0 29.0 29.0 29.0 29.0 29.0 29.0 29.0 29.0 29.0 29.0 29.0 29.0 29.0 29.0 29.0 29.0 29.0 29.0 29.0 29.0 29.0 29.0 29.0 29.0 29.0 29.0 29.0 29.0 29.0 29.0 29.0 29.0 29.0 29.0 29.0 29.0 29.0 29.0 29.0 29.0 29.0 29.0 29.0 29.0 29.0 29.0 29.0 29.0 29.0 29.0 29.0 29.0 29.0 29.0 29.0 29.0 29.0 29.0 29.0 29.0 29.0 29.0 29.0 29.0 29.0 29.0 29.0 29.0 29.0 29.0 29.0 29.0 29.0 29.0 29.0 29.0 29.0 29.0 29.0 29.0 29.0 29.0 29.0 29.0 29.0 29.0 29.0 29.0 29.0 29.0 29.0 29.0 29.0 29.0 29.0 29.0 29.0 29.0 29.0 29.0 29.0 29.0 29.0 29.0 29.0 29.0 29.0 29.0 29.0 29.0 29.0 29.0 29.0 29.0 29.0 29.0 29.0 29.0 29.0 29.0 29.0 29.0 29.0 29.0 29.0 29.0 29.0 29.0 29.0 29.0 29.0 29.0 29.0 29.0 29.0 29.0 29.0 29.0 29.0 29.0 29.0 29.0 29.0 29.0 29.0 29.0 29.0 29.0 29.0 29.0 29.0 29.030763596410914 29.0 29.0 29.0 29.0 29.0 29.0 29.0 29.0 29.0 29.0 29.0 29.0 29.0 29.0 29.0 29.0 29.0 29.0 29.0 29.0 29.0 29.0 29.0 29.0 29.0 29.0 29.0 29.0 29.0 29.0 29.0 29.0 29.0 29.0 29.0 29.0 29.0 29.0 29.0 29.0 29.0 29.0 29.0 29.0 29.0 29.0 29.0 29.0 29.0 29.0 29.0 29.0 29.0 29.0 29.0 29.0 29.0 29.0 29.0 29.0 29.0 29.0 29.0 29.0 29.0 29.0 29.0 29.0 29.0 29.0 29.0 29.0 29.0 29.0 29.0 29.0 29.0 29.0 29.0 29.0 29.0 29.0 29.0 29.0 29.0 29.0 29.0 29.0 29.0 29.0 29.0 29.0 29.0 29.0 29.0 29.0 29.0 29.0 29.0 29.0 29.0 29.0 29.0 29.0 29.0 29.0 29.0 29.0 29.0 29.0 29.0 29.0 29.0 29.0 29.0 29.0 29.0 29.0 29.0 29.0 29.0 29.0 29.0 29.0 29.0 29.0 29.0 29.0 29.0 29.0 29.0 29.0 29.0 29.0 29.0 29.0 29.0 29.0 29.0 29.0 29.0 29.0 29.0 29.0 29.0 29.0 29.0 29.0 29.0 29.0 29.0 29.0 29.0 29.0 29.0 29.0 29.0 29.0 29.0 29.0 29.0 29.0 29.0 29.0 29.0 29.0 29.0 29.0 29.0 29.0 29.0 29.0 29.0 29.0 29.0 29.0 29.0 29.0 29.0 29.0 29.0 29.0 29.0 29.0 29.0 29.0 29.0 29.0 29.0 29.0 29.0 29.0 29.0 29.0 29.0 29.0 29.0 29.0 29.0 29.0 29.0 29.0 29.0 29.0 29.0 29.0 29.0 29.0 29.0 29.0 29.0 29.0 29.0 29.030763596410914 29.0 29.030763596410914 29.061527192821828 29.09229078923274 29.123054385643655 29.15381798205457 29.184581578465483 29.184581578465483 29.184581578465483 29.184581578465483 29.184581578465483 29.184581578465483 29.184581578465483 29.184581578465483 29.184581578465483 29.184581578465483 29.184581578465483 29.184581578465483 29.215345174876397 29.215345174876397 29.215345174876397 29.24610877128731 29.276872367698225 29.30763596410914 29.30763596410914 29.338399560520052 29.338399560520052 29.369163156930966 29.39992675334188 29.461453946163708 29.522981138985532 29.646035524629188 29.707562717451015 29.799853506683757 29.953671488738326 30.07672587438198 30.23054385643655 30.38436183849112 30.507416224134772 30.691997802600255 30.81505218824391 30.96887017029848 31.091924555942136 31.245742537996705 31.461087712873102 31.64566929133858 31.922541659036806 32.168650430324114 32.38399560520051 32.59934078007691 32.75315876213148 32.968503937007874 33.368430690349754 33.64530305804798 33.89141182933528 34.229811389855335 34.41439296832082 34.69126533601904 34.96813770371727 35.15271928218275 35.46035524629189 35.79875480681194 36.106390770921074 36.506317524262954 36.96777147042666 37.4907526094122 37.70609778428859 38.167551730452296 38.721296465848745 39.121223219190625 39.921076725874386 40.536348654092656 41.02856619666728 41.64383812488555 42.07452847463834 42.53598242080205 43.42812671671855 43.828053470060425 44.50485259110053 45.05859732649698 45.427760483427946 45.98150521882439 46.442959164988096 46.71983153268632 47.1197582860282 47.42739425013734 47.67350302142465 48.011902581944696 48.35030214246475 48.6887017029848 48.93481047427211 49.18091924555942 49.580845998901296 49.82695477018861 50.380699505585056 50.842153451748764 51.149789415857896 51.488188976377955 51.76506134407617 52.011170115363484 52.53415125434902 52.811023622047244 53.18018677897821 53.518586339498256 53.73393151437466 54.10309467130563 54.379967039003844 54.68760300311298 55.026002563633035 55.33363852774217 55.641274491851306 55.97967405237136 56.25654642006958 56.56418238417872 56.90258194469877 57.08716352316425 57.36403589086248 57.57938106573887 58.071598608313494 58.28694378318989 58.47152536165537 58.71763413294268 59.086797289873644 59.27137886833913 59.45596044680461 59.64054202527009 59.886650796557404 60.1019959714338 60.40963193554294 60.71726789965207 60.932613074528476 61.27101263504852 61.57864859915766 61.855520966855885 62.13239333455411 62.347738509430506 62.716901666361466 62.99377403405969 63.30140999816883 63.48599157663431 63.76286394433254 63.978209119208934 64.47042666178355 64.65500824024903 64.87035341512544 65.17798937923456 65.36257095770006 65.67020692180918 65.97784288591834 66.22395165720565 66.50082402490386 66.68540560336935 67.02380516388939 67.51602270646401 67.73136788134042 68.19282182750412 68.68503937007873 69.08496612342061 69.42336568394066 69.70023805163889 70.19245559421351 70.56161875114448 70.77696392602087 70.99230910089727 71.2999450650064 71.5152902398828 71.9459805896356 72.09979857169017 72.37667093938839 72.5920161142648 72.77659769273026 72.99194286760667 73.23805163889398 73.48416041018129 73.63797839223585 73.79179637429041 74.03790514557772 74.28401391686504 74.49935909174144 74.74546786302875 74.93004944149423 75.11463101995972 75.29921259842519 75.45303058047976 75.66837575535615 75.91448452664346 76.03753891228712 76.2221204907526 76.28364768357443 76.49899285845083 76.74510162973814 76.99121040102546 77.29884636513458 77.45266434718914 77.60648232924373 77.88335469694195 78.0064090825856 78.16022706464017 78.37557223951657 78.52939022157113 78.77549899285845 79.05237136055666 79.26771653543307 79.66764328877494 79.88298846365134 80.09833363852775 80.37520600622597 80.55978758469143 80.8981871452115 81.32887749496429 81.51345907342977 81.8210950375389 82.15949459805896 82.28254898370261 82.59018494781176 82.74400292986633 83.02087529756454 83.26698406885185 83.42080205090642 83.66691082219373 83.8207288042483 84.0360739791247 84.31294634682291 84.52829152169932 84.77440029298663 85.05127266068484 85.1743270463285 85.3896722212049 85.51272660684856 85.66654458890312 85.78959897454678 85.88188976377953 86.00494414942318 86.066471342245 86.12799853506684 86.3125801135323 86.37410730635415 86.46639809558688 86.65097967405237 86.74327046328511 86.89708844533968 87.08167002380517 87.14319721662699 87.29701519868155 87.3893059879143 87.51236037355795 87.60465116279069 87.66617835561252 87.75846914484526 87.850759934078 87.91228712689983 87.94305072331073 87.94305072331073 87.97381431972167 87.97381431972167 88.00457791613258 88.00457791613258 88.00457791613258 88.00457791613258 88.00457791613258 88.00457791613258 88.00457791613258 87.97381431972167 87.97381431972167 87.94305072331073 87.88152353048892 87.850759934078 87.81999633766708 87.75846914484526 87.75846914484526 87.75846914484526 87.75846914484526 87.75846914484526 87.75846914484526 87.75846914484526 87.75846914484526 87.75846914484526 87.75846914484526 87.75846914484526 87.75846914484526 87.72770554843434 87.72770554843434 87.69694195202344 87.66617835561252 87.63541475920161 87.63541475920161 87.60465116279069 87.60465116279069 87.60465116279069 87.54312396996886 87.54312396996886 87.45083318073613 87.3893059879143 87.32777879509247 87.26625160227064 87.2047244094488 87.14319721662699 87.08167002380517 86.98937923457241 86.92785204175058 86.89708844533968 86.86632484892877 86.83556125251785 86.86632484892877 86.86632484892877 86.86632484892877 86.89708844533968 86.89708844533968 86.89708844533968 86.92785204175058 86.9586156381615 86.9586156381615 86.98937923457241 86.98937923457241 87.02014283098333 87.02014283098333 87.05090642739424 87.05090642739424 87.05090642739424 87.05090642739424 87.05090642739424 87.05090642739424 87.05090642739424 87.08167002380517 87.05090642739424 87.05090642739424 87.08167002380517 87.08167002380517 87.08167002380517 87.05090642739424 87.05090642739424 87.05090642739424 87.05090642739424 87.02014283098333 87.02014283098333 87.02014283098333 86.98937923457241 86.9586156381615 86.92785204175058 86.89708844533968 86.89708844533968 86.86632484892877 86.83556125251785 86.83556125251785 86.83556125251785 86.83556125251785 86.83556125251785 86.83556125251785 86.80479765610693 86.80479765610693 86.77403405969602 86.74327046328511 86.68174327046327 86.65097967405237 86.62021607764146 86.58945248123054 86.58945248123054 86.58945248123054 86.55868888481963 86.55868888481963 86.55868888481963 86.55868888481963 86.55868888481963 86.58945248123054 86.58945248123054 86.58945248123054 86.62021607764146 86.62021607764146 86.65097967405237 86.65097967405237 86.68174327046327 86.7125068668742 86.7125068668742 86.74327046328511 86.74327046328511 86.74327046328511 86.77403405969602 86.74327046328511 86.77403405969602 86.77403405969602 86.77403405969602 86.77403405969602 86.77403405969602 86.77403405969602 86.77403405969602 86.77403405969602 86.77403405969602 86.77403405969602 86.77403405969602 86.77403405969602 86.77403405969602 86.77403405969602 86.77403405969602 86.77403405969602 86.77403405969602 86.77403405969602 86.77403405969602 86.77403405969602 86.77403405969602 86.74327046328511 86.77403405969602 86.77403405969602 86.77403405969602 86.74327046328511 86.74327046328511 86.74327046328511 86.77403405969602 86.77403405969602 86.77403405969602 86.77403405969602 86.77403405969602 86.77403405969602 86.77403405969602 86.74327046328511 86.7125068668742 86.65097967405237 86.62021607764146 86.55868888481963 86.4971616919978 86.46639809558688 86.37410730635415 86.3125801135323 86.25105292071049 86.18952572788865 86.15876213147774 86.15876213147774 86.12799853506684 86.12799853506684 86.12799853506684 86.12799853506684 86.15876213147774 86.15876213147774 86.15876213147774 86.18952572788865 86.18952572788865 86.18952572788865 86.22028932429959 86.22028932429959 86.22028932429959 86.25105292071049 86.25105292071049 86.25105292071049 86.25105292071049 86.25105292071049 86.25105292071049 86.25105292071049 86.25105292071049 86.25105292071049 86.25105292071049 86.2818165171214 86.25105292071049 86.25105292071049 86.25105292071049 86.25105292071049 86.25105292071049 86.25105292071049 86.22028932429959 86.25105292071049 86.25105292071049 86.25105292071049 86.22028932429959 86.22028932429959 86.22028932429959 86.22028932429959 86.22028932429959 86.22028932429959 86.22028932429959 86.25105292071049 86.25105292071049 86.25105292071049 86.25105292071049 86.25105292071049 86.25105292071049 86.25105292071049 86.25105292071049 86.25105292071049 86.25105292071049 86.25105292071049 86.25105292071049 86.25105292071049 86.25105292071049 86.25105292071049 86.25105292071049 86.25105292071049 86.25105292071049 86.25105292071049 86.25105292071049 86.25105292071049 86.25105292071049 86.25105292071049 86.25105292071049 86.25105292071049 86.25105292071049 86.25105292071049 86.25105292071049 86.25105292071049 86.25105292071049 86.25105292071049 86.2818165171214 86.2818165171214 86.2818165171214 86.3125801135323 86.3125801135323 86.34334370994324 86.34334370994324 86.34334370994324 86.34334370994324 86.34334370994324 86.3125801135323 86.3125801135323 86.25105292071049 86.18952572788865 86.15876213147774 86.066471342245 85.97418055301226 85.94341695660134 85.91265336019043 85.88188976377953 85.8511261673686 85.8511261673686 85.8511261673686 85.8511261673686 85.8511261673686 85.8511261673686 85.8511261673686 85.8511261673686 85.8203625709577 85.66654458890312 85.51272660684856 85.20509064273942 84.95898187145211 84.68210950375389 84.0360739791247 83.66691082219373 83.11316608679729 82.52865775498992 82.09796740523714 81.54422266984068 80.95971433803334 80.55978758469143 80.006042849295 79.5753524995422 79.05237136055666 78.46786302874932 77.88335469694195 77.48342794360008 76.8681560153818 76.43746566562899 75.85295733382165 75.36073979124703 74.68394067020691 74.16095953122138 73.85332356711226 73.39186962094854 73.17652444607214 72.80736128914117 72.28438015015564 72.00750778245742 71.57681743270463 71.20765427577366 70.90001831166452 70.50009155832265 70.22321919062442 69.82329243728255 69.42336568394066 69.14649331624244 68.71580296648965 68.22358542391504 67.94671305621681 67.63907709210767 67.42373191723127 67.08533235671122 66.71616919978025 66.43929683208202 65.97784288591834 65.57791613257645 65.30104376487822 64.93188060794725 64.65500824024903 64.37813587255081 63.85515473356528 63.578282365867054 63.20911920893609 62.870719648416035 62.59384728071782 62.255447720197765 61.91704815967771 61.701702984801315 61.33253982787035 61.11719465299395 60.84032228529573 60.50192272477568 60.19428676066654 59.85588720014648 59.60977842885918 59.363669657571876 58.99450650064091 58.68687053653177 58.22541659036806 57.82548983702618 57.517853872917044 57.14869071598608 56.87181834828786 56.62570957700055 56.10272843801501 55.85661966672771 55.48745650979674 55.149056949276684 54.872184581578466 54.53378502105841 54.2876762497711 53.88774949642922 53.518586339498256 53.21095037538912 52.78026002563632 52.411096868705364 51.98040651895257 51.3651345907343 51.05749862662516 50.71909906610511 50.31917231276323 49.980772752243176 49.48855520966856 49.21168284197033 48.565647317341146 48.104193371177445 47.765793810657385 47.39663065372642 46.68906793627541 46.31990477934444 45.735396447537084 45.30470609778429 44.68943416956601 43.981871452114994 43.45889031312946 42.78209119208936 42.105292071049256 41.64383812488555 41.02856619666728 40.6286394433254 40.01336751510712 39.55191356894342 39.0596960263688 38.59824208020509 38.321369712506865 38.04449734480864 37.61380699505585 37.398461820179456 37.09082585607032 36.84471708478301 36.66013550631752 36.3832631386193 36.13715436733199 35.952572788866505 35.706464017579194 35.52188243911371 35.21424647500458 35.06042849295001 34.90661051089544 34.629738143197216 34.32210217908808 34.10675700421168 33.860648232924376 33.67606665445889 33.30690349752793 32.93774034059696 32.814685954953305 32.63010437648782 32.507049990844166 32.38399560520051 32.07635964109137 31.984068851858634 31.830250869804065 31.64566929133858 31.55337850210584 31.491851309284012 31.461087712873102 31.399560520051274 31.338033327229446 31.307269730818533 31.245742537996705 31.12268815235305 31.030397363120308 30.907342977476652 30.845815784654825 30.72276139901117 30.599707013367514 30.507416224134772 30.353598242080206 30.261307452847465 30.169016663614723 30.015198681560154 29.98443508514924 29.8921442959165 29.73832631386193 29.615271928218274 29.430690349752794 29.15381798205457 29.061527192821828 29.0 29.0 28.969236403589086 28.969236403589086 28.938472807178172 28.90770921076726 28.876945614356345 28.876945614356345 28.815418421534517 28.784654825123603 28.75389122871269 28.69236403589086 28.630836843069034 28.569309650247206 28.477018861014468 28.477018861014468 28.477018861014468 28.477018861014468 28.477018861014468 28.477018861014468 28.477018861014468 28.477018861014468 28.477018861014468 28.477018861014468 28.477018861014468 28.477018861014468 28.477018861014468 28.477018861014468 28.477018861014468 28.477018861014468 28.477018861014468 28.477018861014468 28.477018861014468 28.477018861014468 28.477018861014468 28.477018861014468 28.477018861014468 28.50778245742538 28.538546053836292 28.569309650247206 28.630836843069034 28.69236403589086 28.75389122871269 28.90770921076726 29.061527192821828 29.15381798205457 29.184581578465483 29.24610877128731 29.338399560520052 29.39992675334188 29.49221754257462 29.615271928218274 29.73832631386193 29.861380699505585 29.8921442959165 29.953671488738326 30.015198681560154 30.07672587438198 30.445889031312948 30.630470609778428 30.87657938106574 31.153451748763963 31.399560520051274 31.737960080571323 32.107123237502286 32.44552279802234 32.93774034059696 33.49148507599341 33.95293902215711 34.629738143197216 35.15271928218275 35.952572788866505 36.72166269913935 37.58304339864493 38.04449734480864 38.78282365867057 39.275041201245195 39.982603918696206 40.444057864859914 41.39772935359824 42.013001281816514 42.505218824391136 42.99743636696576 43.64347189159494 44.135689434169564 45.05859732649698 45.5508148690716 46.28914118293353 46.996703900384546 47.550448635780995 48.53488372093023 49.21168284197033 49.79619117377769 50.41146310199597 50.995971433803334 51.85735213330892 52.68796923640359 53.610877128731005 54.47225782823658 54.872184581578466 55.67203808826222 56.502655191356894 57.117927119575164 57.88701702984801 59.30214246475004 59.579014832448266 60.440395531953854 61.02490386376122 61.57864859915766 62.37850210584142 63.27064640175792 64.1012635048526 64.99340780076909 65.60867972898737 66.43929683208202 66.96227797106756 67.73136788134042 68.53122138802416 68.96191173777697 69.66947445522797 70.31550997985717 71.08459989013001 71.79216260758102 72.37667093938839 72.93041567478483 73.79179637429041 74.49935909174144 75.29921259842519 76.52975645486174 77.14502838308002 78.12946346822926 78.74473539644754 79.3292437282549 80.52902398828053 81.1135323200879 81.97491301959349 82.77476652627723 83.32851126167368 84.00531038271379 84.4667643288775 85.08203625709577 85.69730818531404 86.09723493865592 86.65097967405237 87.14319721662699 87.48159677714705 87.94305072331073 88.25068668741989 88.68137703717267 89.08130379051455 89.35817615821279 90.00421168284197 90.46566562900567 90.65024720747115 91.08093755722395 91.29628273210034 91.54239150338765 91.91155466031861 92.09613623878411 92.34224501007142 92.49606299212599 92.68064457059145 92.80369895623511 92.89598974546786 92.98828053470059 92.98828053470059 92.98828053470059 92.98828053470059 92.98828053470059 92.98828053470059 92.86522614905695 92.83446255264604 92.58835378135873 92.24995422083867 91.94231825672954 91.38857352133309 90.98864676799121 90.5271928218275 89.94268449002014 89.57352133308916 88.98901300128182 88.37374107306354 88.00457791613258 87.35854239150339 86.9586156381615 86.3125801135323 85.63578099249222 84.89745467863028 84.22065555759018 83.72843801501557 83.20545687603003 82.43636696575717 81.88262223036074 80.77513275956784 79.91375206006225 79.23695293902216 78.28328145028382 77.66800952206555 76.68357443691632 75.7606665445889 74.96081303790514 74.28401391686504 73.48416041018129 72.93041567478483 72.22285295733383 71.5152902398828 71.02307269730818 70.31550997985717 69.85405603369347 69.14649331624244 68.43893059879143 67.94671305621681 66.93151437465664 66.40853323567111 65.85478850027468 65.08569859000184 64.5627174510163 63.79362754074345 62.77842885918329 62.22468412378685 61.48635780992492 61.02490386376122 60.440395531953854 59.425196850393704 58.809924922175426 58.163889397546235 57.39479948727339 56.841054751876946 56.0719648416041 55.51822010620765 54.68760300311298 53.88774949642922 53.303241164621866 52.503387657938106 51.703534151254345 51.11902581944699 50.042299945065004 49.427028016846734 48.84251968503936 47.95037538912287 47.27357626808276 46.043032411646216 45.48928767624977 44.59714338033327 43.7665262772386 43.21278154184215 42.659036806445705 41.7668925105292 41.21314777513276 40.6286394433254 39.95184032228529 39.45962277971067 38.81358725508149 38.38289690532869 37.459989013001284 36.93700787401575 36.444790331441126 35.86028199963376 34.90661051089544 34.35286577549899 33.89141182933528 33.460721479582496 33.09155832265153 32.75315876213148 32.53781358725508 32.19941402673503 32.014832448269544 31.922541659036806 31.768723676982237 31.64566929133858 31.522614905694926 31.27650613440762 31.12268815235305 30.938106573887566 30.753524995422083 30.630470609778428 30.38436183849112 30.322834645669293 30.13825306720381 29.922907892327412 29.73832631386193 29.39992675334188 29.30763596410914 29.0 28.661600439479948 28.446255264603554 28.384728071781726 28.353964475370812 28.384728071781726 28.3232008789599 28.292437282548985 28.26167368613807 28.200146493316243 28.16938289690533 28.138619300494415 28.077092107672588 28.046328511261674 27.984801318439846 27.892510529207104 27.830983336385277 27.738692547152535 27.70792895074162 27.70792895074162 27.70792895074162 27.70792895074162 27.70792895074162 27.738692547152535 27.70792895074162 27.70792895074162 27.70792895074162 27.70792895074162 27.677165354330707 27.677165354330707 27.646401757919794 27.61563816150888 27.584874565097966 27.584874565097966 27.584874565097966 27.554110968687052 27.554110968687052 27.554110968687052 27.554110968687052 27.554110968687052 27.584874565097966 27.554110968687052 27.554110968687052 27.554110968687052 27.554110968687052 27.554110968687052 27.554110968687052 27.554110968687052 27.554110968687052 27.554110968687052 27.52334737227614 27.554110968687052 27.554110968687052 27.554110968687052 27.52334737227614 27.52334737227614 27.554110968687052 27.554110968687052 27.554110968687052 27.554110968687052 27.554110968687052 27.52334737227614 27.52334737227614 27.52334737227614 27.554110968687052 27.52334737227614 27.52334737227614 27.52334737227614 27.52334737227614 27.52334737227614 27.52334737227614 27.554110968687052 27.52334737227614 27.52334737227614 27.52334737227614 27.52334737227614 27.52334737227614 27.52334737227614 27.52334737227614 27.52334737227614 27.554110968687052 27.554110968687052 27.554110968687052 27.52334737227614 27.52334737227614 27.52334737227614 27.52334737227614 27.52334737227614 27.52334737227614 27.52334737227614 27.52334737227614 27.52334737227614 27.52334737227614 27.52334737227614 27.52334737227614 27.52334737227614 27.52334737227614 27.52334737227614 27.554110968687052 27.52334737227614 27.52334737227614 27.52334737227614 27.52334737227614 27.52334737227614 27.52334737227614 27.52334737227614 27.52334737227614 27.52334737227614 27.52334737227614 27.554110968687052 27.52334737227614 27.52334737227614 27.52334737227614 27.52334737227614 27.52334737227614 27.52334737227614 27.52334737227614 27.52334737227614 27.52334737227614 27.52334737227614 27.52334737227614 27.52334737227614 27.52334737227614 27.52334737227614 27.52334737227614 27.52334737227614 27.554110968687052 27.52334737227614 27.52334737227614 27.52334737227614 27.554110968687052 27.52334737227614 27.52334737227614 27.52334737227614 27.52334737227614 27.52334737227614 27.554110968687052 27.52334737227614 27.554110968687052 27.52334737227614 27.52334737227614 27.52334737227614 27.52334737227614 27.52334737227614 27.52334737227614 27.52334737227614 
