25.0 25.0 25.0 25.0 25.0 25.0 25.0 25.0 25.0 25.0 25.0 25.0 25.0 25.0 25.0 25.0 25.0 25.0 25.0 25.0 25.0 25.0 25.0 25.0 25.0 25.0 25.0 25.0 25.0 25.0 25.0 25.0 25.0 25.0 25.0 25.0 25.0 25.0 25.0 25.0 25.0 25.0 25.0 25.0 25.0 25.0 25.0 25.0 25.0 25.0 25.0 25.0 25.0 25.0 25.0 25.0 25.0 25.0 25.0 25.0 25.0 25.0 25.0 25.0 25.0 25.0 25.0 25.0 25.0 25.0 25.0 25.0 25.0 25.0 25.0 25.0 25.0 25.0 25.0 25.0 25.0 25.0 25.0 25.0 25.0 25.0 25.0 25.0 25.0 25.0 25.0 25.0 25.0 25.0 25.0 25.0 25.0 25.0 25.0 25.0 25.0 25.0 25.0 25.0 25.0 25.0 25.0 25.0 25.0 25.0 25.0 25.0 25.0 25.0 25.0 25.0 25.0 25.0 25.0 25.0 25.0 25.0 25.0 25.0 25.0 25.021973997436366 25.0 25.0 25.0 25.0 25.0 25.0 25.0 25.0 25.0 25.0 25.0 25.0 25.0 25.0 25.0 25.0 25.0 25.0 25.0 25.0 25.0 25.0 25.0 25.0 25.0 25.0 25.0 25.0 25.0 25.0 25.0 25.0 25.0 25.0 25.0 25.0 25.0 25.0 25.0 25.0 25.0 25.0 25.0 25.0 25.0 25.0 25.0 25.0 25.0 25.0 25.0 25.0 25.0 25.0 25.0 25.0 25.0 25.0 25.0 25.0 25.0 25.0 25.0 25.0 25.0 25.0 25.0 25.0 25.0 25.0 25.0 25.0 25.0 25.0 25.0 25.0 25.0 25.0 25.0 25.0 25.0 25.0 25.0 25.0 25.0 25.0 25.021973997436366 25.0 25.0 25.0 25.0 25.0 25.0 25.0 25.0 25.0 25.0 25.0 25.0 25.0 25.0 25.0 25.0 25.0 25.0 25.0 25.0 25.0 25.0 25.0 25.0 25.0 25.0 25.0 25.0 25.0 25.0 25.0 25.0 25.0 25.0 25.0 25.0 25.0 25.0 25.0 25.0 25.0 25.0 25.0 25.0 25.0 25.0 25.0 25.0 25.0 25.0 25.0 25.0 25.0 25.0 25.0 25.0 25.0 25.0 25.0 25.0 25.0 25.0 25.0 25.0 25.0 25.0 25.0 25.0 25.0 25.0 25.0 25.0 25.0 25.0 25.021973997436366 25.0 25.0 25.0 25.0 25.0 25.0 25.0 25.0 25.0 25.0 25.0 25.0 25.0 25.0 25.0 25.0 25.0 25.0 25.0 25.0 25.0 25.0 25.0 25.0 25.0 25.0 25.0 25.0 25.0 25.0 25.0 25.0 25.0 25.0 25.0 25.0 25.0 25.0 25.0 25.0 25.0 25.0 25.0 25.0 25.0 25.0 25.0 25.0 25.0 25.0 25.0 25.0 25.0 25.0 25.0 25.0 25.0 25.0 25.0 25.0 25.0 25.0 25.0 25.0 25.0 25.0 25.0 25.0 25.0 25.0 25.0 25.0 25.0 25.0 25.0 25.0 25.0 25.0 25.0 25.0 25.0 25.0 25.0 25.0 25.0 25.0 25.0 25.0 25.0 25.0 25.0 25.0 25.0 25.0 25.0 25.0 25.0 25.0 25.0 25.0 25.0 25.0 25.0 25.0 25.0 25.0 25.0 25.0 25.0 25.0 25.0 25.0 25.0 25.0 25.0 25.0 25.0 25.0 25.0 25.0 25.0 25.0 25.0 25.0 25.0 25.0 25.0 25.0 25.0 25.0 25.0 25.0 25.0 25.0 25.0 25.0 25.0 25.0 25.0 25.0 25.0 25.0 25.0 25.0 25.0 25.0 25.0 25.0 25.0 25.0 25.0 25.0 25.0 25.0 25.0 25.0 25.0 25.0 25.0 25.0 25.0 25.0 25.0 25.0 25.0 25.0 25.0 25.0 25.0 25.0 25.0 25.0 25.0 25.0 25.0 25.0 25.0 25.0 25.0 25.0 25.0 25.0 25.0 25.0 25.0 25.0 25.0 25.0 25.0 25.0 25.0 25.0 25.0 25.0 25.0 25.0 25.0 25.0 25.0 25.0 25.0 25.0 25.0 25.0 25.0 25.0 25.0 25.0 25.0 25.0 25.0 25.0 25.0 25.0 25.0 25.0 25.0 25.0 25.0 25.0 25.0 25.0 25.0 25.0 25.0 25.0 25.0 25.0 25.0 25.0 25.0 25.0 25.0 25.0 25.0 25.0 25.0 25.0 25.0 25.0 25.0 25.0 25.0 25.0 25.0 25.0 25.0 25.0 25.021973997436366 25.0 25.0 25.0 25.0 25.0 25.0 25.0 25.0 25.0 25.0 25.0 25.0 25.0 25.0 25.0 25.0 25.0 25.0 25.0 25.0 25.0 25.0 25.0 25.0 25.0 25.0 25.0 25.0 25.0 25.0 25.0 25.0 25.0 25.0 25.0 25.0 25.0 25.0 25.043947994872735 25.0659219923091 25.08789598974547 25.08789598974547 25.08789598974547 25.08789598974547 25.109869987181835 25.1318439846182 25.15381798205457 25.175791979490935 25.197765976927304 25.21973997436367 25.21973997436367 25.241713971800035 25.263687969236404 25.28566196667277 25.28566196667277 25.30763596410914 25.35158395898187 25.37355795641824 25.43947994872734 25.50540194103644 25.571323933345543 25.681193920527377 25.813037905145578 25.988829884636512 26.186595861563816 26.38436183849112 26.58212781541842 26.779893792345725 26.933711774400294 27.10950375389123 27.351217725691264 27.74674967954587 28.03241164621864 28.49386559238235 29.043215528291523 29.394799487273392 29.372825489837027 30.22981138985534 30.757187328328143 31.21864127449185 31.68009522065556 32.1195751693829 32.40523713605567 32.95458707196484 33.503937007874015 34.075260941219554 34.66855887200147 35.23988280534701 35.83318073612892 36.426478666910825 37.019776597692726 37.65702252334737 38.27229445156565 38.90954037722029 39.5687603003113 40.227980223402305 40.88720014649331 41.52444607214796 42.18366599523897 42.82091192089361 43.45815784654825 44.05145577733016 44.64475370811206 45.19410364402124 45.74345357993042 46.292803515839594 46.820179454312395 47.325581395348834 47.83098333638527 48.33638527742171 48.84178721845816 49.3471891594946 49.874565097967405 50.35799304156748 50.88536898004028 51.41274491851309 51.9401208569859 52.46749679545871 52.994872733931516 53.54422266984069 54.09357260574986 54.6648965390954 55.23622047244095 55.82951840322285 56.444790331441126 57.08203625709577 57.67533418787768 58.29060611609595 58.9278520417506 59.587071964841606 60.246291887932614 60.92748580845999 61.60867972898736 62.28987364951474 62.94909357260575 63.586339498260394 64.1796374290423 64.79490935726056 65.36623329060612 65.9815052188244 66.5748031496063 67.08020509064274 67.62955502655191 68.13495696758835 68.66233290606115 69.12378685222487 69.6291887932613 70.09064273942502 70.53012268815235 70.99157663431606 71.40908258560702 71.80461453946164 72.17817249587988 72.50778245742538 72.79344442409815 73.03515839589818 73.29884636513458 73.51858633949826 73.71635231642557 73.8921442959165 74.06793627540745 74.19978026002565 74.30965024720747 74.41952023438931 74.50741622413477 74.55136421900751 74.57333821644387 74.57333821644387 74.55136421900751 74.55136421900751 74.55136421900751 74.55136421900751 74.55136421900751 74.55136421900751 74.55136421900751 74.55136421900751 74.55136421900751 74.52939022157113 74.52939022157113 74.55136421900751 74.55136421900751 74.55136421900751 74.55136421900751 74.55136421900751 74.55136421900751 74.55136421900751 74.55136421900751 74.55136421900751 74.55136421900751 74.55136421900751 74.55136421900751 74.55136421900751 74.55136421900751 74.52939022157113 74.52939022157113 74.50741622413477 74.52939022157113 74.50741622413477 74.50741622413477 74.50741622413477 74.50741622413477 74.48544222669841 74.46346822926205 74.44149423182567 74.41952023438931 74.41952023438931 74.41952023438931 74.41952023438931 74.41952023438931 74.39754623695293 74.39754623695293 74.39754623695293 74.39754623695293 74.41952023438931 74.41952023438931 74.41952023438931 74.41952023438931 74.41952023438931 74.41952023438931 74.41952023438931 74.41952023438931 74.41952023438931 74.35359824208021 74.26570225233473 74.22175425746201 74.17780626258927 74.15583226515291 74.13385826771653 74.08991027284381 74.06793627540745 74.04596227797106 74.00201428309833 73.98004028566197 73.95806628822561 73.93609229078925 73.93609229078925 73.93609229078925 73.95806628822561 73.95806628822561 73.93609229078925 73.93609229078925 73.93609229078925 73.95806628822561 73.95806628822561 73.95806628822561 73.95806628822561 73.95806628822561 73.95806628822561 73.95806628822561 73.95806628822561 73.95806628822561 73.95806628822561 73.95806628822561 73.98004028566197 73.98004028566197 73.98004028566197 73.98004028566197 73.95806628822561 73.98004028566197 73.98004028566197 73.98004028566197 73.95806628822561 73.98004028566197 73.98004028566197 74.00201428309833 74.06793627540745 74.11188427028017 74.13385826771653 74.15583226515291 74.15583226515291 74.15583226515291 74.15583226515291 74.15583226515291 74.15583226515291 74.15583226515291 74.15583226515291 74.15583226515291 74.15583226515291 74.15583226515291 74.13385826771653 74.15583226515291 74.15583226515291 74.15583226515291 74.15583226515291 74.15583226515291 74.15583226515291 74.15583226515291 74.15583226515291 74.13385826771653 74.15583226515291 74.15583226515291 74.13385826771653 74.15583226515291 74.15583226515291 74.15583226515291 74.15583226515291 74.15583226515291 74.15583226515291 74.15583226515291 74.15583226515291 74.15583226515291 74.15583226515291 74.15583226515291 74.15583226515291 74.15583226515291 74.15583226515291 74.13385826771653 74.13385826771653 74.15583226515291 74.15583226515291 74.13385826771653 74.13385826771653 74.13385826771653 74.15583226515291 74.13385826771653 74.15583226515291 74.13385826771653 74.13385826771653 74.13385826771653 74.15583226515291 74.13385826771653 74.13385826771653 74.13385826771653 74.13385826771653 74.13385826771653 74.13385826771653 74.13385826771653 74.11188427028017 74.11188427028017 74.08991027284381 74.06793627540745 74.04596227797106 74.0239882805347 74.0239882805347 74.00201428309833 74.00201428309833 74.00201428309833 74.0239882805347 74.0239882805347 74.0239882805347 74.0239882805347 74.0239882805347 74.0239882805347 74.0239882805347 73.95806628822561 73.8921442959165 73.84819630104377 73.80424830617103 73.7603003112983 73.6943783189892 73.6284563266801 73.58450833180737 73.54056033693463 73.51858633949826 73.51858633949826 73.51858633949826 73.51858633949826 73.51858633949826 73.51858633949826 73.51858633949826 73.4966123420619 73.51858633949826 73.51858633949826 73.51858633949826 73.51858633949826 73.51858633949826 73.51858633949826 73.51858633949826 73.51858633949826 73.4966123420619 73.47463834462553 73.45266434718917 73.45266434718917 73.45266434718917 73.47463834462553 73.47463834462553 73.47463834462553 73.4966123420619 73.4966123420619 73.4966123420619 73.4966123420619 73.4966123420619 73.4966123420619 73.4966123420619 73.4966123420619 73.4966123420619 73.4966123420619 73.4966123420619 73.4966123420619 73.4966123420619 73.4966123420619 73.4966123420619 73.4966123420619 73.47463834462553 73.47463834462553 73.3647683574437 73.27687236769822 73.14502838308002 73.05713239333456 72.92528840871636 72.77147042666178 72.55173045229812 72.26606848562534 71.91448452664348 71.65079655740706 71.18934261124336 70.74986266251602 70.42025270097052 69.91485075993407 69.5632668009522 69.07983885735213 68.53048892144295 68.17890496246109 67.40981505218824 67.01428309833364 66.66269913935176 66.1133492034426 65.73979124702436 65.19044131111518 64.70701336751512 64.1796374290423 63.67423548800586 63.300677531587624 62.971067570042116 62.46566562900568 61.96026368796924 61.45486174693279 60.97143380333272 60.641823841787215 60.158395898187145 59.806811939205275 59.3893059879143 58.90587804431423 58.55429408533236 58.04889214429592 57.58743819813221 57.235854239150335 56.77440029298663 56.422816334004764 55.82951840322285 55.30214246475005 54.92858450833181 54.18146859549533 53.632118659586155 53.478300677531585 52.70921076725874 52.37960080571324 51.98406885185864 51.45669291338582 50.92931697491302 50.40194103644021 49.91851309284014 49.610877128731005 49.14942318256729 48.88573521333089 48.44625526460355 48.02874931331258 47.67716535433071 47.215711408167 46.688335469694195 46.314777513275956 45.76542757736678 45.39186962094854 44.86449368247574 44.3590917414393 44.073429774766524 43.45815784654825 42.996703900384546 42.68906793627541 42.31550997985717 42.0298480131844 41.72221204907526 41.34865409265702 40.99707013367515 40.62351217725691 40.29390221571141 40.074162241347736 39.744552279802235 39.458890313129466 39.239150338765796 38.90954037722029 38.66782640542025 38.33821644387475 37.96465848745651 37.72294451565647 37.195568577183664 36.80003662332906 36.646218641274494 36.294634682292624 36.03094671305622 35.65738875663798 35.19593481047427 34.95422083867423 34.60263687969236 34.36092290789233 33.96539095403772 33.701702984801315 33.306171030946714 32.866691082219376 32.581029115546606 32.14154916681926 31.636147225782825 31.28456326680095 30.625343343709943 30.251785387291704 29.9221754257462 29.41677348470976 29.043215528291523 28.515839589818714 27.614905694927668 27.505035707745833 26.626075810291155 26.318439846182017 26.054751876945616 25.878959897454678 25.747115912836477 25.43947994872734 25.395531953854604 25.35158395898187 25.241713971800035 25.175791979490935 25.109869987181835 25.0659219923091 25.043947994872735 25.0 24.978026002563634 24.91210401025453 24.956052005127265 24.9340780076909 24.8681560153818 25.08789598974547 25.241713971800035 25.43947994872734 25.461453946163708 25.461453946163708 25.461453946163708 25.461453946163708 25.461453946163708 25.461453946163708 25.461453946163708 25.461453946163708 25.43947994872734 25.43947994872734 25.43947994872734 25.43947994872734 25.417505951290973 25.417505951290973 25.417505951290973 25.395531953854604 25.395531953854604 25.37355795641824 25.37355795641824 25.37355795641824 25.37355795641824 25.35158395898187 25.35158395898187 25.30763596410914 25.30763596410914 25.30763596410914 25.28566196667277 25.28566196667277 25.28566196667277 25.263687969236404 25.241713971800035 25.241713971800035 25.241713971800035 25.21973997436367 25.21973997436367 25.21973997436367 25.21973997436367 25.197765976927304 25.197765976927304 25.197765976927304 25.197765976927304 25.197765976927304 25.175791979490935 25.175791979490935 25.175791979490935 25.175791979490935 25.175791979490935 25.15381798205457 25.15381798205457 25.15381798205457 25.15381798205457 25.15381798205457 25.15381798205457 25.15381798205457 25.15381798205457 25.1318439846182 25.1318439846182 25.1318439846182 25.1318439846182 25.109869987181835 25.1318439846182 25.109869987181835 25.109869987181835 25.109869987181835 25.08789598974547 25.08789598974547 25.08789598974547 25.08789598974547 25.08789598974547 25.08789598974547 25.08789598974547 25.0659219923091 25.0659219923091 25.0659219923091 25.0659219923091 25.0659219923091 25.0659219923091 25.0659219923091 25.0659219923091 25.0659219923091 25.0659219923091 25.043947994872735 25.043947994872735 25.043947994872735 25.043947994872735 25.043947994872735 25.043947994872735 25.021973997436366 25.021973997436366 25.021973997436366 25.021973997436366 25.021973997436366 25.021973997436366 25.021973997436366 25.021973997436366 25.0 25.021973997436366 25.021973997436366 25.0 25.0 25.0 25.0 25.0 25.0 25.0 25.0 25.0 25.0 25.0 24.978026002563634 25.0 25.0 25.0 24.978026002563634 24.978026002563634 24.978026002563634 25.0 25.0 25.0 24.978026002563634 24.978026002563634 24.978026002563634 24.978026002563634 24.978026002563634 24.978026002563634 24.978026002563634 24.978026002563634 24.978026002563634 24.978026002563634 24.978026002563634 24.978026002563634 24.978026002563634 24.978026002563634 24.978026002563634 24.978026002563634 24.978026002563634 24.978026002563634 24.978026002563634 24.978026002563634 24.978026002563634 24.978026002563634 24.978026002563634 24.978026002563634 24.978026002563634 24.978026002563634 24.978026002563634 24.978026002563634 24.978026002563634 24.978026002563634 24.978026002563634 24.978026002563634 24.978026002563634 24.978026002563634 24.978026002563634 24.978026002563634 24.978026002563634 24.978026002563634 24.978026002563634 24.978026002563634 24.978026002563634 24.978026002563634 25.0 25.0 25.0 25.0 25.0 25.0 25.0 25.021973997436366 25.021973997436366 25.043947994872735 25.043947994872735 25.043947994872735 25.043947994872735 25.0659219923091 25.0659219923091 25.08789598974547 25.109869987181835 25.15381798205457 25.15381798205457 25.197765976927304 25.241713971800035 25.263687969236404 25.329609961545504 25.35158395898187 25.417505951290973 25.483427943600073 25.549349935909174 25.637245925654643 25.681193920527377 25.703167917963743 25.72514191540011 25.703167917963743 25.72514191540011 25.747115912836477 25.791063907709212 25.900933894891047 25.944881889763778 26.01080388207288 26.07672587438198 26.098699871818347 26.164621864127447 26.29646584874565 26.45028383080022 26.867789782091194 27.131477751327594 27.570957700054933 27.856619666727706 28.18622962827321 28.889397546236953 29.262955502655192 29.61453946163706 30.383629371909905 30.757187328328143 31.28456326680095 32.00970518220106 32.14154916681926 32.75682109503754 33.130379051455776 33.723676982237684 34.29500091558323 34.7125068668742 35.32777879509247 35.986998718183486 36.44845266434719 37.08569859000183 37.5691265336019 38.53598242080205 39.08533235671123 39.590734297747666 40.42574620032961 41.21681010803882 41.78813404138436 42.60117194652994 43.721845815784654 44.24922175425746 45.04028566196667 45.58963559787585 46.402673503021425 47.1497894158579 47.67716535433071 48.51217725691265 49.06152719282183 49.874565097967405 50.709577000549345 51.28090093389489 52.0719648416041 52.88500274674968 53.412378685222485 54.24739058780443 54.81871452114997 55.983336385277426 56.8622962827321 57.47756821095037 58.35652810840505 59.01574803149606 59.674967954587075 60.422083867423545 61.30104376487823 62.22395165720564 63.10291155466032 63.718183482878594 64.641091375206 65.56399926753342 66.09137520600623 66.97033510346091 67.56363303424281 68.31074894707929 69.03589086247939 69.4973448086431 70.28840871635232 70.68394067020692 71.01355063175242 71.4310565830434 71.69474455227981 71.98040651895258 72.26606848562534 72.35396447537082 72.46383446255265 72.50778245742538 72.52975645486175 72.52975645486175 72.52975645486175 72.52975645486175 72.52975645486175 72.52975645486175 72.52975645486175 72.52975645486175 72.52975645486175 72.52975645486175 72.52975645486175 72.52975645486175 72.52975645486175 72.52975645486175 72.52975645486175 72.50778245742538 72.48580845998902 72.44186046511629 72.44186046511629 72.4198864676799 72.37593847280718 72.37593847280718 72.33199047793445 72.33199047793445 72.31001648049809 72.2880424830617 72.2880424830617 72.31001648049809 72.31001648049809 72.31001648049809 72.31001648049809 72.31001648049809 72.31001648049809 72.31001648049809 72.2880424830617 72.2880424830617 72.26606848562534 72.26606848562534 72.24409448818898 72.22212049075262 72.17817249587988 72.13422450100714 72.09027650613442 72.06830250869804 72.0243545138253 72.00238051638894 72.00238051638894 71.98040651895258 71.95843252151622 71.95843252151622 71.95843252151622 71.95843252151622 71.95843252151622 71.95843252151622 71.95843252151622 71.95843252151622 71.93645852407984 71.91448452664348 71.91448452664348 71.8925105292071 71.87053653177074 71.82658853689802 71.80461453946164 71.78264054202528 71.7606665445889 71.71671854971618 71.69474455227981 71.6288225599707 71.60684856253434 71.58487456509798 71.56290056766161 71.54092657022522 71.51895257278886 71.4969785753525 71.4969785753525 71.4969785753525 71.4969785753525 71.4969785753525 71.4969785753525 71.4969785753525 71.4969785753525 71.4969785753525 71.4969785753525 71.4969785753525 71.4969785753525 71.4969785753525 71.4969785753525 71.4969785753525 71.4969785753525 71.4969785753525 71.47500457791614 71.47500457791614 71.47500457791614 71.47500457791614 71.4969785753525 71.47500457791614 71.47500457791614 71.47500457791614 71.47500457791614 71.47500457791614 71.45303058047976 71.4310565830434 71.38710858817066 71.3651345907343 71.32118659586156 71.2992125984252 71.27723860098882 71.25526460355246 71.27723860098882 71.25526460355246 71.25526460355246 71.25526460355246 71.25526460355246 71.25526460355246 71.25526460355246 71.25526460355246 71.21131660867974 71.167368613807 71.12342061893426 71.07947262406154 71.0355246291888 70.99157663431606 70.94762863944334 70.9036806445706 70.88170664713422 70.8377586522615 70.79381065738875 70.77183665995238 70.72788866507966 70.70591466764328 70.70591466764328 70.68394067020692 70.68394067020692 70.66196667277055 70.66196667277055 70.66196667277055 70.66196667277055 70.66196667277055 70.66196667277055 70.63999267533418 70.63999267533418 70.59604468046146 70.59604468046146 70.57407068302508 70.55209668558872 70.55209668558872 70.55209668558872 70.55209668558872 70.55209668558872 70.55209668558872 70.55209668558872 70.55209668558872 70.55209668558872 70.55209668558872 70.55209668558872 70.55209668558872 70.55209668558872 70.55209668558872 70.55209668558872 70.55209668558872 70.53012268815235 70.53012268815235 70.50814869071598 70.46420069584326 70.44222669840688 70.42025270097052 70.39827870353415 70.37630470609778 70.35433070866142 70.33235671122506 70.31038271378868 70.28840871635232 70.28840871635232 70.26643471891595 70.24446072147958 70.20051272660686 70.17853872917048 70.15656473173412 70.13459073429775 70.09064273942502 70.06866874198866 70.00274674967955 69.98077275224318 69.95879875480682 69.93682475737045 69.93682475737045 69.93682475737045 69.93682475737045 69.93682475737045 69.93682475737045 69.93682475737045 69.95879875480682 69.93682475737045 69.95879875480682 69.95879875480682 69.95879875480682 69.95879875480682 69.95879875480682 69.95879875480682 69.95879875480682 69.95879875480682 69.95879875480682 69.95879875480682 69.95879875480682 69.98077275224318 69.95879875480682 69.95879875480682 69.95879875480682 69.95879875480682 69.98077275224318 69.98077275224318 69.98077275224318 69.98077275224318 69.98077275224318 69.95879875480682 69.95879875480682 69.95879875480682 69.95879875480682 69.98077275224318 69.95879875480682 69.98077275224318 69.95879875480682 69.95879875480682 69.95879875480682 69.95879875480682 69.95879875480682 69.95879875480682 69.95879875480682 69.91485075993407 69.93682475737045 69.93682475737045 69.93682475737045 69.93682475737045 69.93682475737045 69.8928767624977 69.8269547701886 69.6951107855704 69.51931880607947 69.3655008240249 69.07983885735213 68.77220289324299 68.55246291887933 68.22285295733383 67.98113898553379 67.60758102911555 67.19007507782457 66.88243911371544 66.39901117011536 65.73979124702436 65.56399926753342 64.86083134956968 64.48727339315144 64.09174143929684 63.300677531587624 62.81724958798755 62.24592565464201 61.60867972898736 61.16919978026002 60.53195385460538 60.114447903314414 59.521149972532506 58.97180003662333 58.62021607764146 58.11481413660502 57.58743819813221 57.016114264786665 56.466764328877495 56.20307635964109 55.71964841604102 55.17029848013185 54.79674052371361 54.11554660318623 53.61014466214979 53.280534700604285 52.797106757004215 52.44552279802234 52.0719648416041 51.25892693645852 51.06116095953122 50.577733015931145 50.072331074894706 49.69877311847647 49.14942318256729 48.66599523896723 48.31441127998535 47.87493133125801 47.58926936458524 47.1497894158579 46.71030946713056 46.402673503021425 45.78740157480315 45.43581761582128 45.0183116645303 44.73264969785754 44.40303973631203 43.787767808093754 43.48013184398462 43.040651895257284 42.60117194652994 42.31550997985717 41.87603003112983 41.43655008240249 41.12891411829335 40.68943416956601 40.33785021058414 39.854422266984066 39.370994323384 39.08533235671123 38.49203442592932 38.20637245925654 37.92071049258378 37.52517853872917 37.261490569492764 36.931880607947264 36.470426661783556 36.22871268998352 35.87712873100165 35.63541475920161 35.39370078740157 34.88829884636513 34.7784288591833 34.29500091558323 33.96539095403772 33.701702984801315 33.39406702069218 33.174327046328514 32.734847097601175 32.5151071232375 32.22944515656473 32.00970518220106 31.68009522065556 31.482329243728255 31.174693279619117 30.932979307819082 30.735213330891778 30.493499359091743 30.339681377037174 30.14191540010987 29.8562534334371 29.70243545138253 29.504669474455227 29.350851492400658 29.240981505218826 28.999267533418788 28.889397546236953 28.71360556674602 28.449917597509614 28.296099615455045 28.16425563083684 27.944515656473172 27.724775682109502 27.417139718000367 27.241347738509432 26.95568577183666 26.67002380516389 26.45028383080022 26.23054385643655 26.14264786669108 26.054751876945616 25.966855887200147 25.922907892327412 25.835011902581943 25.791063907709212 25.747115912836477 25.72514191540011 25.72514191540011 25.65921992309101 25.615271928218274 25.549349935909174 25.43947994872734 25.37355795641824 25.30763596410914 25.15381798205457 25.043947994872735 25.08789598974547 25.263687969236404 25.37355795641824 25.417505951290973 25.417505951290973 25.43947994872734 25.417505951290973 25.43947994872734 25.43947994872734 25.483427943600073 25.483427943600073 25.461453946163708 25.461453946163708 25.461453946163708 25.43947994872734 25.43947994872734 25.43947994872734 25.43947994872734 25.43947994872734 25.43947994872734 25.43947994872734 25.417505951290973 25.417505951290973 25.417505951290973 25.417505951290973 25.395531953854604 25.395531953854604 25.395531953854604 25.37355795641824 25.37355795641824 25.35158395898187 25.35158395898187 25.35158395898187 25.329609961545504 25.30763596410914 25.30763596410914 25.28566196667277 25.28566196667277 25.263687969236404 25.263687969236404 25.241713971800035 25.241713971800035 25.21973997436367 25.21973997436367 25.21973997436367 25.197765976927304 25.175791979490935 25.175791979490935 25.15381798205457 25.15381798205457 25.1318439846182 25.1318439846182 25.109869987181835 25.109869987181835 25.08789598974547 25.08789598974547 25.0659219923091 25.0659219923091 25.0659219923091 25.0659219923091 25.0659219923091 25.0659219923091 25.0659219923091 25.0659219923091 25.043947994872735 25.0659219923091 25.043947994872735 25.043947994872735 25.043947994872735 25.043947994872735 25.043947994872735 25.043947994872735 25.043947994872735 25.021973997436366 25.043947994872735 25.043947994872735 25.021973997436366 25.043947994872735 25.021973997436366 25.043947994872735 25.021973997436366 25.021973997436366 25.021973997436366 25.021973997436366 25.021973997436366 25.021973997436366 25.043947994872735 25.021973997436366 25.021973997436366 25.043947994872735 25.021973997436366 25.021973997436366 25.021973997436366 25.021973997436366 25.021973997436366 25.021973997436366 25.043947994872735 25.021973997436366 25.021973997436366 25.021973997436366 25.043947994872735 25.021973997436366 25.021973997436366 25.021973997436366 25.021973997436366 25.021973997436366 25.021973997436366 25.021973997436366 25.021973997436366 25.021973997436366 25.043947994872735 25.021973997436366 25.021973997436366 25.043947994872735 25.043947994872735 25.043947994872735 25.043947994872735 25.043947994872735 25.0659219923091 25.0659219923091 25.0659219923091 25.08789598974547 25.08789598974547 25.08789598974547 25.08789598974547 25.109869987181835 25.109869987181835 25.1318439846182 25.175791979490935 25.197765976927304 25.21973997436367 25.263687969236404 25.35158395898187 25.417505951290973 25.50540194103644 25.571323933345543 25.65921992309101 25.747115912836477 25.856985900018312 25.922907892327412 25.966855887200147 26.07672587438198 26.14264786669108 26.208569859000182 26.318439846182017 26.36238784105475 26.42830983336385 26.560153817982055 26.691997802600255 26.97765976927303 27.461087712873102 27.724775682109502 28.16425563083684 28.47189159494598 28.933345541109688 29.460721479582496 29.834279436000735 30.405603369346274 31.020875297564547 31.482329243728255 32.1195751693829 32.581029115546606 33.306171030946714 34.009338948910454 34.49276689251053 35.23988280534701 35.76725874381981 36.492400659219925 37.261490569492764 37.74491851309284 38.75572239516572 39.28309833363853 39.854422266984066 40.535616187511444 41.32668009522065 41.91997802600257 42.996703900384546 43.590001831166454 44.4909357260575 45.39186962094854 46.00714154916682 46.86412744918513 47.457425379967034 48.31441127998535 49.171397180003666 49.720747115912836 50.55575901849478 51.34682292620399 51.8741988646768 52.66526277238601 53.192638710858816 54.24739058780443 55.06042849295001 55.36806445705915 56.400842336568395 57.016114264786665 57.56546420069584 58.29060611609595 59.03772202893243 59.718915949459806 60.40010986998718 60.83958981871452 61.49880974180553 62.15802966489654 62.61948361106025 63.278703534151255 63.718183482878594 64.33345541109688 64.92675334187878 65.49807727522432 65.9815052188244 66.3111151803699 66.61875114447903 67.10217908807911 67.38784105475187 67.93719099066105 68.28877494964291 68.46456692913387 68.68430690349753 68.81615088811573 68.90404687786119 69.01391686504303 69.07983885735213 69.14576084966123 69.16773484709759 69.16773484709759 69.16773484709759 69.16773484709759 69.18970884453397 69.16773484709759 69.16773484709759 69.16773484709759 69.16773484709759 69.16773484709759 69.16773484709759 69.18970884453397 69.16773484709759 69.16773484709759 69.16773484709759 69.16773484709759 69.16773484709759 69.16773484709759 69.16773484709759 69.16773484709759 69.16773484709759 69.16773484709759 69.16773484709759 69.16773484709759 69.16773484709759 69.14576084966123 69.12378685222487 69.1018128547885 69.1018128547885 69.12378685222487 69.1018128547885 69.1018128547885 69.1018128547885 69.1018128547885 69.1018128547885 69.07983885735213 69.07983885735213 69.05786485991577 69.05786485991577 69.01391686504303 68.99194286760667 68.9699688701703 68.94799487273393 68.92602087529757 68.92602087529757 68.92602087529757 68.92602087529757 68.94799487273393 68.92602087529757 68.94799487273393 68.92602087529757 68.94799487273393 68.94799487273393 68.94799487273393 68.94799487273393 68.94799487273393 68.92602087529757 68.92602087529757 68.92602087529757 68.92602087529757 68.92602087529757 68.92602087529757 68.92602087529757 68.92602087529757 68.92602087529757 68.92602087529757 68.92602087529757 68.92602087529757 68.92602087529757 68.92602087529757 68.92602087529757 68.92602087529757 68.90404687786119 68.88207288042483 68.86009888298847 68.81615088811573 68.79417689067935 68.75022889580663 68.75022889580663 68.7062809009339 68.7062809009339 68.68430690349753 68.68430690349753 68.66233290606115 68.66233290606115 68.66233290606115 68.66233290606115 68.68430690349753 68.66233290606115 68.66233290606115 68.68430690349753 68.66233290606115 68.66233290606115 68.66233290606115 68.66233290606115 68.66233290606115 68.66233290606115 68.66233290606115 68.64035890862479 68.61838491118843 68.59641091375207 68.57443691631569 68.55246291887933 68.53048892144295 68.53048892144295 68.53048892144295 68.53048892144295 68.50851492400659 68.50851492400659 68.48654092657023 68.48654092657023 68.46456692913387 68.46456692913387 68.44259293169749 68.42061893426111 68.39864493682475 68.39864493682475 68.37667093938839 68.35469694195203 68.35469694195203 68.33272294451567 68.31074894707929 68.28877494964291 68.26680095220655 68.24482695477019 68.24482695477019 68.22285295733383 68.20087895989745 68.20087895989745 68.17890496246109 68.15693096502471 68.11298297015199 68.06903497527925 68.04706097784288 68.00311298297015 67.95916498809743 67.91521699322467 67.89324299578831 67.84929500091559 67.82732100347921 67.80534700604285 67.78337300860647 67.76139901117011 67.73942501373375 67.71745101629739 67.69547701886101 67.67350302142464 67.62955502655191 67.60758102911555 67.56363303424281 67.54165903680644 67.51968503937007 67.51968503937007 67.51968503937007 67.51968503937007 67.51968503937007 67.51968503937007 67.51968503937007 67.51968503937007 67.54165903680644 67.54165903680644 67.56363303424281 67.60758102911555 67.62955502655191 67.62955502655191 67.62955502655191 67.62955502655191 67.62955502655191 67.62955502655191 67.60758102911555 67.60758102911555 67.58560703167919 67.56363303424281 67.51968503937007 67.47573704449735 67.45376304706097 67.43178904962461 67.40981505218824 67.40981505218824 67.38784105475187 67.38784105475187 67.38784105475187 67.38784105475187 67.36586705731551 67.34389305987915 67.32191906244277 67.29994506500641 67.25599707013367 67.23402307269731 67.1681010803882 67.12415308551547 67.03625709577 66.94836110602454 66.81651712140633 66.68467313678813 66.39901117011536 66.13532320087896 65.93755722395166 65.62992125984252 65.38820728804248 65.14649331624244 64.59714338033328 64.26753341878776 63.784105475187694 63.23475553927852 62.86119758286028 62.26789965207837 61.6526277238601 61.25709577000549 60.663797839223584 60.246291887932614 59.3893059879143 58.97180003662333 58.55429408533236 57.76323017762314 57.389672221204904 56.9941402673503 56.422816334004764 56.07123237502289 55.54385643655009 54.84068851858634 54.44515656473173 53.98370261856803 53.654092657022524 53.346456692913385 52.88500274674968 52.357626808276876 51.85222486724043 51.28090093389489 50.90734297747665 50.336019044131106 49.720747115912836 49.303241164621866 48.66599523896723 48.24848928767625 47.58926936458524 47.017945431239696 46.57846548251236 45.985167551730456 45.36989562351218 45.04028566196667 44.4909357260575 44.11737776963926 43.61197582860282 43.128547885002746 42.667093938839045 42.24958798754807 41.9639260208753 41.70023805163889 41.17286211316609 40.90917414392968 40.469694195202344 40.096136238784105 39.810474272111335 39.370994323384 39.08533235671123 38.66782640542025 38.27229445156565 38.00860648232924 37.61307452847464 37.28346456692913 37.063724592565464 36.73411463101996 36.51437465665629 36.184764695110786 35.83318073612892 35.59146676432888 35.08606482329244 34.69053286943783 34.40487090276506 34.03131294634682 33.74565097967405 33.48196301043765 32.95458707196484 32.712873100164806 32.33931514374657 31.96575718732833 31.72404321552829 31.35048525911005 31.108771287310017 30.691265336019043 30.29573338216444 29.9880974180553 29.61453946163706 29.219007507782457 28.801501556491484 28.40596960263688 28.25215162058231 27.856619666727706 27.461087712873102 27.153451748763963 26.757919794909355 26.60410181285479 26.51620582310932 26.36238784105475 26.318439846182017 26.23054385643655 26.14264786669108 26.120673869254716 26.098699871818347 26.098699871818347 26.07672587438198 26.054751876945616 26.01080388207288 25.966855887200147 25.922907892327412 25.878959897454678 25.791063907709212 25.747115912836477 25.65921992309101 25.483427943600073 25.43947994872734 25.43947994872734 25.43947994872734 25.461453946163708 25.43947994872734 25.43947994872734 25.43947994872734 25.43947994872734 25.43947994872734 25.43947994872734 25.417505951290973 25.417505951290973 25.417505951290973 25.417505951290973 25.395531953854604 25.37355795641824 25.35158395898187 25.35158395898187 25.329609961545504 25.329609961545504 25.30763596410914 25.28566196667277 25.241713971800035 25.21973997436367 25.21973997436367 25.197765976927304 25.197765976927304 25.197765976927304 25.197765976927304 25.175791979490935 25.175791979490935 25.175791979490935 25.175791979490935 25.175791979490935 25.15381798205457 25.15381798205457 25.15381798205457 25.1318439846182 25.1318439846182 25.1318439846182 25.1318439846182 25.1318439846182 25.1318439846182 25.109869987181835 25.109869987181835 25.109869987181835 25.109869987181835 25.109869987181835 25.08789598974547 25.08789598974547 25.08789598974547 25.08789598974547 25.08789598974547 25.08789598974547 25.0659219923091 25.0659219923091 25.0659219923091 25.043947994872735 25.0659219923091 25.043947994872735 25.043947994872735 25.043947994872735 25.043947994872735 25.043947994872735 25.043947994872735 25.043947994872735 25.043947994872735 25.043947994872735 25.021973997436366 25.021973997436366 25.021973997436366 25.021973997436366 25.021973997436366 25.021973997436366 25.021973997436366 25.021973997436366 25.0 25.021973997436366 25.0 25.0 25.0 25.0 24.978026002563634 24.978026002563634 24.978026002563634 24.978026002563634 24.978026002563634 24.978026002563634 24.956052005127265 24.956052005127265 24.956052005127265 24.956052005127265 24.956052005127265 24.956052005127265 24.956052005127265 24.9340780076909 24.9340780076909 24.9340780076909 24.9340780076909 24.9340780076909 24.9340780076909 24.9340780076909 24.9340780076909 24.91210401025453 24.91210401025453 24.91210401025453 24.91210401025453 24.91210401025453 24.91210401025453 24.890130012818165 24.91210401025453 24.890130012818165 24.890130012818165 24.890130012818165 24.890130012818165 24.890130012818165 24.890130012818165 24.8681560153818 24.8681560153818 24.8681560153818 24.8681560153818 24.8681560153818 24.8681560153818 24.8681560153818 24.84618201794543 24.84618201794543 24.84618201794543 24.84618201794543 24.84618201794543 24.84618201794543 24.84618201794543 24.84618201794543 24.84618201794543 24.84618201794543 24.84618201794543 24.84618201794543 24.84618201794543 24.84618201794543 24.84618201794543 24.84618201794543 24.84618201794543 24.84618201794543 24.84618201794543 24.84618201794543 24.84618201794543 24.84618201794543 24.84618201794543 24.84618201794543 24.84618201794543 24.824208020509065 24.824208020509065 24.824208020509065 24.84618201794543 24.824208020509065 24.824208020509065 24.824208020509065 24.824208020509065 24.824208020509065 24.824208020509065 24.824208020509065 24.824208020509065 24.824208020509065 24.824208020509065 24.84618201794543 24.824208020509065 24.824208020509065 24.824208020509065 24.824208020509065 24.824208020509065 24.824208020509065 24.824208020509065 24.824208020509065 24.824208020509065 24.824208020509065 24.824208020509065 24.824208020509065 24.824208020509065 24.824208020509065 24.824208020509065 24.824208020509065 24.824208020509065 24.824208020509065 24.824208020509065 24.824208020509065 24.824208020509065 24.824208020509065 24.824208020509065 24.824208020509065 24.824208020509065 24.824208020509065 24.824208020509065 24.824208020509065 24.824208020509065 24.824208020509065 24.824208020509065 24.824208020509065 24.824208020509065 24.824208020509065 24.824208020509065 24.824208020509065 24.824208020509065 24.824208020509065 24.824208020509065 24.824208020509065 24.824208020509065 24.824208020509065 24.824208020509065 24.824208020509065 24.824208020509065 24.824208020509065 24.824208020509065 24.824208020509065 24.824208020509065 24.824208020509065 24.824208020509065 24.824208020509065 24.824208020509065 24.824208020509065 24.824208020509065 24.824208020509065 24.824208020509065 24.824208020509065 24.824208020509065 24.824208020509065 24.824208020509065 24.824208020509065 24.824208020509065 24.824208020509065 24.824208020509065 24.824208020509065 24.824208020509065 24.84618201794543 24.84618201794543 24.84618201794543 24.84618201794543 24.84618201794543 24.8681560153818 24.8681560153818 24.8681560153818 24.890130012818165 24.890130012818165 24.890130012818165 24.91210401025453 24.9340780076909 24.956052005127265 24.978026002563634 25.0659219923091 25.109869987181835 25.263687969236404 25.35158395898187 25.461453946163708 25.593297930781908 25.681193920527377 25.944881889763778 26.01080388207288 26.14264786669108 26.472257828236586 26.691997802600255 26.999633766709394 27.329243728254898 27.570957700054933 27.922541659036806 28.27412561801868 28.53781358725508 28.933345541109688 29.219007507782457 29.724409448818896 30.251785387291704 30.625343343709943 31.21864127449185 31.833913202710125 32.2514191540011 32.91063907709211 33.350119025819446 34.22907892327412 34.9102728438015 35.37172678996521 36.09686870536532 36.624244643838125 37.08569859000183 38.09650247207471 38.60190441311115 39.6346822926204 40.140084233656836 40.667460172129644 41.52444607214796 42.293535982420806 42.864859915766345 43.74381981322102 44.33711774400293 45.23805163889398 46.051089544039556 46.886101446621495 47.65519135689434 48.24848928767625 48.68796923640359 49.479033144112805 50.006409082585606 51.06116095953122 51.83025086980406 52.357626808276876 53.14869071598608 53.67606665445889 54.18146859549533 55.19227247756821 55.76359641091375 56.466764328877495 57.21388024171397 57.71928218275041 58.44442409815052 58.97180003662333 59.674967954587075 60.444057864859914 60.88353781358725 61.60867972898736 62.24592565464201 62.68540560336935 63.432521516205824 63.762131477751325 64.06976744186046 64.48727339315144 64.7729353598242 65.12451931880608 65.5859732649698 65.82768723676982 66.15729719831532 66.377037172679 66.61875114447903 67.01428309833364 67.25599707013367 67.58560703167919 67.89324299578831 68.11298297015199 68.39864493682475 68.57443691631569 68.81615088811573 69.03589086247939 69.14576084966123 69.27760483427943 69.3655008240249 69.38747482146127 69.38747482146127 69.40944881889763 69.40944881889763 69.40944881889763 69.38747482146127 69.38747482146127 69.38747482146127 69.38747482146127 69.38747482146127 69.38747482146127 69.3655008240249 69.38747482146127 69.38747482146127 69.3655008240249 69.3655008240249 69.3655008240249 69.3655008240249 69.3655008240249 69.34352682658854 69.32155282915217 69.32155282915217 69.27760483427943 69.27760483427943 69.27760483427943 69.27760483427943 69.27760483427943 69.27760483427943 69.27760483427943 69.27760483427943 69.27760483427943 69.25563083684307 69.25563083684307 69.25563083684307 69.25563083684307 69.2336568394067 69.21168284197034 69.18970884453397 69.12378685222487 69.1018128547885 69.05786485991577 69.03589086247939 69.01391686504303 68.99194286760667 68.9699688701703 68.9699688701703 68.94799487273393 68.92602087529757 68.88207288042483 68.8381248855521 68.81615088811573 68.79417689067935 68.77220289324299 68.75022889580663 68.7062809009339 68.7062809009339 68.68430690349753 68.7062809009339 68.7062809009339 68.68430690349753 68.68430690349753 68.68430690349753 68.68430690349753 68.68430690349753 68.68430690349753 68.66233290606115 68.68430690349753 68.68430690349753 68.68430690349753 68.66233290606115 68.64035890862479 68.61838491118843 68.59641091375207 68.57443691631569 68.55246291887933 68.48654092657023 68.44259293169749 68.37667093938839 68.35469694195203 68.31074894707929 68.26680095220655 68.24482695477019 68.22285295733383 68.20087895989745 68.17890496246109 68.13495696758835 68.09100897271563 68.06903497527925 68.02508698040651 68.02508698040651 68.02508698040651 68.02508698040651 68.04706097784288 68.02508698040651 68.04706097784288 68.04706097784288 68.04706097784288 68.02508698040651 68.00311298297015 67.98113898553379 67.98113898553379 67.98113898553379 67.95916498809743 67.93719099066105 67.93719099066105 67.93719099066105 67.93719099066105 67.93719099066105 67.93719099066105 67.93719099066105 67.93719099066105 67.93719099066105 67.93719099066105 67.93719099066105 67.93719099066105 67.93719099066105 67.95916498809743 67.95916498809743 67.95916498809743 67.95916498809743 67.93719099066105 67.95916498809743 67.95916498809743 67.95916498809743 67.93719099066105 67.93719099066105 67.93719099066105 67.93719099066105 67.91521699322467 67.89324299578831 67.84929500091559 67.76139901117011 67.65152902398827 67.43178904962461 67.1681010803882 66.99230910089727 66.66269913935176 66.33308917780627 65.9815052188244 65.62992125984252 65.36623329060612 65.10254532136972 64.72898736495148 64.4433253982787 63.87200146493316 63.564365500824024 63.124885552096686 62.64145760849661 62.31184764695111 61.82841970335103 61.30104376487823 60.90551181102362 60.290239882805345 59.850759934078006 59.2574620032961 58.64219007507782 58.00494414942318 57.41164621864127 56.9941402673503 56.57663431605933 55.983336385277426 55.60977842885919 54.90661051089544 54.42318256729537 54.09357260574986 53.632118659586155 53.346456692913385 53.03882072880425 52.423548800585976 52.11591283647684 51.6105108954404 51.083134956967584 50.709577000549345 50.160227064640175 49.720747115912836 49.25929316974913 48.75389122871269 48.40230726973082 47.94085332356711 47.50137337483977 47.215711408167 46.66636147225783 46.358725508148694 46.07306354147592 45.67753158762132 45.26002563633034 44.93041567478484 44.31514374656656 43.96355978758469 43.436183849111885 43.08459989013001 42.75498992858451 42.05182201062077 41.76616004394799 41.28273210034792 40.84325215162058 40.55759018494781 40.162058231093205 39.7665262772386 39.5028383080022 39.08533235671123 38.79967039003846 38.42611243362022 38.07452847463834 37.81084050540194 37.4372825489837 37.1076725874382 36.909906610510895 36.668192638710856 36.51437465665629 36.22871268998352 36.03094671305622 35.921076725874386 35.74528474638345 35.61344076176525 35.48159677714705 35.21790880791064 35.0421168284197 34.80040285661967 34.53671488738326 34.29500091558323 33.98736495147409 33.767624977110415 33.39406702069218 33.04248306171031 32.800769089910276 32.47115912836477 32.14154916681926 31.81193920527376 31.59219923091009 31.394433253982786 30.998901300128182 30.823109320637247 30.647317341146312 30.36165537447354 30.14191540010987 29.9880974180553 29.724409448818896 29.526643471891596 29.350851492400658 28.999267533418788 28.71360556674602 28.515839589818714 28.208203625709576 27.96648965390954 27.636879692364037 27.351217725691264 27.04358176158213 26.67002380516389 26.51620582310932 26.42830983336385 26.274491851309286 26.164621864127447 26.098699871818347 26.032777879509247 25.988829884636512 25.944881889763778 25.922907892327412 25.900933894891047 25.878959897454678 25.856985900018312 25.813037905145578 25.791063907709212 25.747115912836477 25.703167917963743 25.681193920527377 25.65921992309101 25.615271928218274 25.593297930781908 25.549349935909174 25.527375938472808 25.50540194103644 25.483427943600073 25.461453946163708 25.43947994872734 25.417505951290973 25.37355795641824 25.35158395898187 25.30763596410914 25.263687969236404 25.241713971800035 25.197765976927304 25.175791979490935 25.15381798205457 25.15381798205457 25.1318439846182 25.1318439846182 25.109869987181835 25.109869987181835 25.109869987181835 25.109869987181835 25.08789598974547 25.08789598974547 25.08789598974547 25.08789598974547 25.0659219923091 25.0659219923091 25.0659219923091 25.043947994872735 25.043947994872735 25.021973997436366 25.021973997436366 25.0 25.0 25.0 24.978026002563634 24.978026002563634 24.978026002563634 24.956052005127265 24.956052005127265 24.956052005127265 24.956052005127265 24.956052005127265 24.956052005127265 24.956052005127265 24.9340780076909 24.9340780076909 24.9340780076909 24.91210401025453 24.9340780076909 24.91210401025453 24.91210401025453 24.91210401025453 24.91210401025453 24.91210401025453 24.890130012818165 24.890130012818165 24.890130012818165 24.890130012818165 24.890130012818165 24.890130012818165 24.890130012818165 24.890130012818165 24.890130012818165 24.890130012818165 24.890130012818165 24.890130012818165 24.890130012818165 24.890130012818165 24.8681560153818 24.8681560153818 24.8681560153818 24.890130012818165 24.8681560153818 24.8681560153818 24.8681560153818 24.890130012818165 24.8681560153818 24.8681560153818 24.8681560153818 24.8681560153818 24.8681560153818 24.8681560153818 24.8681560153818 24.8681560153818 24.8681560153818 24.8681560153818 24.8681560153818 24.8681560153818 24.8681560153818 24.8681560153818 24.8681560153818 24.8681560153818 24.8681560153818 24.8681560153818 24.8681560153818 24.8681560153818 24.8681560153818 24.8681560153818 24.84618201794543 24.84618201794543 24.84618201794543 24.8681560153818 24.84618201794543 24.84618201794543 24.84618201794543 24.84618201794543 24.84618201794543 24.84618201794543 24.84618201794543 24.84618201794543 24.84618201794543 24.84618201794543 24.84618201794543 24.84618201794543 24.84618201794543 24.84618201794543 24.84618201794543 24.84618201794543 24.84618201794543 24.84618201794543 24.84618201794543 24.84618201794543 24.84618201794543 24.84618201794543 24.84618201794543 24.84618201794543 24.84618201794543 24.824208020509065 24.84618201794543 24.84618201794543 24.84618201794543 24.824208020509065 24.824208020509065 24.84618201794543 24.84618201794543 24.824208020509065 24.84618201794543 24.84618201794543 24.84618201794543 24.824208020509065 24.824208020509065 24.824208020509065 24.824208020509065 24.824208020509065 24.84618201794543 24.824208020509065 24.824208020509065 24.824208020509065 24.824208020509065 24.824208020509065 24.824208020509065 24.824208020509065 24.824208020509065 24.824208020509065 24.824208020509065 24.824208020509065 24.824208020509065 24.824208020509065 24.824208020509065 24.824208020509065 24.824208020509065 24.824208020509065 24.824208020509065 24.824208020509065 24.824208020509065 24.824208020509065 24.824208020509065 24.824208020509065 24.824208020509065 24.824208020509065 24.824208020509065 24.824208020509065 24.824208020509065 24.824208020509065 24.824208020509065 24.824208020509065 24.824208020509065 24.824208020509065 24.802234023072696 24.824208020509065 24.824208020509065 24.824208020509065 24.824208020509065 24.824208020509065 24.824208020509065 24.824208020509065 24.824208020509065 24.802234023072696 24.824208020509065 24.824208020509065 24.802234023072696 24.824208020509065 24.824208020509065 24.802234023072696 24.802234023072696 24.802234023072696 24.824208020509065 24.802234023072696 24.802234023072696 24.802234023072696 24.824208020509065 24.802234023072696 24.802234023072696 24.802234023072696 24.802234023072696 24.802234023072696 24.802234023072696 24.802234023072696 24.802234023072696 24.802234023072696 24.802234023072696 24.802234023072696 24.802234023072696 24.802234023072696 24.802234023072696 24.802234023072696 24.802234023072696 24.802234023072696 24.802234023072696 24.802234023072696 24.802234023072696 24.802234023072696 24.802234023072696 24.802234023072696 24.802234023072696 24.802234023072696 24.802234023072696 24.802234023072696 24.802234023072696 24.802234023072696 24.802234023072696 24.802234023072696 24.802234023072696 24.802234023072696 24.824208020509065 24.824208020509065 24.824208020509065 24.824208020509065 24.824208020509065 24.84618201794543 24.8681560153818 24.890130012818165 24.890130012818165 24.91210401025453 24.91210401025453 24.91210401025453 24.9340780076909 24.978026002563634 25.0 25.043947994872735 25.1318439846182 25.175791979490935 25.30763596410914 25.461453946163708 25.571323933345543 25.747115912836477 25.900933894891047 26.36238784105475 26.67002380516389 27.17542574620033 27.702801684673137 28.05438564365501 28.449917597509614 29.240981505218826 29.680461453946165 30.273759384728073 30.954953305255447 31.41640725141915 32.09760117194653 32.800769089910276 33.284197033510345 33.98736495147409 34.47079289507416 35.21790880791064 35.94305072331075 36.73411463101996 37.28346456692913 38.03058047976561 38.57993041567478 39.39296832082036 39.920344259293174 40.90917414392968 41.56839406702069 42.00787401574803 42.51327595678447 43.238417872184584 43.655923823475554 44.6227797106757 45.12818165171214 45.83134956967588 46.600439479948726 47.17176341329427 48.11664530305805 48.44625526460355 49.08350119025819 49.808643105658305 50.29207104925838 51.01721296465848 51.72038088262223 52.40157480314961 53.060794726240616 53.500274674967955 53.961728621131655 54.62094854422267 55.03845449551364 55.85149240065922 56.444790331441126 56.8622962827321 57.47756821095037 57.89507416224135 58.31258011353232 58.90587804431423 59.54312396996887 60.092473905878045 60.68577183665995 61.05932979307819 61.56473173411463 61.89434169566014 62.37776963926021 62.79527559055118 63.10291155466032 63.498443508514924 63.850027467496794 64.09174143929684 64.641091375206 64.86083134956968 65.08057132393334 65.30031129829702 65.49807727522432 65.717817249588 66.06940120856986 66.2451931880608 66.46493316242447 66.61875114447903 66.75059512909723 66.94836110602454 66.99230910089727 67.10217908807911 67.19007507782457 67.21204907526095 67.25599707013367 67.29994506500641 67.34389305987915 67.38784105475187 67.40981505218824 67.45376304706097 67.49771104193371 67.54165903680644 67.56363303424281 67.60758102911555 67.62955502655191 67.65152902398827 67.67350302142464 67.69547701886101 67.71745101629739 67.71745101629739 67.76139901117011 67.78337300860647 67.82732100347921 67.84929500091559 67.87126899835195 67.91521699322467 67.93719099066105 67.98113898553379 68.02508698040651 68.04706097784288 68.09100897271563 68.11298297015199 68.13495696758835 68.15693096502471 68.15693096502471 68.15693096502471 68.15693096502471 68.15693096502471 68.15693096502471 68.15693096502471 68.15693096502471 68.13495696758835 68.13495696758835 68.13495696758835 68.13495696758835 68.13495696758835 68.13495696758835 68.13495696758835 68.13495696758835 68.13495696758835 68.13495696758835 68.13495696758835 68.13495696758835 68.13495696758835 68.13495696758835 68.13495696758835 68.11298297015199 68.11298297015199 68.09100897271563 68.06903497527925 68.04706097784288 68.04706097784288 68.04706097784288 68.02508698040651 68.02508698040651 68.02508698040651 68.02508698040651 68.00311298297015 67.98113898553379 67.95916498809743 67.93719099066105 67.91521699322467 67.89324299578831 67.84929500091559 67.82732100347921 67.76139901117011 67.71745101629739 67.69547701886101 67.65152902398827 67.62955502655191 67.60758102911555 67.60758102911555 67.58560703167919 67.56363303424281 67.54165903680644 67.51968503937007 67.49771104193371 67.47573704449735 67.45376304706097 67.43178904962461 67.43178904962461 67.38784105475187 67.36586705731551 67.32191906244277 67.25599707013367 67.23402307269731 67.1681010803882 67.12415308551547 67.10217908807911 67.08020509064274 67.05823109320637 67.03625709577 67.01428309833364 67.01428309833364 66.99230910089727 66.97033510346091 66.97033510346091 66.97033510346091 66.97033510346091 66.97033510346091 66.94836110602454 66.94836110602454 66.92638710858817 66.9044131111518 66.86046511627907 66.83849111884271 66.79454312396996 66.7725691265336 66.75059512909723 66.75059512909723 66.75059512909723 66.72862113166087 66.75059512909723 66.72862113166087 66.72862113166087 66.72862113166087 66.72862113166087 66.75059512909723 66.75059512909723 66.75059512909723 66.75059512909723 66.75059512909723 66.75059512909723 66.75059512909723 66.75059512909723 66.75059512909723 66.75059512909723 66.75059512909723 66.75059512909723 66.75059512909723 66.75059512909723 66.72862113166087 66.72862113166087 66.75059512909723 66.72862113166087 66.72862113166087 66.75059512909723 66.75059512909723 66.75059512909723 66.72862113166087 66.75059512909723 66.70664713422451 66.70664713422451 66.70664713422451 66.70664713422451 66.70664713422451 66.70664713422451 66.68467313678813 66.6407251419154 66.6407251419154 66.6407251419154 66.6407251419154 66.6407251419154 66.6407251419154 66.6407251419154 66.6407251419154 66.6407251419154 66.6407251419154 66.6407251419154 66.6407251419154 66.6407251419154 66.6407251419154 66.6407251419154 66.59677714704267 66.5748031496063 66.55282915216993 66.5088811572972 66.53085515473356 66.5088811572972 66.48690715986083 66.48690715986083 66.4429591649881 66.39901117011536 66.35506317524263 66.28914118293352 66.22321919062443 66.1792711957517 66.1133492034426 66.04742721113348 65.93755722395166 65.82768723676982 65.717817249588 65.49807727522432 65.36623329060612 65.21241530855156 64.99267533418788 64.79490935726056 64.55319538546054 64.15766343160593 63.93792345724226 63.608313495696756 63.344625526460355 63.124885552096686 62.57553561618751 62.28987364951474 61.87236769822377 61.41091375206006 61.05932979307819 60.444057864859914 60.312213880241714 59.82878593664164 59.34535799304157 59.01574803149606 58.53232008789599 58.02691814685955 57.65336019044131 57.104010254532135 56.488738326313864 56.07123237502289 55.43398644936825 54.92858450833181 54.11554660318623 53.632118659586155 53.03882072880425 52.423548800585976 52.02801684673137 51.63248489287676 50.88536898004028 50.511811023622045 49.984435085149244 49.479033144112805 49.12744918513093 48.66599523896723 48.35835927485809 47.89690532869437 47.43545138253067 47.127815418421534 46.64438747482146 46.13898553378502 45.58963559787585 45.23805163889398 44.86449368247574 44.33711774400293 43.787767808093754 43.414209851675515 42.733015931148145 42.2276139901117 41.87603003112983 41.37062809009339 41.04101812854789 40.645486174693275 40.052188243911374 39.722578282365866 39.21717634132943 38.66782640542025 38.33821644387475 37.67899652078374 37.34938655923823 36.997802600256364 36.536348654092656 36.20673869254715 35.78923274125618 35.39370078740157 34.9761948361106 34.58066288225599 34.16315693096502 33.89946896172862 33.591832997619484 33.284197033510345 32.734847097601175 32.42721113349204 32.03167917963743 31.614173228346456 31.35048525911005 30.976927302691813 30.58139534883721 30.317707379600805 29.8562534334371 29.54861746932796 29.131111518036988 28.69163156930965 28.25215162058231 27.702801684673137 27.570957700054933 27.307269730818533 26.95568577183666 26.867789782091194 26.713971800036624 26.648049807727524 26.60410181285479 26.560153817982055 26.538179820545686 26.51620582310932 26.494231825672955 26.45028383080022 26.42830983336385 26.406335835927486 26.36238784105475 26.318439846182017 26.274491851309286 26.23054385643655 26.164621864127447 26.098699871818347 26.01080388207288 25.878959897454678 25.813037905145578 25.637245925654643 25.549349935909174 25.483427943600073 25.461453946163708 25.461453946163708 25.461453946163708 25.461453946163708 25.461453946163708 25.461453946163708 25.461453946163708 25.461453946163708 25.461453946163708 25.461453946163708 25.43947994872734 25.43947994872734 25.43947994872734 25.417505951290973 25.395531953854604 25.395531953854604 25.37355795641824 25.37355795641824 25.35158395898187 25.35158395898187 25.329609961545504 25.30763596410914 25.28566196667277 25.28566196667277 25.28566196667277 25.28566196667277 25.28566196667277 25.263687969236404 25.263687969236404 25.241713971800035 25.241713971800035 25.21973997436367 25.21973997436367 25.21973997436367 25.197765976927304 25.175791979490935 25.175791979490935 25.175791979490935 25.15381798205457 25.15381798205457 25.15381798205457 25.1318439846182 25.1318439846182 25.109869987181835 25.109869987181835 25.08789598974547 25.08789598974547 25.08789598974547 25.0659219923091 25.0659219923091 25.0659219923091 25.043947994872735 25.043947994872735 25.043947994872735 25.021973997436366 25.021973997436366 25.021973997436366 25.021973997436366 25.0 25.0 25.0 25.0 25.0 25.0 24.978026002563634 25.0 24.978026002563634 24.978026002563634 24.978026002563634 24.978026002563634 24.978026002563634 24.978026002563634 24.956052005127265 24.956052005127265 24.956052005127265 24.956052005127265 24.956052005127265 24.956052005127265 24.956052005127265 24.956052005127265 24.9340780076909 24.9340780076909 24.9340780076909 24.9340780076909 24.9340780076909 24.9340780076909 24.9340780076909 24.91210401025453 24.91210401025453 24.91210401025453 24.890130012818165 24.91210401025453 24.91210401025453 24.91210401025453 24.890130012818165 24.890130012818165 24.890130012818165 24.890130012818165 24.890130012818165 24.890130012818165 24.890130012818165 24.890130012818165 24.890130012818165 24.890130012818165 24.890130012818165 24.890130012818165 24.890130012818165 24.890130012818165 24.890130012818165 24.8681560153818 24.8681560153818 24.890130012818165 24.8681560153818 24.8681560153818 24.8681560153818 24.8681560153818 24.8681560153818 24.8681560153818 24.8681560153818 24.8681560153818 24.8681560153818 24.8681560153818 24.8681560153818 24.84618201794543 24.84618201794543 24.84618201794543 24.84618201794543 24.84618201794543 24.84618201794543 24.84618201794543 24.84618201794543 24.84618201794543 24.84618201794543 24.84618201794543 24.84618201794543 24.84618201794543 24.84618201794543 24.84618201794543 24.824208020509065 24.84618201794543 24.824208020509065 24.84618201794543 24.824208020509065 24.824208020509065 24.84618201794543 24.824208020509065 24.824208020509065 24.824208020509065 24.824208020509065 24.824208020509065 24.824208020509065 24.824208020509065 24.824208020509065 24.824208020509065 24.824208020509065 24.824208020509065 24.824208020509065 24.824208020509065 24.824208020509065 24.824208020509065 24.824208020509065 24.824208020509065 24.824208020509065 24.824208020509065 24.824208020509065 24.824208020509065 24.824208020509065 24.824208020509065 24.824208020509065 24.824208020509065 24.824208020509065 24.824208020509065 24.824208020509065 24.824208020509065 24.824208020509065 24.824208020509065 24.824208020509065 24.824208020509065 24.824208020509065 24.824208020509065 24.824208020509065 24.802234023072696 24.824208020509065 24.824208020509065 24.802234023072696 24.824208020509065 24.824208020509065 24.802234023072696 24.802234023072696 24.802234023072696 24.824208020509065 24.802234023072696 24.802234023072696 24.802234023072696 24.824208020509065 24.802234023072696 24.802234023072696 24.802234023072696 24.802234023072696 24.802234023072696 24.802234023072696 24.802234023072696 24.802234023072696 24.824208020509065 24.802234023072696 24.802234023072696 24.802234023072696 24.802234023072696 24.802234023072696 24.802234023072696 24.802234023072696 24.802234023072696 24.824208020509065 24.802234023072696 24.802234023072696 24.824208020509065 24.824208020509065 24.824208020509065 24.824208020509065 24.824208020509065 24.824208020509065 24.84618201794543 24.84618201794543 24.890130012818165 24.890130012818165 24.890130012818165 24.890130012818165 24.91210401025453 24.890130012818165 24.91210401025453 24.91210401025453 24.91210401025453 24.91210401025453 24.978026002563634 24.978026002563634 25.021973997436366 25.109869987181835 25.197765976927304 25.28566196667277 25.417505951290973 25.483427943600073 25.571323933345543 25.703167917963743 25.791063907709212 25.944881889763778 26.098699871818347 26.36238784105475 26.713971800036624 27.131477751327594 27.461087712873102 27.944515656473172 28.296099615455045 28.867423548800588 29.328877494964292 30.119941402673504 30.757187328328143 31.24061527192822 31.89983519501923 32.36128914118294 32.778795092473906 33.67972898736495 34.11920893609229 34.75645486174693 35.34975279252884 35.76725874381981 36.51437465665629 36.865958615638164 37.195568577183664 37.72294451565647 38.11847646951108 38.60190441311115 39.12928035158396 39.656656290056766 40.227980223402305 40.55759018494781 40.90917414392968 41.43655008240249 41.81010803882073 42.57919794909357 43.128547885002746 43.54605383629372 44.18329976194836 44.64475370811206 45.10620765427578 46.051089544039556 46.57846548251236 47.30360739791247 48.00677531587621 48.49020325947629 49.171397180003666 49.63285112616737 50.336019044131106 50.95129097234938 51.41274491851309 51.98406885185864 52.59934078007691 53.03882072880425 53.80791063907709 54.203442592931694 54.5989745467863 55.10437648782275 55.47793444424098 56.049258377586526 56.77440029298663 57.191906244277604 57.74125618018678 58.09284013916865 58.46639809558689 59.0596960263688 59.367331990477936 59.784837941768906 60.158395898187145 60.40010986998718 60.75169382896905 60.99340780076909 61.41091375206006 61.60867972898736 61.82841970335103 62.09210767258744 62.42171763413294 62.57553561618751 62.79527559055118 63.080937557223955 63.344625526460355 63.542391503387655 63.718183482878594 64.09174143929684 64.26753341878776 64.53122138802416 64.7729353598242 64.92675334187878 65.1684673136788 65.36623329060612 65.49807727522432 65.65189525727888 65.73979124702436 65.80571323933346 65.87163523164256 65.89360922907892 65.93755722395166 65.9815052188244 66.00347921626076 66.06940120856986 66.09137520600623 66.1133492034426 66.13532320087896 66.15729719831532 66.1792711957517 66.22321919062443 66.26716718549716 66.35506317524263 66.377037172679 66.4429591649881 66.4429591649881 66.4429591649881 66.46493316242447 66.46493316242447 66.46493316242447 66.46493316242447 66.46493316242447 66.46493316242447 66.46493316242447 66.4429591649881 66.4429591649881 66.4429591649881 66.4429591649881 66.4429591649881 66.4429591649881 66.46493316242447 66.46493316242447 66.46493316242447 66.48690715986083 66.5088811572972 66.5088811572972 66.53085515473356 66.55282915216993 66.55282915216993 66.55282915216993 66.55282915216993 66.55282915216993 66.55282915216993 66.55282915216993 66.55282915216993 66.55282915216993 66.55282915216993 66.55282915216993 66.55282915216993 66.55282915216993 66.55282915216993 66.55282915216993 66.55282915216993 66.55282915216993 66.55282915216993 66.55282915216993 66.55282915216993 66.55282915216993 66.55282915216993 66.55282915216993 66.5748031496063 66.5748031496063 66.59677714704267 66.61875114447903 66.59677714704267 66.61875114447903 66.59677714704267 66.61875114447903 66.59677714704267 66.59677714704267 66.59677714704267 66.59677714704267 66.5748031496063 66.55282915216993 66.48690715986083 66.46493316242447 66.42098516755172 66.39901117011536 66.377037172679 66.377037172679 66.33308917780627 66.3111151803699 66.28914118293352 66.26716718549716 66.22321919062443 66.22321919062443 66.1792711957517 66.1792711957517 66.1792711957517 66.1792711957517 66.20124519318806 66.1792711957517 66.20124519318806 66.1792711957517 66.20124519318806 66.20124519318806 66.1792711957517 66.20124519318806 66.20124519318806 66.20124519318806 66.20124519318806 66.20124519318806 66.15729719831532 66.1133492034426 66.09137520600623 66.06940120856986 66.04742721113348 66.02545321369712 66.02545321369712 66.02545321369712 66.02545321369712 66.02545321369712 66.00347921626076 66.02545321369712 66.02545321369712 66.00347921626076 66.02545321369712 66.00347921626076 66.02545321369712 66.00347921626076 66.00347921626076 66.00347921626076 66.00347921626076 66.00347921626076 66.00347921626076 66.00347921626076 66.00347921626076 66.00347921626076 66.00347921626076 66.00347921626076 66.00347921626076 66.00347921626076 66.00347921626076 65.9815052188244 65.9815052188244 65.9815052188244 65.9815052188244 65.95953122138803 65.93755722395166 65.91558322651528 65.89360922907892 65.87163523164256 65.87163523164256 65.8496612342062 65.82768723676982 65.82768723676982 65.82768723676982 65.82768723676982 65.82768723676982 65.82768723676982 65.82768723676982 65.82768723676982 65.82768723676982 65.82768723676982 65.82768723676982 65.82768723676982 65.82768723676982 65.8496612342062 65.8496612342062 65.87163523164256 65.87163523164256 65.91558322651528 65.93755722395166 65.95953122138803 65.9815052188244 65.9815052188244 65.9815052188244 65.9815052188244 65.9815052188244 65.9815052188244 65.9815052188244 65.9815052188244 65.9815052188244 65.9815052188244 65.9815052188244 65.9815052188244 65.9815052188244 65.9815052188244 65.9815052188244 65.9815052188244 65.95953122138803 65.95953122138803 65.95953122138803 65.95953122138803 65.9815052188244 65.9815052188244 65.9815052188244 65.9815052188244 65.95953122138803 65.93755722395166 65.82768723676982 65.717817249588 65.45412928035158 65.19044131111518 65.0366233290606 64.68503937007874 64.4433253982787 64.15766343160593 63.652261490569494 63.212781541842155 62.905145577733016 62.44369163156931 62.11408167002381 61.60867972898736 61.25709577000549 60.75169382896905 60.224317890496245 59.894707928950744 59.34535799304157 58.79600805713239 58.24665812122322 57.67533418787768 57.47756821095037 56.8622962827321 56.29097234938656 55.89544039553195 55.10437648782275 54.51107855704083 54.11554660318623 53.54422266984069 53.14869071598608 52.59934078007691 52.09393883904047 51.7423548800586 51.25892693645852 50.79747299029482 50.46786302874931 49.83061710309467 49.43508514924007 49.08350119025819 48.62204724409449 48.27046328511261 47.78703534151254 47.47939937740341 46.908075444057864 46.51254349020326 46.13898553378502 45.89727156198498 45.61160959531222 45.36989562351218 44.86449368247574 44.57883171580296 44.16132576451199 43.721845815784654 43.48013184398462 43.062625892693646 42.71104193371177 42.46932796191174 42.07379600805713 41.81010803882073 41.28273210034792 40.99707013367515 40.71140816700238 40.140084233656836 39.854422266984066 39.546786302874935 39.15125434902033 38.88756637978392 38.47006042849295 37.98663248489288 37.7668925105292 37.45925654642007 37.2395165720564 37.019776597692726 36.58029664896539 36.338582677165356 36.03094671305622 35.70133675151071 35.45962277971068 35.13001281816517 34.80040285661967 34.55868888481963 34.207104925837754 33.96539095403772 33.591832997619484 33.284197033510345 33.04248306171031 32.646951107855706 32.3173411463102 32.22944515656473 31.921809192455594 31.72404321552829 31.394433253982786 31.108771287310017 30.801135323200878 30.537447353964474 30.317707379600805 30.14191540010987 29.746383446255265 29.48269547701886 29.19703351034609 28.867423548800588 28.62570957700055 28.27412561801868 28.010437648782275 27.658853689800402 27.329243728254898 27.10950375389123 26.999633766709394 26.88976377952756 26.80186778978209 26.73594579747299 26.713971800036624 26.67002380516389 26.648049807727524 26.626075810291155 26.626075810291155 26.60410181285479 26.58212781541842 26.538179820545686 26.51620582310932 26.494231825672955 26.406335835927486 26.340413843618386 26.23054385643655 26.120673869254716 26.054751876945616 25.878959897454678 25.813037905145578 25.703167917963743 25.571323933345543 25.50540194103644 25.461453946163708 25.461453946163708 25.461453946163708 25.483427943600073 25.461453946163708 25.461453946163708 25.461453946163708 25.461453946163708 25.43947994872734 25.43947994872734 25.43947994872734 25.417505951290973 25.417505951290973 25.395531953854604 25.37355795641824 25.35158395898187 25.329609961545504 25.30763596410914 25.30763596410914 25.28566196667277 25.28566196667277 25.241713971800035 25.241713971800035 25.241713971800035 25.241713971800035 25.21973997436367 25.21973997436367 25.21973997436367 25.175791979490935 25.15381798205457 25.1318439846182 25.1318439846182 25.109869987181835 25.109869987181835 25.08789598974547 25.0659219923091 25.0659219923091 25.043947994872735 25.043947994872735 25.043947994872735 25.043947994872735 25.043947994872735 25.043947994872735 25.043947994872735 25.021973997436366 25.021973997436366 25.021973997436366 25.0 25.021973997436366 25.0 25.0 25.0 25.0 24.978026002563634 24.978026002563634 24.978026002563634 24.956052005127265 24.956052005127265 24.956052005127265 24.956052005127265 24.9340780076909 24.9340780076909 24.9340780076909 24.9340780076909 24.9340780076909 24.91210401025453 24.91210401025453 24.91210401025453 24.91210401025453 24.91210401025453 24.91210401025453 24.91210401025453 24.91210401025453 24.91210401025453 24.890130012818165 24.890130012818165 24.890130012818165 24.890130012818165 24.890130012818165 24.890130012818165 24.890130012818165 24.890130012818165 24.890130012818165 24.890130012818165 24.890130012818165 24.890130012818165 24.8681560153818 24.8681560153818 24.890130012818165 24.8681560153818 24.8681560153818 24.890130012818165 24.8681560153818 24.8681560153818 24.8681560153818 24.8681560153818 24.8681560153818 24.8681560153818 24.8681560153818 24.8681560153818 24.8681560153818 24.8681560153818 24.8681560153818 24.8681560153818 24.8681560153818 24.8681560153818 24.8681560153818 24.8681560153818 24.8681560153818 24.8681560153818 24.8681560153818 24.8681560153818 24.84618201794543 24.8681560153818 24.84618201794543 24.8681560153818 24.8681560153818 24.8681560153818 24.84618201794543 24.84618201794543 24.8681560153818 24.8681560153818 24.8681560153818 24.8681560153818 24.8681560153818 24.84618201794543 24.84618201794543 24.8681560153818 24.84618201794543 24.84618201794543 24.84618201794543 24.84618201794543 24.84618201794543 24.84618201794543 24.8681560153818 24.8681560153818 24.84618201794543 24.84618201794543 24.8681560153818 24.84618201794543 24.8681560153818 24.84618201794543 24.84618201794543 24.84618201794543 24.84618201794543 24.84618201794543 24.84618201794543 24.84618201794543 24.84618201794543 24.84618201794543 24.84618201794543 24.84618201794543 24.84618201794543 24.84618201794543 24.84618201794543 24.84618201794543 24.84618201794543 24.84618201794543 24.84618201794543 24.84618201794543 24.84618201794543 24.84618201794543 24.84618201794543 24.84618201794543 24.84618201794543 24.84618201794543 24.84618201794543 24.84618201794543 24.84618201794543 24.84618201794543 24.84618201794543 24.84618201794543 24.84618201794543 24.84618201794543 24.84618201794543 24.84618201794543 24.84618201794543 24.84618201794543 24.84618201794543 24.84618201794543 24.84618201794543 24.84618201794543 24.84618201794543 24.84618201794543 24.84618201794543 24.84618201794543 24.84618201794543 24.84618201794543 24.84618201794543 24.84618201794543 24.84618201794543 24.84618201794543 24.84618201794543 24.84618201794543 24.84618201794543 24.84618201794543 24.84618201794543 24.84618201794543 24.84618201794543 24.84618201794543 24.84618201794543 24.84618201794543 24.84618201794543 24.84618201794543 24.84618201794543 24.84618201794543 24.84618201794543 24.84618201794543 24.84618201794543 24.84618201794543 24.84618201794543 24.84618201794543 24.84618201794543 24.84618201794543 24.824208020509065 24.84618201794543 24.84618201794543 24.84618201794543 24.84618201794543 24.824208020509065 24.824208020509065 24.84618201794543 24.84618201794543 24.84618201794543 24.824208020509065 24.824208020509065 24.824208020509065 24.84618201794543 24.84618201794543 24.824208020509065 24.84618201794543 24.84618201794543 24.84618201794543 24.84618201794543 24.84618201794543 24.824208020509065 24.84618201794543 24.824208020509065 24.84618201794543 24.824208020509065 24.84618201794543 24.84618201794543 24.84618201794543 24.824208020509065 24.824208020509065 24.84618201794543 24.84618201794543 24.84618201794543 24.84618201794543 24.84618201794543 24.84618201794543 24.84618201794543 24.84618201794543 24.84618201794543 24.84618201794543 24.8681560153818 24.8681560153818 24.8681560153818 24.8681560153818 24.8681560153818 24.8681560153818 24.890130012818165 24.890130012818165 24.890130012818165 24.890130012818165 24.890130012818165 24.890130012818165 24.91210401025453 24.9340780076909 24.978026002563634 25.0 25.0659219923091 25.109869987181835 25.197765976927304 25.37355795641824 25.417505951290973 25.549349935909174 25.681193920527377 25.966855887200147 26.120673869254716 26.472257828236586 26.933711774400294 27.329243728254898 27.768723676982237 28.53781358725508 28.97729353598242 29.680461453946165 30.36165537447354 30.801135323200878 31.482329243728255 32.09760117194653 32.53708112067387 33.174327046328514 33.61380699505585 34.27302691814686 34.95422083867423 35.43764878227431 36.03094671305622 36.690166636147225 37.1076725874382 37.74491851309284 38.16242446438381 38.99743636696576 39.678630287493135 40.162058231093205 40.90917414392968 41.45852407983885 42.33748397729354 43.150521882439115 44.05145577733016 44.66672770554844 45.58963559787585 46.248855520966856 47.54532136971251 48.53415125434902 48.86376121589453 49.852591100531036 50.48983702618568 51.41274491851309 52.59934078007691 53.14869071598608 53.961728621131655 54.5330525544772 55.03845449551364 56.07123237502289 56.64255630836843 57.34572422633217 58.09284013916865 58.59824208020509 59.301409998168836 59.82878593664164 60.290239882805345 61.16919978026002 61.60867972898736 62.26789965207837 62.971067570042116 63.344625526460355 64.00384544955136 64.48727339315144 65.05859732649698 65.67386925471524 66.06940120856986 66.6407251419154 67.21204907526095 67.58560703167919 68.26680095220655 68.61838491118843 68.94799487273393 69.431422816334 69.7610327778795 70.22248672404322 70.81578465482514 71.12342061893426 71.4969785753525 71.73869254715254 71.95843252151622 72.26606848562534 72.37593847280718 72.48580845998902 72.52975645486175 72.52975645486175 72.52975645486175 72.52975645486175 72.52975645486175 72.50778245742538 72.50778245742538 72.48580845998902 72.44186046511629 72.4198864676799 72.39791247024354 72.39791247024354 72.39791247024354 72.39791247024354 72.39791247024354 72.35396447537082 72.2880424830617 72.24409448818898 72.1561984984435 72.11225050357078 72.0243545138253 71.98040651895258 71.95843252151622 71.93645852407984 71.91448452664348 71.8925105292071 71.8925105292071 71.8925105292071 71.8925105292071 71.8925105292071 71.8925105292071 71.91448452664348 71.87053653177074 71.82658853689802 71.78264054202528 71.73869254715254 71.60684856253434 71.54092657022522 71.47500457791614 71.3651345907343 71.32118659586156 71.25526460355246 71.21131660867974 71.21131660867974 71.18934261124336 71.18934261124336 71.18934261124336 71.18934261124336 71.18934261124336 71.18934261124336 71.18934261124336 71.18934261124336 71.18934261124336 71.18934261124336 71.167368613807 71.167368613807 71.14539461637062 71.12342061893426 71.07947262406154 71.07947262406154 71.0355246291888 71.01355063175242 70.99157663431606 70.92565464200696 70.9036806445706 70.85973264969786 70.8377586522615 70.81578465482514 70.77183665995238 70.74986266251602 70.70591466764328 70.63999267533418 70.59604468046146 70.53012268815235 70.46420069584326 70.39827870353415 70.35433070866142 70.31038271378868 70.26643471891595 70.20051272660686 70.17853872917048 70.13459073429775 70.06866874198866 70.04669474455227 70.00274674967955 69.95879875480682 69.93682475737045 69.84892876762498 69.8269547701886 69.7610327778795 69.6951107855704 69.65116279069767 69.58524079838858 69.54129280351583 69.4973448086431 69.45339681377037 69.431422816334 69.38747482146127 69.32155282915217 69.2995788317158 69.2336568394067 69.21168284197034 69.18970884453397 69.16773484709759 69.14576084966123 69.12378685222487 69.12378685222487 69.1018128547885 69.1018128547885 69.07983885735213 69.07983885735213 69.05786485991577 69.05786485991577 69.05786485991577 69.07983885735213 69.05786485991577 69.05786485991577 69.05786485991577 69.03589086247939 69.03589086247939 69.03589086247939 69.03589086247939 68.99194286760667 68.99194286760667 68.9699688701703 68.94799487273393 68.92602087529757 68.88207288042483 68.86009888298847 68.75022889580663 68.68430690349753 68.64035890862479 68.57443691631569 68.53048892144295 68.48654092657023 68.42061893426111 68.37667093938839 68.31074894707929 68.26680095220655 68.24482695477019 68.22285295733383 68.20087895989745 68.17890496246109 68.17890496246109 68.15693096502471 68.15693096502471 68.15693096502471 68.15693096502471 68.15693096502471 68.15693096502471 68.17890496246109 68.17890496246109 68.17890496246109 68.17890496246109 68.20087895989745 68.20087895989745 68.20087895989745 68.20087895989745 68.20087895989745 68.17890496246109 68.17890496246109 68.17890496246109 68.15693096502471 68.13495696758835 68.06903497527925 68.04706097784288 68.02508698040651 68.00311298297015 67.98113898553379 67.93719099066105 67.91521699322467 67.89324299578831 67.87126899835195 67.87126899835195 67.87126899835195 67.87126899835195 67.84929500091559 67.82732100347921 67.82732100347921 67.82732100347921 67.84929500091559 67.82732100347921 67.82732100347921 67.80534700604285 67.78337300860647 67.76139901117011 67.73942501373375 67.71745101629739 67.69547701886101 67.69547701886101 67.69547701886101 67.69547701886101 67.67350302142464 67.69547701886101 67.69547701886101 67.69547701886101 67.69547701886101 67.71745101629739 67.71745101629739 67.71745101629739 67.71745101629739 67.73942501373375 67.73942501373375 67.73942501373375 67.73942501373375 67.73942501373375 67.73942501373375 67.71745101629739 67.71745101629739 67.69547701886101 67.69547701886101 67.67350302142464 67.65152902398827 67.62955502655191 67.62955502655191 67.60758102911555 67.60758102911555 67.60758102911555 67.60758102911555 67.60758102911555 67.60758102911555 67.60758102911555 67.58560703167919 67.56363303424281 67.56363303424281 67.54165903680644 67.54165903680644 67.54165903680644 67.51968503937007 67.51968503937007 67.49771104193371 67.47573704449735 67.47573704449735 67.45376304706097 67.45376304706097 67.45376304706097 67.45376304706097 67.43178904962461 67.43178904962461 67.43178904962461 67.43178904962461 67.43178904962461 67.43178904962461 67.43178904962461 67.43178904962461 67.43178904962461 67.45376304706097 67.43178904962461 67.43178904962461 67.43178904962461 67.43178904962461 67.40981505218824 67.38784105475187 67.38784105475187 67.36586705731551 67.34389305987915 67.34389305987915 67.29994506500641 67.29994506500641 67.27797106757004 67.25599707013367 67.25599707013367 67.25599707013367 67.23402307269731 67.21204907526095 67.21204907526095 67.21204907526095 67.21204907526095 67.21204907526095 67.21204907526095 67.21204907526095 67.21204907526095 67.19007507782457 67.19007507782457 67.19007507782457 67.1681010803882 67.19007507782457 67.19007507782457 67.1681010803882 67.19007507782457 67.19007507782457 67.1681010803882 67.1681010803882 67.14612708295184 67.14612708295184 67.12415308551547 67.10217908807911 67.05823109320637 67.03625709577 67.01428309833364 66.99230910089727 66.94836110602454 66.92638710858817 66.9044131111518 66.88243911371544 66.86046511627907 66.86046511627907 66.86046511627907 66.86046511627907 66.86046511627907 66.86046511627907 66.86046511627907 66.86046511627907 66.88243911371544 66.88243911371544 66.88243911371544 66.88243911371544 66.88243911371544 66.88243911371544 66.88243911371544 66.9044131111518 66.9044131111518 66.92638710858817 66.92638710858817 66.92638710858817 66.92638710858817 66.92638710858817 66.92638710858817 66.92638710858817 66.92638710858817 66.92638710858817 66.92638710858817 66.92638710858817 66.92638710858817 66.92638710858817 66.92638710858817 66.94836110602454 66.97033510346091 66.99230910089727 67.01428309833364 67.03625709577 67.03625709577 67.05823109320637 67.05823109320637 67.05823109320637 67.05823109320637 67.05823109320637 67.05823109320637 67.05823109320637 67.05823109320637 67.05823109320637 67.05823109320637 67.03625709577 67.05823109320637 67.03625709577 67.05823109320637 67.05823109320637 67.05823109320637 67.05823109320637 67.05823109320637 67.05823109320637 67.05823109320637 67.05823109320637 67.03625709577 67.03625709577 66.99230910089727 66.9044131111518 66.75059512909723 66.59677714704267 66.46493316242447 66.26716718549716 66.09137520600623 65.89360922907892 65.52005127266068 65.27833730086064 64.92675334187878 64.53122138802416 64.2455594213514 63.828053470060425 63.410547518769455 63.080937557223955 62.68540560336935 62.42171763413294 62.02618568027834 61.47683574436916 61.21314777513276 60.77366782640542 60.46603186229628 60.114447903314414 59.69694195202344 59.367331990477936 58.66416407251419 58.13678813404138 57.76323017762314 57.235854239150335 56.818348287859365 56.422816334004764 55.71964841604102 55.32411646218641 54.73081853140451 54.137520600622594 53.74198864676799 53.170664713422454 52.81908075444058 52.2697308185314 51.83025086980406 51.4786669108222 51.03918696209485 50.577733015931145 50.270097051822006 49.610877128731005 49.2812671671855 48.75389122871269 48.40230726973082 47.83098333638527 47.30360739791247 46.995971433803334 46.33675151071232 45.47976561069402 45.32594762863944 44.73264969785754 44.22724775682109 43.87566379783922 43.348287859366415 42.71104193371177 42.35945797472991 42.0298480131844 41.70023805163889 41.17286211316609 40.88720014649331 40.55759018494781 39.810474272111335 39.744552279802235 39.34902032594763 38.95348837209302 38.49203442592932 38.03058047976561 37.7009705182201 37.393334554110965 36.756088628456325 36.426478666910825 35.96502472074712 35.54751876945615 35.26185680278337 34.7784288591833 34.55868888481963 34.36092290789233 34.075260941219554 33.92144295916499 33.67972898736495 33.306171030946714 33.174327046328514 32.95458707196484 32.69089910272844 32.5151071232375 32.27339315143747 32.03167917963743 31.78996520783739 31.57022523347372 31.41640725141915 31.174693279619117 30.998901300128182 30.845083318073613 30.493499359091743 30.29573338216444 29.9880974180553 29.680461453946165 29.438747482146127 28.97729353598242 28.71360556674602 28.449917597509614 28.05438564365501 27.790697674418606 27.373191723127633 26.95568577183666 26.845815784654825 26.73594579747299 26.626075810291155 26.538179820545686 26.45028383080022 26.36238784105475 26.29646584874565 26.252517853872916 26.23054385643655 26.186595861563816 26.186595861563816 26.14264786669108 26.120673869254716 26.07672587438198 26.032777879509247 25.966855887200147 25.900933894891047 25.769089910272843 25.637245925654643 25.593297930781908 25.483427943600073 25.483427943600073 25.483427943600073 25.461453946163708 25.461453946163708 25.461453946163708 25.461453946163708 25.461453946163708 25.461453946163708 25.43947994872734 25.43947994872734 25.417505951290973 25.417505951290973 25.417505951290973 25.395531953854604 25.395531953854604 25.37355795641824 25.395531953854604 25.395531953854604 25.37355795641824 25.37355795641824 25.35158395898187 25.35158395898187 25.329609961545504 25.329609961545504 25.30763596410914 25.28566196667277 25.28566196667277 25.263687969236404 25.241713971800035 25.241713971800035 25.241713971800035 25.21973997436367 25.21973997436367 25.21973997436367 25.21973997436367 25.21973997436367 25.197765976927304 25.175791979490935 25.175791979490935 25.175791979490935 25.15381798205457 25.15381798205457 25.15381798205457 25.15381798205457 25.1318439846182 25.1318439846182 25.1318439846182 25.1318439846182 25.109869987181835 25.109869987181835 25.109869987181835 25.08789598974547 25.08789598974547 25.08789598974547 25.0659219923091 25.0659219923091 25.0659219923091 25.043947994872735 25.043947994872735 25.043947994872735 25.021973997436366 25.021973997436366 25.021973997436366 25.021973997436366 25.0 25.021973997436366 25.0 25.0 24.978026002563634 25.0 25.0 24.978026002563634 24.978026002563634 24.978026002563634 24.956052005127265 24.956052005127265 24.956052005127265 24.9340780076909 24.9340780076909 24.9340780076909 24.91210401025453 24.91210401025453 24.91210401025453 24.91210401025453 24.890130012818165 24.890130012818165 24.890130012818165 24.890130012818165 24.890130012818165 24.890130012818165 24.890130012818165 24.8681560153818 24.8681560153818 24.8681560153818 24.8681560153818 24.84618201794543 24.8681560153818 24.84618201794543 24.84618201794543 24.84618201794543 24.84618201794543 24.84618201794543 24.824208020509065 24.824208020509065 24.824208020509065 24.824208020509065 24.824208020509065 24.824208020509065 24.824208020509065 24.824208020509065 24.802234023072696 24.802234023072696 24.802234023072696 24.802234023072696 24.802234023072696 24.802234023072696 24.802234023072696 24.802234023072696 24.802234023072696 24.802234023072696 24.802234023072696 24.802234023072696 24.802234023072696 24.802234023072696 24.78026002563633 24.802234023072696 24.802234023072696 24.802234023072696 24.802234023072696 24.78026002563633 24.78026002563633 24.78026002563633 24.78026002563633 24.78026002563633 24.78026002563633 24.78026002563633 24.78026002563633 24.78026002563633 24.78026002563633 24.758286028199965 24.78026002563633 24.78026002563633 24.758286028199965 24.758286028199965 24.758286028199965 24.758286028199965 24.758286028199965 24.758286028199965 24.758286028199965 24.758286028199965 24.758286028199965 24.78026002563633 24.758286028199965 24.758286028199965 24.78026002563633 24.758286028199965 24.758286028199965 24.758286028199965 24.758286028199965 24.758286028199965 24.758286028199965 24.758286028199965 24.758286028199965 24.758286028199965 24.758286028199965 24.758286028199965 24.758286028199965 24.758286028199965 24.758286028199965 24.758286028199965 24.758286028199965 24.758286028199965 24.758286028199965 24.758286028199965 24.78026002563633 24.758286028199965 24.78026002563633 24.78026002563633 24.78026002563633 24.78026002563633 24.78026002563633 24.78026002563633 24.78026002563633 24.78026002563633 24.78026002563633 24.78026002563633 24.802234023072696 24.78026002563633 24.802234023072696 24.78026002563633 24.78026002563633 24.78026002563633 24.802234023072696 24.802234023072696 24.802234023072696 24.802234023072696 24.802234023072696 24.802234023072696 24.802234023072696 24.802234023072696 24.802234023072696 24.802234023072696 24.802234023072696 24.824208020509065 24.824208020509065 24.84618201794543 24.8681560153818 24.8681560153818 24.8681560153818 24.8681560153818 24.8681560153818 24.890130012818165 24.91210401025453 24.9340780076909 25.0 25.109869987181835 25.197765976927304 25.241713971800035 25.30763596410914 25.483427943600073 25.593297930781908 25.835011902581943 26.054751876945616 26.318439846182017 26.757919794909355 27.10950375389123 27.614905694927668 28.142281633400476 28.53781358725508 29.109137520600623 29.944149423182566 30.185863394982604 31.30653726423732 31.57022523347372 32.2514191540011 32.734847097601175 33.503937007874015 34.22907892327412 34.9761948361106 35.48159677714705 36.492400659219925 36.865958615638164 37.415308551547334 38.27229445156565 38.79967039003846 39.5687603003113 40.29390221571141 40.79930415674785 41.56839406702069 42.33748397729354 42.82091192089361 43.568027833730085 44.05145577733016 44.77659769273027 45.83134956967588 46.292803515839594 46.776231459439664 47.30360739791247 48.09467130562168 48.81981322102179 49.3471891594946 50.379967039003844 51.19300494414942 51.7423548800586 52.55539278520418 53.126716718549716 53.763962644204355 54.84068851858634 55.45596044680461 56.33492034425929 57.191906244277604 57.78520417505951 58.90587804431423 59.41127998535067 59.982603918696206 60.77366782640542 61.30104376487823 62.02618568027834 62.971067570042116 63.454495513642186 64.15766343160593 64.641091375206 65.25636330342428 65.67386925471524 66.09137520600623 66.88243911371544 67.29994506500641 67.87126899835195 68.44259293169749 68.86009888298847 69.431422816334 69.7610327778795 70.06866874198866 70.50814869071598 70.81578465482514 71.21131660867974 71.7606665445889 72.04632851126168 72.4198864676799 72.63962644204358 72.88134041384362 73.16700238051638 73.3647683574437 73.73832631386193 73.8262223036074 73.8921442959165 73.95806628822561 73.98004028566197 73.98004028566197 73.98004028566197 73.98004028566197 73.98004028566197 73.98004028566197 73.95806628822561 73.91411829335286 73.87017029848013 73.8262223036074 73.80424830617103 73.80424830617103 73.80424830617103 73.78227430873466 73.78227430873466 73.73832631386193 73.67240432155283 73.60648232924373 73.54056033693463 73.45266434718917 73.3647683574437 73.2329243728255 73.16700238051638 73.07910639077092 73.03515839589818 72.9692364035891 72.8373924189709 72.74949642922542 72.66160043947995 72.59567844717085 72.52975645486175 72.46383446255265 72.37593847280718 72.31001648049809 72.24409448818898 72.17817249587988 72.09027650613442 72.0243545138253 71.95843252151622 71.91448452664348 71.87053653177074 71.82658853689802 71.80461453946164 71.80461453946164 71.78264054202528 71.7606665445889 71.73869254715254 71.73869254715254 71.71671854971618 71.71671854971618 71.67277055484342 71.65079655740706 71.60684856253434 71.56290056766161 71.51895257278886 71.45303058047976 71.40908258560702 71.32118659586156 71.21131660867974 71.14539461637062 71.07947262406154 71.0355246291888 71.01355063175242 71.01355063175242 70.99157663431606 70.99157663431606 70.9696026368797 70.94762863944334 70.94762863944334 70.92565464200696 70.92565464200696 70.9036806445706 70.88170664713422 70.9036806445706 70.88170664713422 70.88170664713422 70.85973264969786 70.85973264969786 70.85973264969786 70.85973264969786 70.85973264969786 70.85973264969786 70.85973264969786 70.85973264969786 70.85973264969786 70.8377586522615 70.81578465482514 70.77183665995238 70.74986266251602 70.72788866507966 70.70591466764328 70.68394067020692 70.66196667277055 70.63999267533418 70.61801867789782 70.59604468046146 70.57407068302508 70.55209668558872 70.53012268815235 70.50814869071598 70.50814869071598 70.50814869071598 70.50814869071598 70.50814869071598 70.50814869071598 70.50814869071598 70.50814869071598 70.50814869071598 70.50814869071598 70.50814869071598 70.50814869071598 70.50814869071598 70.50814869071598 70.50814869071598 70.48617469327962 70.46420069584326 70.44222669840688 70.42025270097052 70.39827870353415 70.37630470609778 70.35433070866142 70.31038271378868 70.26643471891595 70.26643471891595 70.24446072147958 70.24446072147958 70.24446072147958 70.24446072147958 70.24446072147958 70.22248672404322 70.22248672404322 70.22248672404322 70.20051272660686 70.20051272660686 70.20051272660686 70.20051272660686 70.20051272660686 70.17853872917048 70.17853872917048 70.15656473173412 70.11261673686138 70.06866874198866 70.04669474455227 70.02472074711591 70.00274674967955 70.00274674967955 69.98077275224318 69.98077275224318 69.95879875480682 69.95879875480682 69.93682475737045 69.91485075993407 69.91485075993407 69.8928767624977 69.87090276506135 69.87090276506135 69.8269547701886 69.80498077275224 69.80498077275224 69.7610327778795 69.7610327778795 69.73905878044314 69.71708478300678 69.6951107855704 69.65116279069767 69.6291887932613 69.58524079838858 69.5632668009522 69.54129280351583 69.54129280351583 69.54129280351583 69.54129280351583 69.54129280351583 69.54129280351583 69.54129280351583 69.54129280351583 69.54129280351583 69.54129280351583 69.54129280351583 69.54129280351583 69.54129280351583 69.54129280351583 69.54129280351583 69.51931880607947 69.4973448086431 69.47537081120674 69.45339681377037 69.431422816334 69.40944881889763 69.3655008240249 69.34352682658854 69.2995788317158 69.27760483427943 69.21168284197034 69.16773484709759 69.14576084966123 69.07983885735213 69.05786485991577 69.03589086247939 69.03589086247939 69.01391686504303 69.01391686504303 69.01391686504303 69.01391686504303 69.01391686504303 68.99194286760667 68.9699688701703 68.92602087529757 68.92602087529757 68.88207288042483 68.86009888298847 68.81615088811573 68.79417689067935 68.75022889580663 68.72825489837027 68.68430690349753 68.66233290606115 68.64035890862479 68.64035890862479 68.59641091375207 68.59641091375207 68.57443691631569 68.55246291887933 68.55246291887933 68.55246291887933 68.57443691631569 68.57443691631569 68.59641091375207 68.57443691631569 68.59641091375207 68.57443691631569 68.57443691631569 68.57443691631569 68.57443691631569 68.55246291887933 68.57443691631569 68.57443691631569 68.55246291887933 68.55246291887933 68.55246291887933 68.57443691631569 68.57443691631569 68.57443691631569 68.55246291887933 68.57443691631569 68.57443691631569 68.57443691631569 68.59641091375207 68.59641091375207 68.59641091375207 68.61838491118843 68.61838491118843 68.61838491118843 68.61838491118843 68.64035890862479 68.64035890862479 68.64035890862479 68.64035890862479 68.64035890862479 68.64035890862479 68.66233290606115 68.66233290606115 68.66233290606115 68.66233290606115 68.64035890862479 68.64035890862479 68.64035890862479 68.66233290606115 68.64035890862479 68.64035890862479 68.61838491118843 68.61838491118843 68.61838491118843 68.59641091375207 68.59641091375207 68.57443691631569 68.55246291887933 68.55246291887933 68.53048892144295 68.53048892144295 68.53048892144295 68.50851492400659 68.50851492400659 68.53048892144295 68.53048892144295 68.53048892144295 68.53048892144295 68.53048892144295 68.53048892144295 68.53048892144295 68.53048892144295 68.53048892144295 68.53048892144295 68.55246291887933 68.55246291887933 68.55246291887933 68.57443691631569 68.57443691631569 68.57443691631569 68.57443691631569 68.59641091375207 68.59641091375207 68.59641091375207 68.59641091375207 68.57443691631569 68.57443691631569 68.57443691631569 68.55246291887933 68.50851492400659 68.44259293169749 68.35469694195203 68.26680095220655 68.09100897271563 67.89324299578831 67.71745101629739 67.34389305987915 67.12415308551547 66.88243911371544 66.5088811572972 66.22321919062443 65.60794726240616 65.10254532136972 64.70701336751512 64.15766343160593 63.74015748031496 63.146859549533055 62.50961362387841 62.07013367515107 61.43288774949643 60.795641823841784 60.356161875114445 59.740889946896175 59.3233839956052 58.51034609045962 58.11481413660502 57.74125618018678 57.169932246841235 56.598608313495696 56.26899835195019 55.56583043398645 55.19227247756821 54.6648965390954 54.335286577549894 53.98370261856803 53.302508698040654 52.928950741622415 52.48947079289508 52.04999084416774 51.76432887749496 51.32484892876762 50.88536898004028 50.599707013367514 50.182201062076544 49.940487090276505 49.56692913385827 49.237319172312766 49.03955319538546 48.75389122871269 48.44625526460355 48.24848928767625 47.89690532869437 47.36952939022157 46.973997436366965 46.64438747482146 46.314777513275956 45.87529756454862 45.63358359274858 45.30397363120308 44.79857169016664 44.3590917414393 43.941585790148324 43.502105841420985 43.194469877311846 42.62314594396631 42.33748397729354 42.07379600805713 41.70023805163889 41.41457608496612 41.019044131111514 40.469694195202344 40.030214246475005 39.722578282365866 39.4369163156931 39.15125434902033 38.73374839772936 38.33821644387475 38.00860648232924 37.7009705182201 37.48123054385644 37.2395165720564 36.975828602819995 36.822010620765425 36.558322651529025 36.38253067203809 36.118842702801686 35.85515473356528 35.65738875663798 35.26185680278337 35.02014283098333 34.82237685405603 34.47079289507416 34.22907892327412 33.81157297198315 33.39406702069218 32.88866507965574 32.5151071232375 32.20747115912837 31.921809192455594 31.482329243728255 31.174693279619117 30.58139534883721 30.14191540010987 29.812305438564366 29.438747482146127 29.175059512909723 28.801501556491484 28.427943600073245 28.208203625709576 27.87859366416407 27.548983702618568 27.197399743636698 26.999633766709394 26.911737776963925 26.845815784654825 26.779893792345725 26.713971800036624 26.67002380516389 26.60410181285479 26.560153817982055 26.472257828236586 26.42830983336385 26.38436183849112 26.340413843618386 26.29646584874565 26.14264786669108 26.054751876945616 26.01080388207288 25.878959897454678 25.835011902581943 25.703167917963743 25.593297930781908 25.571323933345543 25.549349935909174 25.527375938472808 25.549349935909174 25.527375938472808 25.527375938472808 25.50540194103644 25.483427943600073 25.483427943600073 25.483427943600073 25.461453946163708 25.43947994872734 25.43947994872734 25.417505951290973 25.417505951290973 25.417505951290973 25.395531953854604 25.37355795641824 25.329609961545504 25.329609961545504 25.329609961545504 25.30763596410914 25.30763596410914 25.28566196667277 25.263687969236404 25.263687969236404 25.263687969236404 25.241713971800035 25.241713971800035 25.241713971800035 25.241713971800035 25.21973997436367 25.197765976927304 25.197765976927304 25.175791979490935 25.15381798205457 25.15381798205457 25.15381798205457 25.1318439846182 25.109869987181835 25.109869987181835 25.08789598974547 25.0659219923091 25.043947994872735 25.021973997436366 25.021973997436366 24.978026002563634 24.956052005127265 24.956052005127265 24.91210401025453 24.91210401025453 24.8681560153818 24.8681560153818 24.8681560153818 24.84618201794543 24.84618201794543 24.84618201794543 24.84618201794543 24.84618201794543 24.84618201794543 24.84618201794543 24.84618201794543 24.84618201794543 24.84618201794543 24.84618201794543 24.84618201794543 24.84618201794543 24.824208020509065 24.824208020509065 24.824208020509065 24.824208020509065 24.824208020509065 24.824208020509065 24.824208020509065 24.824208020509065 24.824208020509065 24.824208020509065 24.824208020509065 24.824208020509065 24.824208020509065 24.824208020509065 24.824208020509065 24.824208020509065 24.824208020509065 24.824208020509065 24.802234023072696 24.824208020509065 24.824208020509065 24.824208020509065 24.824208020509065 24.824208020509065 24.824208020509065 24.802234023072696 24.802234023072696 24.802234023072696 24.802234023072696 24.802234023072696 24.824208020509065 24.824208020509065 24.824208020509065 24.824208020509065 24.824208020509065 24.824208020509065 24.824208020509065 24.802234023072696 24.802234023072696 24.802234023072696 24.824208020509065 24.824208020509065 24.824208020509065 24.824208020509065 24.824208020509065 24.824208020509065 24.824208020509065 24.802234023072696 24.802234023072696 24.802234023072696 24.802234023072696 24.802234023072696 24.802234023072696 24.802234023072696 24.824208020509065 24.802234023072696 24.802234023072696 24.802234023072696 24.802234023072696 24.824208020509065 24.802234023072696 24.802234023072696 24.802234023072696 24.802234023072696 24.802234023072696 24.824208020509065 24.802234023072696 24.802234023072696 24.802234023072696 24.802234023072696 24.802234023072696 24.802234023072696 24.802234023072696 24.802234023072696 24.802234023072696 24.802234023072696 24.802234023072696 24.802234023072696 24.802234023072696 24.802234023072696 24.802234023072696 24.802234023072696 24.802234023072696 24.802234023072696 24.802234023072696 24.802234023072696 24.802234023072696 24.802234023072696 24.802234023072696 24.802234023072696 24.802234023072696 24.824208020509065 24.802234023072696 24.824208020509065 24.802234023072696 24.802234023072696 24.802234023072696 24.802234023072696 24.802234023072696 24.802234023072696 24.802234023072696 24.802234023072696 24.802234023072696 24.802234023072696 24.802234023072696 24.802234023072696 24.802234023072696 24.802234023072696 24.802234023072696 24.802234023072696 24.802234023072696 24.802234023072696 24.802234023072696 24.802234023072696 24.802234023072696 24.802234023072696 24.802234023072696 24.802234023072696 24.802234023072696 24.802234023072696 24.802234023072696 24.802234023072696 24.802234023072696 24.802234023072696 24.802234023072696 24.802234023072696 24.802234023072696 24.802234023072696 24.802234023072696 24.802234023072696 24.802234023072696 24.802234023072696 24.802234023072696 24.802234023072696 24.802234023072696 24.78026002563633 24.802234023072696 24.802234023072696 24.802234023072696 24.802234023072696 24.802234023072696 24.802234023072696 24.802234023072696 24.802234023072696 24.802234023072696 24.802234023072696 24.802234023072696 24.802234023072696 24.802234023072696 24.802234023072696 24.802234023072696 24.802234023072696 24.802234023072696 24.802234023072696 24.802234023072696 24.802234023072696 24.78026002563633 24.802234023072696 24.802234023072696 24.78026002563633 24.802234023072696 24.802234023072696 24.802234023072696 24.802234023072696 24.802234023072696 24.802234023072696 24.78026002563633 24.802234023072696 24.802234023072696 24.802234023072696 24.802234023072696 24.802234023072696 24.802234023072696 24.78026002563633 24.802234023072696 24.78026002563633 24.802234023072696 24.78026002563633 24.78026002563633 24.78026002563633 24.802234023072696 24.78026002563633 24.802234023072696 24.802234023072696 24.802234023072696 24.78026002563633 24.802234023072696 24.802234023072696 24.78026002563633 24.802234023072696 24.78026002563633 24.802234023072696 24.78026002563633 24.78026002563633 24.802234023072696 24.78026002563633 24.802234023072696 24.802234023072696 24.802234023072696 24.802234023072696 24.802234023072696 24.824208020509065 24.824208020509065 24.824208020509065 24.824208020509065 24.824208020509065 24.824208020509065 24.84618201794543 24.84618201794543 24.84618201794543 24.8681560153818 24.8681560153818 24.84618201794543 24.8681560153818 24.8681560153818 24.890130012818165 24.91210401025453 24.91210401025453 24.978026002563634 25.021973997436366 25.15381798205457 25.241713971800035 25.329609961545504 25.43947994872734 25.527375938472808 25.681193920527377 25.856985900018312 25.988829884636512 26.186595861563816 26.494231825672955 26.757919794909355 27.131477751327594 27.527009705182202 27.834645669291337 28.27412561801868 28.603735579564184 29.087163523164257 29.570591466764327 29.9221754257462 30.603369346273574 31.020875297564547 31.35048525911005 31.94378318989196 32.36128914118294 33.218275041201245 33.855520966855885 34.31697491301959 34.9761948361106 35.41567478483794 35.94305072331075 36.492400659219925 37.327412561801864 37.7668925105292 38.20637245925654 38.68980040285662 39.34902032594763 40.030214246475005 40.71140816700238 41.12891411829335 41.61234206189343 42.31550997985717 43.348287859366415 43.941585790148324 44.53488372093023 45.28199963376671 45.853323567112255 46.995971433803334 47.61124336202161 48.49020325947629 49.4131111518037 50.006409082585606 50.92931697491302 51.52261490569492 52.2038088262223 53.192638710858816 53.80791063907709 54.48910455960447 55.21424647500458 55.71964841604102 56.664530305804796 56.950192272477565 57.63138619300494 58.33455411096869 58.79600805713239 59.4552279802234 60.290239882805345 60.75169382896905 61.30104376487823 61.69657571873283 62.07013367515107 62.64145760849661 63.256729536714886 63.850027467496794 64.48727339315144 64.94872733931514 65.60794726240616 66.04742721113348 66.66269913935176 67.23402307269731 67.60758102911555 68.02508698040651 68.37667093938839 68.59641091375207 68.81615088811573 68.99194286760667 69.1018128547885 69.21168284197034 69.27760483427943 69.34352682658854 69.40944881889763 69.45339681377037 69.47537081120674 69.4973448086431 69.51931880607947 69.51931880607947 69.54129280351583 69.5632668009522 69.60721479582494 69.60721479582494 69.6291887932613 69.6291887932613 69.6291887932613 69.6291887932613 69.60721479582494 69.60721479582494 69.6291887932613 69.60721479582494 69.60721479582494 69.60721479582494 69.60721479582494 69.60721479582494 69.60721479582494 69.60721479582494 69.60721479582494 69.60721479582494 69.58524079838858 69.58524079838858 69.54129280351583 69.4973448086431 69.40944881889763 69.34352682658854 69.32155282915217 69.27760483427943 69.25563083684307 69.25563083684307 69.25563083684307 69.2336568394067 69.2336568394067 69.21168284197034 69.18970884453397 69.18970884453397 69.16773484709759 69.14576084966123 69.1018128547885 69.07983885735213 69.05786485991577 69.01391686504303 68.99194286760667 68.9699688701703 68.9699688701703 68.9699688701703 68.99194286760667 68.99194286760667 68.9699688701703 68.99194286760667 68.99194286760667 68.99194286760667 68.99194286760667 68.99194286760667 68.9699688701703 68.9699688701703 68.99194286760667 68.99194286760667 68.99194286760667 68.9699688701703 68.99194286760667 68.99194286760667 68.9699688701703 68.9699688701703 68.99194286760667 68.99194286760667 68.94799487273393 68.90404687786119 68.88207288042483 68.86009888298847 68.8381248855521 68.81615088811573 68.81615088811573 68.79417689067935 68.77220289324299 68.75022889580663 68.72825489837027 68.7062809009339 68.68430690349753 68.7062809009339 68.7062809009339 68.7062809009339 68.7062809009339 68.7062809009339 68.7062809009339 68.68430690349753 68.68430690349753 68.68430690349753 68.68430690349753 68.66233290606115 68.64035890862479 68.61838491118843 68.59641091375207 68.57443691631569 68.57443691631569 68.55246291887933 68.55246291887933 68.55246291887933 68.55246291887933 68.50851492400659 68.48654092657023 68.46456692913387 68.44259293169749 68.42061893426111 68.39864493682475 68.35469694195203 68.33272294451567 68.31074894707929 68.28877494964291 68.28877494964291 68.26680095220655 68.26680095220655 68.26680095220655 68.24482695477019 68.26680095220655 68.24482695477019 68.24482695477019 68.24482695477019 68.24482695477019 68.24482695477019 68.24482695477019 68.24482695477019 68.24482695477019 68.26680095220655 68.26680095220655 68.24482695477019 68.24482695477019 68.24482695477019 68.24482695477019 68.26680095220655 68.24482695477019 68.24482695477019 68.24482695477019 68.24482695477019 68.22285295733383 68.22285295733383 68.22285295733383 68.22285295733383 68.22285295733383 68.22285295733383 68.22285295733383 68.22285295733383 68.20087895989745 68.20087895989745 68.17890496246109 68.17890496246109 68.17890496246109 68.17890496246109 68.17890496246109 68.15693096502471 68.15693096502471 68.15693096502471 68.13495696758835 68.13495696758835 68.13495696758835 68.13495696758835 68.13495696758835 68.13495696758835 68.13495696758835 68.13495696758835 68.13495696758835 68.13495696758835 68.13495696758835 68.13495696758835 68.11298297015199 68.13495696758835 68.13495696758835 68.13495696758835 68.13495696758835 68.13495696758835 68.13495696758835 68.13495696758835 68.13495696758835 68.15693096502471 68.13495696758835 68.13495696758835 68.13495696758835 68.15693096502471 68.13495696758835 68.15693096502471 68.13495696758835 68.13495696758835 68.09100897271563 68.09100897271563 68.06903497527925 68.06903497527925 68.09100897271563 68.06903497527925 68.04706097784288 68.04706097784288 68.04706097784288 68.04706097784288 68.02508698040651 68.02508698040651 68.02508698040651 68.00311298297015 67.98113898553379 67.98113898553379 67.98113898553379 67.95916498809743 67.93719099066105 67.93719099066105 67.91521699322467 67.89324299578831 67.89324299578831 67.89324299578831 67.87126899835195 67.87126899835195 67.87126899835195 67.84929500091559 67.84929500091559 67.84929500091559 67.84929500091559 67.84929500091559 67.84929500091559 67.82732100347921 67.82732100347921 67.82732100347921 67.84929500091559 67.82732100347921 67.82732100347921 67.84929500091559 67.82732100347921 67.84929500091559 67.82732100347921 67.80534700604285 67.78337300860647 67.78337300860647 67.76139901117011 67.69547701886101 67.65152902398827 67.60758102911555 67.54165903680644 67.49771104193371 67.38784105475187 67.27797106757004 67.1681010803882 67.01428309833364 66.81651712140633 66.66269913935176 66.42098516755172 66.22321919062443 65.91558322651528 65.5859732649698 65.32228529573338 64.94872733931514 64.3774034059696 64.06976744186046 63.762131477751325 63.256729536714886 62.72935359824208 62.33382164438748 61.82841970335103 61.25709577000549 60.86156381615089 60.290239882805345 59.740889946896175 59.34535799304157 58.77403405969603 58.22468412378685 57.82915216993224 57.30177623145944 56.9282182750412 56.400842336568395 55.67570042116829 55.34609045962278 55.01648049807727 54.51107855704083 54.15949459805896 53.654092657022524 53.170664713422454 52.66526277238601 52.15986083134957 51.8082768723677 51.28090093389489 50.88536898004028 50.379967039003844 49.83061710309467 49.43508514924007 48.88573521333089 48.31441127998535 47.96282732100348 47.2816334004761 47.061893426112434 46.688335469694195 46.27082951840322 45.985167551730456 45.58963559787585 45.04028566196667 44.7546236952939 44.2931697491302 43.941585790148324 43.61197582860282 43.128547885002746 42.776963926020876 42.11774400292987 41.61234206189343 41.28273210034792 40.82127815418421 40.49166819263871 40.030214246475005 39.656656290056766 39.370994323384 39.01941036440212 38.53598242080205 38.27229445156565 38.03058047976561 37.7668925105292 37.5691265336019 37.261490569492764 37.063724592565464 36.73411463101996 36.404504669474456 36.03094671305622 35.65738875663798 35.39370078740157 35.13001281816517 34.73448086431057 34.36092290789233 34.09723493865592 33.635780992492215 33.39406702069218 33.04248306171031 32.82274308734664 32.53708112067387 32.1195751693829 31.96575718732833 31.74601721296466 31.482329243728255 31.328511261673686 31.08679728987365 30.932979307819082 30.691265336019043 30.383629371909905 30.22981138985534 29.966123420618935 29.76835744369163 29.61453946163706 29.262955502655192 29.087163523164257 28.867423548800588 28.603735579564184 28.31807361289141 28.076359641091376 27.790697674418606 27.614905694927668 27.351217725691264 27.285295733382164 27.17542574620033 27.087529756454863 27.02160776414576 26.95568577183666 26.867789782091194 26.82384178721846 26.73594579747299 26.691997802600255 26.60410181285479 26.51620582310932 26.42830983336385 26.29646584874565 26.120673869254716 26.054751876945616 25.966855887200147 25.922907892327412 25.856985900018312 25.835011902581943 25.813037905145578 25.813037905145578 25.813037905145578 25.813037905145578 25.813037905145578 25.791063907709212 25.769089910272843 25.747115912836477 25.703167917963743 25.681193920527377 25.65921992309101 25.65921992309101 25.65921992309101 25.637245925654643 25.637245925654643 25.615271928218274 25.615271928218274 25.593297930781908 25.571323933345543 25.549349935909174 25.527375938472808 25.527375938472808 25.527375938472808 25.527375938472808 25.527375938472808 25.50540194103644 25.50540194103644 25.50540194103644 25.483427943600073 25.483427943600073 25.483427943600073 25.483427943600073 25.483427943600073 25.483427943600073 25.483427943600073 25.461453946163708 25.461453946163708 25.461453946163708 25.461453946163708 25.461453946163708 25.43947994872734 25.43947994872734 25.43947994872734 25.43947994872734 25.43947994872734 25.43947994872734 25.43947994872734 25.417505951290973 25.417505951290973 25.417505951290973 25.417505951290973 25.395531953854604 25.395531953854604 25.395531953854604 25.37355795641824 25.37355795641824 25.37355795641824 25.37355795641824 25.37355795641824 25.37355795641824 25.37355795641824 25.37355795641824 25.37355795641824 25.37355795641824 25.37355795641824 25.37355795641824 25.35158395898187 25.35158395898187 25.35158395898187 25.35158395898187 25.35158395898187 25.37355795641824 25.35158395898187 25.35158395898187 25.35158395898187 25.35158395898187 25.329609961545504 25.329609961545504 25.329609961545504 25.329609961545504 25.329609961545504 25.329609961545504 25.329609961545504 25.329609961545504 25.329609961545504 25.329609961545504 25.329609961545504 25.329609961545504 25.329609961545504 25.329609961545504 25.329609961545504 25.329609961545504 25.329609961545504 25.329609961545504 25.329609961545504 25.329609961545504 25.329609961545504 25.329609961545504 25.329609961545504 25.329609961545504 25.329609961545504 25.329609961545504 25.329609961545504 25.329609961545504 25.329609961545504 25.329609961545504 25.329609961545504 25.329609961545504 25.329609961545504 25.329609961545504 25.30763596410914 25.30763596410914 25.329609961545504 25.329609961545504 25.329609961545504 25.329609961545504 25.30763596410914 25.30763596410914 25.329609961545504 25.30763596410914 25.30763596410914 25.30763596410914 25.30763596410914 25.30763596410914 25.30763596410914 25.30763596410914 25.30763596410914 25.30763596410914 25.30763596410914 25.30763596410914 25.30763596410914 25.329609961545504 25.30763596410914 25.329609961545504 25.30763596410914 25.30763596410914 25.329609961545504 25.30763596410914 25.30763596410914 25.30763596410914 25.30763596410914 25.30763596410914 25.30763596410914 25.30763596410914 25.30763596410914 25.30763596410914 25.30763596410914 25.30763596410914 25.30763596410914 25.30763596410914 25.30763596410914 25.30763596410914 25.30763596410914 25.30763596410914 25.30763596410914 25.30763596410914 25.30763596410914 25.30763596410914 25.30763596410914 25.30763596410914 25.30763596410914 25.30763596410914 25.30763596410914 25.30763596410914 25.30763596410914 25.30763596410914 25.30763596410914 25.30763596410914 25.30763596410914 25.30763596410914 25.30763596410914 25.30763596410914 25.30763596410914 25.30763596410914 25.30763596410914 25.30763596410914 25.30763596410914 25.30763596410914 25.30763596410914 25.30763596410914 25.30763596410914 25.30763596410914 25.30763596410914 25.30763596410914 25.30763596410914 25.30763596410914 25.30763596410914 25.30763596410914 25.30763596410914 25.30763596410914 25.30763596410914 25.30763596410914 25.30763596410914 25.30763596410914 25.30763596410914 25.30763596410914 25.30763596410914 25.30763596410914 25.30763596410914 25.30763596410914 25.30763596410914 25.30763596410914 25.30763596410914 25.30763596410914 25.30763596410914 25.30763596410914 25.30763596410914 25.30763596410914 25.329609961545504 25.30763596410914 25.30763596410914 25.30763596410914 25.30763596410914 25.30763596410914 25.329609961545504 25.30763596410914 25.30763596410914 25.30763596410914 25.30763596410914 25.30763596410914 25.30763596410914 25.30763596410914 25.30763596410914 25.28566196667277 25.28566196667277 25.28566196667277 25.28566196667277 25.28566196667277 25.28566196667277 25.28566196667277 25.28566196667277 25.28566196667277 25.28566196667277 25.28566196667277 25.28566196667277 25.28566196667277 25.28566196667277 25.28566196667277 25.30763596410914 25.30763596410914 25.30763596410914 25.30763596410914 25.30763596410914 25.30763596410914 25.30763596410914 25.30763596410914 25.30763596410914 25.30763596410914 25.30763596410914 25.30763596410914 25.329609961545504 25.35158395898187 25.35158395898187 25.37355795641824 25.37355795641824 25.417505951290973 25.461453946163708 25.461453946163708 25.483427943600073 25.527375938472808 25.593297930781908 25.65921992309101 25.72514191540011 25.813037905145578 25.922907892327412 26.01080388207288 26.208569859000182 26.318439846182017 26.406335835927486 26.560153817982055 26.73594579747299 26.88976377952756 27.285295733382164 27.483061710309467 27.856619666727706 28.12030763596411 28.40596960263688 28.77952755905512 29.043215528291523 29.41677348470976 29.834279436000735 30.097967405237135 30.559421351400843 30.976927302691813 31.30653726423732 31.767991210401025 32.1195751693829 32.646951107855706 33.240249038637614 33.54788500274675 34.11920893609229 34.75645486174693 35.17396081303791 35.76725874381981 36.646218641274494 37.3054385643655 37.74491851309284 38.20637245925654 38.88756637978392 39.34902032594763 39.942318256729536 40.579564182384175 41.04101812854789 41.70023805163889 42.42537996703901 42.90880791063908 43.67789782091192 44.3590917414393 44.86449368247574 45.58963559787585 46.09503753891229 46.842153451748764 47.85295733382164 48.64402124153085 49.14942318256729 49.676799121040105 50.248123054385644 50.97326496978575 51.7423548800586 52.51144479033144 53.236586705731554 53.74198864676799 54.4671305621681 55.01648049807727 55.63175242629555 56.312946346822926 56.752426295550265 57.389672221204904 58.02691814685955 58.46639809558689 59.2574620032961 59.674967954587075 60.04852591100531 60.641823841787215 61.03735579564182 61.6526277238601 62.44369163156931 62.86119758286028 63.432521516205824 64.04779344442409 64.26753341878776 64.7729353598242 65.14649331624244 65.82768723676982 66.33308917780627 66.68467313678813 67.1681010803882 67.49771104193371 67.84929500091559 68.22285295733383 68.42061893426111 68.7062809009339 68.94799487273393 69.07983885735213 69.2336568394067 69.3655008240249 69.431422816334 69.47537081120674 69.4973448086431 69.51931880607947 69.58524079838858 69.6291887932613 69.71708478300678 69.73905878044314 69.80498077275224 69.84892876762498 69.8928767624977 69.93682475737045 69.98077275224318 70.02472074711591 70.06866874198866 70.09064273942502 70.09064273942502 70.09064273942502 70.11261673686138 70.11261673686138 70.11261673686138 70.11261673686138 70.11261673686138 70.11261673686138 70.11261673686138 70.11261673686138 70.11261673686138 70.11261673686138 70.11261673686138 70.13459073429775 70.17853872917048 70.20051272660686 70.20051272660686 70.22248672404322 70.22248672404322 70.24446072147958 70.24446072147958 70.28840871635232 70.35433070866142 70.37630470609778 70.42025270097052 70.48617469327962 70.53012268815235 70.59604468046146 70.61801867789782 70.63999267533418 70.66196667277055 70.68394067020692 70.68394067020692 70.68394067020692 70.68394067020692 70.68394067020692 70.68394067020692 70.66196667277055 70.66196667277055 70.63999267533418 70.63999267533418 70.61801867789782 70.63999267533418 70.61801867789782 70.61801867789782 70.61801867789782 70.59604468046146 70.57407068302508 70.55209668558872 70.50814869071598 70.48617469327962 70.44222669840688 70.42025270097052 70.39827870353415 70.33235671122506 70.28840871635232 70.28840871635232 70.26643471891595 70.24446072147958 70.24446072147958 70.24446072147958 70.24446072147958 70.22248672404322 70.20051272660686 70.15656473173412 70.13459073429775 70.09064273942502 70.04669474455227 70.02472074711591 70.00274674967955 69.98077275224318 69.95879875480682 69.91485075993407 69.8928767624977 69.87090276506135 69.84892876762498 69.84892876762498 69.84892876762498 69.84892876762498 69.84892876762498 69.84892876762498 69.84892876762498 69.84892876762498 69.84892876762498 69.84892876762498 69.84892876762498 69.84892876762498 69.84892876762498 69.80498077275224 69.78300677531587 69.73905878044314 69.71708478300678 69.67313678813403 69.67313678813403 69.65116279069767 69.6291887932613 69.6291887932613 69.60721479582494 69.60721479582494 69.58524079838858 69.58524079838858 69.58524079838858 69.5632668009522 69.54129280351583 69.51931880607947 69.4973448086431 69.47537081120674 69.45339681377037 69.40944881889763 69.38747482146127 69.32155282915217 69.2995788317158 69.25563083684307 69.2336568394067 69.21168284197034 69.21168284197034 69.21168284197034 69.21168284197034 69.21168284197034 69.21168284197034 69.21168284197034 69.21168284197034 69.21168284197034 69.21168284197034 69.21168284197034 69.21168284197034 69.21168284197034 69.21168284197034 69.21168284197034 69.21168284197034 69.21168284197034 69.21168284197034 69.21168284197034 69.21168284197034 69.21168284197034 69.18970884453397 69.16773484709759 69.16773484709759 69.14576084966123 69.12378685222487 69.12378685222487 69.12378685222487 69.1018128547885 69.1018128547885 69.07983885735213 69.05786485991577 69.05786485991577 69.03589086247939 69.01391686504303 68.99194286760667 68.9699688701703 68.92602087529757 68.92602087529757 68.90404687786119 68.88207288042483 68.86009888298847 68.86009888298847 68.86009888298847 68.86009888298847 68.88207288042483 68.88207288042483 68.88207288042483 68.88207288042483 68.88207288042483 