29.0 29.0 29.0 29.0 29.0 29.0 29.0 29.0 29.0 29.0 29.0 29.030763596410914 29.0 29.0 29.0 29.0 29.030763596410914 29.0 29.0 29.030763596410914 29.0 29.0 29.0 29.0 29.0 29.0 29.0 29.0 29.0 29.0 29.0 29.0 29.0 29.0 29.0 29.0 29.0 29.0 29.0 29.0 29.0 29.0 29.0 29.0 29.0 29.0 29.0 29.0 29.0 29.0 29.0 29.0 29.0 29.0 29.0 29.0 29.0 29.0 29.0 29.0 29.0 29.0 29.0 29.0 29.0 29.0 29.0 29.0 29.0 29.0 29.0 29.0 29.0 29.0 29.030763596410914 29.0 29.0 29.0 29.0 29.0 29.0 29.0 29.0 29.0 29.0 29.0 29.0 29.0 29.0 29.030763596410914 29.0 29.0 29.0 29.0 29.0 29.0 29.0 29.030763596410914 29.0 29.0 29.0 29.0 29.0 29.0 29.0 29.0 29.0 29.0 29.030763596410914 29.0 29.0 29.0 29.0 29.0 29.0 29.0 29.0 29.0 29.0 29.0 29.0 29.0 29.0 29.0 29.0 29.0 29.0 29.0 29.0 29.0 29.0 29.0 29.0 29.0 29.0 29.0 29.0 29.0 29.0 29.0 29.0 29.0 29.0 29.0 29.0 29.0 29.0 29.0 29.0 29.0 29.0 29.0 29.0 29.0 29.0 29.0 29.0 29.0 29.0 29.0 29.0 29.0 29.0 29.0 29.0 29.0 29.0 29.0 29.0 29.0 29.0 29.0 29.0 29.0 29.0 29.0 29.0 29.0 29.0 29.0 29.0 29.0 29.0 29.0 29.0 29.0 29.0 29.0 29.0 29.0 29.0 29.0 29.0 29.0 29.0 29.0 29.0 29.0 29.0 29.0 29.0 29.0 29.0 29.0 29.0 29.0 29.0 29.0 29.0 29.0 29.0 29.0 29.0 29.0 29.0 29.0 29.0 29.0 29.0 29.030763596410914 29.0 29.0 29.0 29.0 29.0 29.0 29.0 29.0 29.0 29.0 29.0 29.0 29.0 29.0 29.0 29.0 29.0 29.0 29.0 29.0 29.0 29.0 29.0 29.0 29.0 29.0 29.0 29.0 29.0 29.0 29.0 29.0 29.0 29.0 29.0 29.0 29.0 29.0 29.0 29.0 29.0 29.0 29.0 29.030763596410914 29.0 29.0 29.0 29.0 29.0 29.0 29.0 29.0 29.0 29.0 29.0 29.0 29.030763596410914 29.0 29.0 29.0 29.0 29.0 29.0 29.0 29.0 29.0 29.0 29.0 29.0 29.0 29.0 29.0 29.0 29.0 29.0 29.0 29.0 29.0 29.0 29.0 29.0 29.0 29.0 29.0 29.0 29.0 29.030763596410914 29.0 29.0 29.0 29.0 29.0 29.0 29.0 29.0 29.0 29.0 29.0 29.0 29.0 29.0 29.0 29.0 29.0 29.0 29.0 29.0 29.0 29.0 29.0 29.0 29.0 29.0 29.0 29.0 29.0 29.0 29.0 29.0 29.0 29.0 29.0 29.0 29.0 29.0 29.0 29.0 29.0 29.0 29.0 29.0 29.0 29.0 29.0 29.0 29.0 29.0 29.0 29.0 29.0 29.0 29.0 29.0 29.0 29.0 29.0 29.0 29.0 29.0 29.0 29.0 29.0 29.0 29.0 29.0 29.0 29.0 29.0 29.0 29.0 29.0 29.0 29.0 29.0 29.0 29.0 29.0 29.0 29.0 29.0 29.0 29.0 29.0 29.030763596410914 29.0 29.0 29.0 29.0 29.0 29.0 29.0 29.0 29.0 29.0 29.0 29.0 29.0 29.0 29.0 29.0 29.0 29.0 29.0 29.0 29.0 29.0 29.030763596410914 29.0 29.0 29.0 29.0 29.0 29.0 29.0 29.0 29.0 29.0 29.0 29.0 29.0 29.030763596410914 29.0 29.0 29.0 29.0 29.0 29.0 29.0 29.030763596410914 29.0 29.0 29.0 29.0 29.0 29.0 29.0 29.0 29.0 29.0 29.0 29.0 29.0 29.0 29.0 29.0 29.0 29.0 29.0 29.030763596410914 29.0 29.0 29.0 29.0 29.0 29.0 29.0 29.0 29.0 29.0 29.0 29.0 29.0 29.0 29.0 29.0 29.0 29.0 29.0 29.0 29.0 29.0 29.0 29.0 29.0 29.0 29.0 29.0 29.0 29.0 29.0 29.0 29.030763596410914 29.0 29.0 29.0 29.0 29.0 29.0 29.0 29.0 29.0 29.0 29.0 29.0 29.0 29.0 29.0 29.0 29.0 29.0 29.0 29.0 29.0 29.0 29.0 29.0 29.0 29.0 29.0 29.0 29.0 29.0 29.0 29.0 29.030763596410914 29.0 29.0 29.0 29.0 29.0 29.0 29.0 29.0 29.0 29.0 29.0 29.0 29.0 29.0 29.0 29.0 29.0 29.0 29.0 29.0 29.0 29.0 29.0 29.0 29.0 29.0 29.0 29.0 29.0 29.0 29.0 29.0 29.0 29.030763596410914 29.0 29.0 29.0 29.0 29.0 29.0 29.0 29.0 29.0 29.0 29.0 29.0 29.0 29.0 29.0 29.0 29.0 29.0 29.0 29.0 29.0 29.0 29.0 29.0 29.0 29.0 29.0 29.0 29.0 29.0 29.0 29.0 29.0 29.0 29.0 29.0 29.0 29.0 29.0 29.0 29.0 29.0 29.0 29.030763596410914 29.030763596410914 29.030763596410914 29.030763596410914 29.030763596410914 29.030763596410914 29.030763596410914 29.061527192821828 29.061527192821828 29.061527192821828 29.061527192821828 29.09229078923274 29.09229078923274 29.09229078923274 29.09229078923274 29.123054385643655 29.123054385643655 29.123054385643655 29.123054385643655 29.123054385643655 29.15381798205457 29.15381798205457 29.15381798205457 29.184581578465483 29.184581578465483 29.184581578465483 29.215345174876397 29.215345174876397 29.24610877128731 29.24610877128731 29.24610877128731 29.276872367698225 29.276872367698225 29.276872367698225 29.276872367698225 29.30763596410914 29.30763596410914 29.30763596410914 29.30763596410914 29.30763596410914 29.30763596410914 29.338399560520052 29.338399560520052 29.338399560520052 29.369163156930966 29.369163156930966 29.39992675334188 29.39992675334188 29.430690349752794 29.461453946163708 29.49221754257462 29.49221754257462 29.522981138985532 29.553744735396446 29.553744735396446 29.58450833180736 29.58450833180736 29.615271928218274 29.646035524629188 29.6767991210401 29.73832631386193 29.769089910272843 29.769089910272843 29.799853506683757 29.83061710309467 29.861380699505585 29.8921442959165 29.953671488738326 30.015198681560154 30.07672587438198 30.13825306720381 30.199780260025637 30.261307452847465 30.322834645669293 30.415125434902034 30.507416224134772 30.5689434169566 30.66123420618934 30.72276139901117 30.81505218824391 30.907342977476652 30.999633766709394 31.12268815235305 31.21497894158579 31.338033327229446 31.461087712873102 31.55337850210584 31.64566929133858 31.737960080571323 31.830250869804065 31.922541659036806 32.014832448269544 32.1378868339132 32.260941219556855 32.3532320087896 32.44552279802234 32.53781358725508 32.63010437648782 32.69163156930965 32.78392235854239 32.84544955136422 32.968503937007874 33.15308551547336 33.27613990111701 33.368430690349754 33.55301226881524 33.614539461637065 33.79912104010255 33.95293902215711 34.16828419703351 34.383629371909905 34.50668375755356 34.72202893242996 34.937374107306354 35.12195568577184 35.429591649880976 35.67570042116829 35.98333638527742 36.352499542208385 36.598608313495696 36.96777147042666 37.24464383812489 37.459989013001284 37.70609778428859 37.89067936275407 38.10602453763047 38.29060611609595 38.413660501739606 38.53671488738326 38.59824208020509 38.69053286943783 38.90587804431423 39.0596960263688 39.24427760483428 39.428859183299764 39.582677165354326 39.7364951474089 39.85954953305256 40.01336751510712 40.1979490935726 40.32100347921626 40.50558505768174 40.690166636147225 40.81322102179088 40.997802600256364 41.15162058231093 41.36696575718733 41.58231093206372 41.7668925105292 42.013001281816514 42.16681926387108 42.35140084233657 42.53598242080205 42.68980040285662 42.812854788500275 42.99743636696576 43.058963559787585 43.18201794543124 43.274308734663975 43.366599523896724 43.48965390954038 43.581944698773114 43.79728987364952 43.88958066288225 43.981871452114994 44.16645303058048 44.381798205456874 44.535616187511444 44.6586705731551 44.781724958798755 44.96630653726424 45.12012451931881 45.21241530855154 45.3354696941952 45.396996887017025 45.427760483427946 45.45852407983885 45.48928767624977 45.52005127266068 45.52005127266068 45.52005127266068 45.48928767624977 45.48928767624977 45.45852407983885 45.45852407983885 45.45852407983885 45.427760483427946 45.427760483427946 45.427760483427946 45.396996887017025 45.427760483427946 45.396996887017025 45.396996887017025 45.396996887017025 45.396996887017025 45.396996887017025 45.396996887017025 45.396996887017025 45.396996887017025 45.427760483427946 45.427760483427946 45.427760483427946 45.427760483427946 45.427760483427946 45.45852407983885 45.48928767624977 45.52005127266068 45.5508148690716 45.58157846548251 45.58157846548251 45.643105658304336 45.67386925471526 45.70463285112616 45.735396447537084 45.735396447537084 45.79692364035891 45.79692364035891 45.79692364035891 45.82768723676982 45.79692364035891 45.79692364035891 45.82768723676982 45.82768723676982 45.82768723676982 45.82768723676982 45.82768723676982 45.82768723676982 45.82768723676982 45.82768723676982 45.82768723676982 45.79692364035891 45.79692364035891 45.79692364035891 45.79692364035891 45.79692364035891 45.79692364035891 45.79692364035891 45.79692364035891 45.79692364035891 45.76616004394799 45.76616004394799 45.76616004394799 45.76616004394799 45.76616004394799 45.76616004394799 45.76616004394799 45.76616004394799 45.79692364035891 45.79692364035891 45.79692364035891 45.79692364035891 45.79692364035891 45.82768723676982 45.79692364035891 45.79692364035891 45.76616004394799 45.70463285112616 45.67386925471526 45.61234206189343 45.58157846548251 45.52005127266068 45.48928767624977 45.45852407983885 45.45852407983885 45.396996887017025 45.396996887017025 45.3354696941952 45.30470609778429 45.27394250137337 45.24317890496246 45.21241530855154 45.21241530855154 45.181651712140635 45.15088811572972 45.12012451931881 45.12012451931881 45.12012451931881 45.12012451931881 45.12012451931881 45.12012451931881 45.12012451931881 45.12012451931881 45.12012451931881 45.12012451931881 45.12012451931881 45.089360922907886 45.089360922907886 45.089360922907886 45.12012451931881 45.089360922907886 45.089360922907886 45.089360922907886 45.089360922907886 45.089360922907886 45.089360922907886 45.089360922907886 45.089360922907886 45.089360922907886 45.05859732649698 45.089360922907886 45.05859732649698 45.089360922907886 45.089360922907886 45.089360922907886 45.089360922907886 45.089360922907886 45.05859732649698 45.089360922907886 45.05859732649698 45.05859732649698 45.05859732649698 45.05859732649698 45.05859732649698 45.05859732649698 45.05859732649698 45.089360922907886 45.089360922907886 45.05859732649698 45.089360922907886 45.05859732649698 45.05859732649698 45.02783373008606 45.05859732649698 45.05859732649698 45.05859732649698 45.02783373008606 45.02783373008606 45.02783373008606 45.02783373008606 45.02783373008606 45.05859732649698 45.05859732649698 45.05859732649698 45.05859732649698 45.05859732649698 45.05859732649698 45.089360922907886 45.089360922907886 45.05859732649698 45.05859732649698 45.089360922907886 45.05859732649698 45.02783373008606 45.02783373008606 45.05859732649698 45.05859732649698 45.05859732649698 45.02783373008606 45.05859732649698 45.05859732649698 45.05859732649698 45.089360922907886 45.089360922907886 45.05859732649698 45.05859732649698 45.05859732649698 45.05859732649698 45.05859732649698 45.02783373008606 45.02783373008606 45.05859732649698 45.02783373008606 45.02783373008606 45.02783373008606 45.02783373008606 45.05859732649698 45.05859732649698 45.05859732649698 45.02783373008606 45.05859732649698 45.05859732649698 45.05859732649698 45.05859732649698 45.05859732649698 45.05859732649698 45.089360922907886 45.089360922907886 45.089360922907886 45.089360922907886 45.089360922907886 45.12012451931881 45.089360922907886 45.12012451931881 45.089360922907886 45.089360922907886 45.12012451931881 45.12012451931881 45.12012451931881 45.12012451931881 45.089360922907886 45.089360922907886 45.05859732649698 45.089360922907886 45.089360922907886 45.089360922907886 45.089360922907886 45.05859732649698 45.089360922907886 45.02783373008606 45.05859732649698 45.05859732649698 45.05859732649698 45.05859732649698 45.05859732649698 45.05859732649698 45.05859732649698 45.05859732649698 45.05859732649698 45.05859732649698 45.089360922907886 45.12012451931881 45.12012451931881 45.15088811572972 45.181651712140635 45.181651712140635 45.181651712140635 45.21241530855154 45.21241530855154 45.21241530855154 45.21241530855154 45.21241530855154 45.24317890496246 45.24317890496246 45.27394250137337 45.27394250137337 45.24317890496246 45.24317890496246 45.21241530855154 45.21241530855154 45.21241530855154 45.21241530855154 45.15088811572972 45.15088811572972 45.15088811572972 45.15088811572972 45.12012451931881 45.12012451931881 45.15088811572972 45.12012451931881 45.12012451931881 45.12012451931881 45.089360922907886 45.12012451931881 45.12012451931881 45.12012451931881 45.15088811572972 45.15088811572972 45.15088811572972 45.15088811572972 45.12012451931881 45.15088811572972 45.15088811572972 45.12012451931881 45.12012451931881 45.089360922907886 45.12012451931881 45.12012451931881 45.12012451931881 45.12012451931881 45.12012451931881 45.12012451931881 45.12012451931881 45.12012451931881 45.12012451931881 45.15088811572972 45.15088811572972 45.21241530855154 45.27394250137337 45.27394250137337 45.27394250137337 45.30470609778429 45.27394250137337 45.27394250137337 45.27394250137337 45.27394250137337 45.30470609778429 45.30470609778429 45.30470609778429 45.3354696941952 45.3354696941952 45.30470609778429 45.30470609778429 45.3354696941952 45.30470609778429 45.30470609778429 45.30470609778429 45.30470609778429 45.30470609778429 45.3354696941952 45.3354696941952 45.3354696941952 45.3354696941952 45.36623329060612 45.36623329060612 45.396996887017025 45.396996887017025 45.36623329060612 45.36623329060612 45.36623329060612 45.3354696941952 45.21241530855154 45.15088811572972 45.05859732649698 44.96630653726424 44.935542940853324 44.874015748031496 44.81248855520967 44.781724958798755 44.68943416956601 44.6586705731551 44.56637978392236 44.535616187511444 44.4433253982787 44.35103460904596 44.25874381981322 44.074162241347736 43.88958066288225 43.73576268082768 43.581944698773114 43.33583592748581 43.058963559787585 42.78209119208936 42.566746017212964 42.259110053103825 42.07452847463834 41.85918329976195 41.55154733565281 41.3054385643655 41.02856619666728 40.75169382896905 40.536348654092656 40.25947628639443 40.07489470792895 39.921076725874386 39.7364951474089 39.61344076176525 39.45962277971067 39.367331990477936 39.21351400842337 39.09045962277971 38.967405237136056 38.81358725508149 38.69053286943783 38.59824208020509 38.321369712506865 38.19831532686321 37.98297015198681 37.73686138069951 37.459989013001284 37.24464383812489 36.96777147042666 36.81395348837209 36.53708112067387 36.29097234938656 36.13715436733199 35.89104559604468 35.61417322834646 35.30653726423732 35.029664896539096 34.87584691448453 34.629738143197216 34.35286577549899 34.16828419703351 33.76835744369163 33.58377586522615 33.30690349752793 33.214612708295185 33.214612708295185 33.214612708295185 33.30690349752793 33.39919428676067 33.49148507599341 33.58377586522615 33.64530305804798 33.67606665445889 33.67606665445889 33.614539461637065 33.55301226881524 33.522248672404324 33.460721479582496 33.39919428676067 33.33766709393884 33.30690349752793 33.27613990111701 33.2453763047061 33.18384911188427 33.15308551547336 33.09155832265153 33.0300311298297 32.99926753341879 32.968503937007874 32.93774034059696 32.87621314777513 32.84544955136422 32.78392235854239 32.72239516572056 32.72239516572056 32.660867972898735 32.59934078007691 32.568577183665994 32.53781358725508 32.53781358725508 32.507049990844166 32.507049990844166 32.47628639443325 32.414759201611425 32.38399560520051 32.3532320087896 32.3532320087896 32.32246841237868 32.29170481596777 32.260941219556855 32.23017762314594 32.23017762314594 32.19941402673503 32.19941402673503 32.19941402673503 32.168650430324114 32.168650430324114 32.168650430324114 32.168650430324114 32.168650430324114 32.1378868339132 32.1378868339132 32.1378868339132 32.107123237502286 32.07635964109137 32.07635964109137 32.04559604468046 32.014832448269544 31.95330525544772 31.95330525544772 31.922541659036806 31.891778062625892 31.830250869804065 31.79948727339315 31.768723676982237 31.737960080571323 31.70719648416041 31.70719648416041 31.676432887749495 31.676432887749495 31.64566929133858 31.614905694927668 31.584142098516754 31.55337850210584 31.522614905694926 31.491851309284012 31.461087712873102 31.399560520051274 31.338033327229446 31.245742537996705 31.12268815235305 31.030397363120308 30.938106573887566 30.87657938106574 30.784288591832997 30.72276139901117 30.5689434169566 30.507416224134772 30.445889031312948 30.415125434902034 30.353598242080206 30.322834645669293 30.322834645669293 30.29207104925838 30.261307452847465 30.23054385643655 30.23054385643655 30.199780260025637 30.169016663614723 30.13825306720381 30.13825306720381 30.07672587438198 30.07672587438198 30.015198681560154 29.98443508514924 29.98443508514924 29.98443508514924 29.98443508514924 29.98443508514924 29.98443508514924 29.953671488738326 29.953671488738326 29.922907892327412 29.8921442959165 29.8921442959165 29.861380699505585 29.83061710309467 29.769089910272843 29.73832631386193 29.6767991210401 29.646035524629188 29.646035524629188 29.615271928218274 29.58450833180736 29.553744735396446 29.553744735396446 29.553744735396446 29.522981138985532 29.49221754257462 29.49221754257462 29.49221754257462 29.49221754257462 29.461453946163708 29.461453946163708 29.461453946163708 29.461453946163708 29.461453946163708 29.461453946163708 29.461453946163708 29.430690349752794 29.430690349752794 29.430690349752794 29.430690349752794 29.430690349752794 29.39992675334188 29.39992675334188 29.39992675334188 29.39992675334188 29.369163156930966 29.369163156930966 29.369163156930966 29.369163156930966 29.338399560520052 29.338399560520052 29.338399560520052 29.338399560520052 29.338399560520052 29.338399560520052 29.338399560520052 29.30763596410914 29.30763596410914 29.30763596410914 29.30763596410914 29.30763596410914 29.30763596410914 29.276872367698225 29.276872367698225 29.24610877128731 29.24610877128731 29.24610877128731 29.24610877128731 29.24610877128731 29.24610877128731 29.24610877128731 29.24610877128731 29.24610877128731 29.24610877128731 29.24610877128731 29.24610877128731 29.215345174876397 29.215345174876397 29.24610877128731 29.215345174876397 29.215345174876397 29.215345174876397 29.215345174876397 29.215345174876397 29.215345174876397 29.215345174876397 29.215345174876397 29.215345174876397 29.215345174876397 29.215345174876397 29.215345174876397 29.215345174876397 29.215345174876397 29.215345174876397 29.215345174876397 29.184581578465483 29.215345174876397 29.184581578465483 29.215345174876397 29.184581578465483 29.215345174876397 29.215345174876397 29.184581578465483 29.184581578465483 29.184581578465483 29.184581578465483 29.184581578465483 29.184581578465483 29.215345174876397 29.184581578465483 29.184581578465483 29.184581578465483 29.184581578465483 29.215345174876397 29.184581578465483 29.184581578465483 29.184581578465483 29.184581578465483 29.184581578465483 29.184581578465483 29.184581578465483 29.184581578465483 29.184581578465483 29.184581578465483 29.184581578465483 29.184581578465483 29.184581578465483 29.184581578465483 29.184581578465483 29.184581578465483 29.184581578465483 29.184581578465483 29.184581578465483 29.184581578465483 29.184581578465483 29.184581578465483 29.184581578465483 29.184581578465483 29.184581578465483 29.184581578465483 29.184581578465483 29.184581578465483 29.184581578465483 29.184581578465483 29.184581578465483 29.184581578465483 29.184581578465483 29.184581578465483 29.184581578465483 29.184581578465483 29.184581578465483 29.184581578465483 29.184581578465483 29.184581578465483 29.184581578465483 29.15381798205457 29.15381798205457 29.184581578465483 29.184581578465483 29.184581578465483 29.15381798205457 29.184581578465483 29.15381798205457 29.184581578465483 29.184581578465483 29.184581578465483 29.184581578465483 29.15381798205457 29.184581578465483 29.15381798205457 29.15381798205457 29.15381798205457 29.15381798205457 29.15381798205457 29.15381798205457 29.184581578465483 29.184581578465483 29.184581578465483 29.15381798205457 29.15381798205457 29.15381798205457 29.15381798205457 29.15381798205457 29.15381798205457 29.15381798205457 29.15381798205457 29.15381798205457 29.15381798205457 29.15381798205457 29.15381798205457 29.15381798205457 29.15381798205457 29.15381798205457 29.15381798205457 29.15381798205457 29.15381798205457 29.15381798205457 29.15381798205457 29.15381798205457 29.15381798205457 29.15381798205457 29.15381798205457 29.15381798205457 29.15381798205457 29.15381798205457 29.15381798205457 29.15381798205457 29.15381798205457 29.15381798205457 29.15381798205457 29.15381798205457 29.15381798205457 29.15381798205457 29.15381798205457 29.15381798205457 29.15381798205457 29.15381798205457 29.15381798205457 29.15381798205457 29.15381798205457 29.15381798205457 29.15381798205457 29.15381798205457 29.15381798205457 29.15381798205457 29.15381798205457 29.15381798205457 29.15381798205457 29.15381798205457 29.15381798205457 29.15381798205457 29.15381798205457 29.15381798205457 29.15381798205457 29.15381798205457 29.15381798205457 29.15381798205457 29.15381798205457 29.15381798205457 29.15381798205457 29.15381798205457 29.15381798205457 29.15381798205457 29.15381798205457 29.123054385643655 29.15381798205457 29.15381798205457 29.15381798205457 29.15381798205457 29.15381798205457 29.15381798205457 29.15381798205457 29.15381798205457 29.123054385643655 29.15381798205457 29.15381798205457 29.15381798205457 29.15381798205457 29.15381798205457 29.123054385643655 29.123054385643655 29.123054385643655 29.15381798205457 29.15381798205457 29.15381798205457 29.15381798205457 29.15381798205457 29.15381798205457 29.15381798205457 29.15381798205457 29.15381798205457 29.15381798205457 29.123054385643655 29.15381798205457 29.123054385643655 29.123054385643655 29.15381798205457 29.123054385643655 29.123054385643655 29.123054385643655 29.123054385643655 29.15381798205457 29.15381798205457 29.15381798205457 29.123054385643655 29.123054385643655 29.15381798205457 29.15381798205457 29.15381798205457 29.15381798205457 29.123054385643655 29.15381798205457 29.123054385643655 29.15381798205457 29.15381798205457 29.15381798205457 29.123054385643655 29.15381798205457 29.15381798205457 29.123054385643655 29.15381798205457 29.15381798205457 29.15381798205457 29.123054385643655 29.123054385643655 29.123054385643655 29.123054385643655 29.123054385643655 29.123054385643655 29.123054385643655 29.123054385643655 29.123054385643655 29.123054385643655 29.123054385643655 29.123054385643655 29.123054385643655 29.123054385643655 29.123054385643655 29.15381798205457 29.123054385643655 29.123054385643655 29.123054385643655 29.123054385643655 29.123054385643655 29.123054385643655 29.123054385643655 29.123054385643655 29.123054385643655 29.123054385643655 29.123054385643655 29.123054385643655 29.123054385643655 29.123054385643655 29.123054385643655 29.123054385643655 29.123054385643655 29.123054385643655 29.123054385643655 29.123054385643655 29.123054385643655 29.123054385643655 29.123054385643655 29.123054385643655 29.123054385643655 29.123054385643655 29.123054385643655 29.123054385643655 29.123054385643655 29.123054385643655 29.123054385643655 29.123054385643655 29.123054385643655 29.123054385643655 29.123054385643655 29.123054385643655 29.123054385643655 29.123054385643655 29.123054385643655 29.123054385643655 29.123054385643655 29.123054385643655 29.123054385643655 29.123054385643655 29.123054385643655 29.123054385643655 29.123054385643655 29.123054385643655 29.123054385643655 29.123054385643655 29.123054385643655 29.123054385643655 29.123054385643655 29.123054385643655 29.123054385643655 29.123054385643655 29.123054385643655 29.123054385643655 29.123054385643655 29.123054385643655 29.123054385643655 29.123054385643655 29.123054385643655 29.123054385643655 29.123054385643655 29.123054385643655 29.123054385643655 29.123054385643655 29.123054385643655 29.123054385643655 29.123054385643655 29.123054385643655 29.123054385643655 29.123054385643655 29.123054385643655 29.123054385643655 29.123054385643655 29.123054385643655 29.123054385643655 29.123054385643655 29.123054385643655 29.123054385643655 29.123054385643655 29.123054385643655 29.123054385643655 29.123054385643655 29.123054385643655 29.123054385643655 29.123054385643655 29.123054385643655 29.123054385643655 29.123054385643655 29.123054385643655 29.123054385643655 29.123054385643655 29.123054385643655 29.123054385643655 29.123054385643655 29.123054385643655 29.123054385643655 29.123054385643655 29.123054385643655 29.123054385643655 29.123054385643655 29.123054385643655 29.123054385643655 29.123054385643655 29.123054385643655 29.123054385643655 29.123054385643655 29.123054385643655 29.123054385643655 29.123054385643655 29.123054385643655 29.123054385643655 29.123054385643655 29.123054385643655 29.123054385643655 29.123054385643655 29.123054385643655 29.123054385643655 29.123054385643655 29.123054385643655 29.123054385643655 29.123054385643655 29.123054385643655 29.123054385643655 29.123054385643655 29.123054385643655 29.123054385643655 29.123054385643655 29.123054385643655 29.123054385643655 29.123054385643655 29.123054385643655 29.123054385643655 29.123054385643655 29.09229078923274 29.123054385643655 29.123054385643655 29.123054385643655 29.123054385643655 29.123054385643655 29.123054385643655 29.09229078923274 29.123054385643655 29.123054385643655 29.123054385643655 29.123054385643655 29.123054385643655 29.123054385643655 29.123054385643655 29.123054385643655 29.09229078923274 29.123054385643655 29.123054385643655 29.123054385643655 29.123054385643655 29.123054385643655 29.123054385643655 29.123054385643655 29.09229078923274 29.123054385643655 29.123054385643655 29.123054385643655 29.09229078923274 29.123054385643655 29.123054385643655 29.123054385643655 29.123054385643655 29.09229078923274 29.09229078923274 29.123054385643655 29.09229078923274 29.123054385643655 29.123054385643655 29.123054385643655 29.123054385643655 29.123054385643655 29.123054385643655 29.123054385643655 29.123054385643655 29.123054385643655 29.123054385643655 29.123054385643655 29.09229078923274 29.09229078923274 29.123054385643655 29.123054385643655 29.123054385643655 29.09229078923274 29.123054385643655 29.123054385643655 29.123054385643655 29.123054385643655 29.123054385643655 29.123054385643655 29.123054385643655 29.09229078923274 29.123054385643655 29.09229078923274 29.09229078923274 29.123054385643655 29.09229078923274 29.123054385643655 29.09229078923274 29.09229078923274 29.123054385643655 29.09229078923274 29.09229078923274 29.123054385643655 29.09229078923274 29.09229078923274 29.09229078923274 29.123054385643655 29.09229078923274 29.09229078923274 29.123054385643655 29.123054385643655 29.09229078923274 29.123054385643655 29.09229078923274 29.09229078923274 29.123054385643655 29.09229078923274 29.123054385643655 29.09229078923274 29.123054385643655 29.09229078923274 29.123054385643655 29.123054385643655 29.123054385643655 29.09229078923274 29.09229078923274 29.09229078923274 29.09229078923274 29.123054385643655 29.123054385643655 29.09229078923274 29.123054385643655 29.123054385643655 29.09229078923274 29.09229078923274 29.09229078923274 29.09229078923274 29.09229078923274 29.09229078923274 29.123054385643655 29.09229078923274 29.09229078923274 29.123054385643655 29.09229078923274 29.123054385643655 29.09229078923274 29.123054385643655 29.123054385643655 29.09229078923274 29.09229078923274 29.123054385643655 29.123054385643655 29.09229078923274 29.09229078923274 29.09229078923274 29.123054385643655 29.123054385643655 29.123054385643655 29.123054385643655 29.09229078923274 29.09229078923274 29.123054385643655 29.09229078923274 29.123054385643655 29.123054385643655 29.123054385643655 29.123054385643655 29.123054385643655 29.123054385643655 29.09229078923274 29.09229078923274 29.09229078923274 29.09229078923274 29.09229078923274 29.123054385643655 29.123054385643655 29.123054385643655 29.09229078923274 29.09229078923274 29.123054385643655 29.09229078923274 29.09229078923274 29.123054385643655 29.123054385643655 29.123054385643655 29.09229078923274 29.09229078923274 29.09229078923274 29.123054385643655 29.09229078923274 29.123054385643655 29.09229078923274 29.09229078923274 29.09229078923274 29.123054385643655 29.123054385643655 29.09229078923274 29.123054385643655 29.09229078923274 29.123054385643655 29.123054385643655 29.09229078923274 29.09229078923274 29.09229078923274 29.123054385643655 29.123054385643655 29.09229078923274 29.09229078923274 29.09229078923274 29.123054385643655 29.09229078923274 29.09229078923274 29.123054385643655 29.09229078923274 29.123054385643655 29.09229078923274 29.09229078923274 29.09229078923274 29.09229078923274 29.123054385643655 29.09229078923274 29.09229078923274 29.09229078923274 29.09229078923274 29.09229078923274 29.09229078923274 29.09229078923274 29.09229078923274 29.123054385643655 29.09229078923274 29.09229078923274 29.09229078923274 29.09229078923274 29.09229078923274 29.09229078923274 29.09229078923274 29.09229078923274 29.09229078923274 29.09229078923274 29.09229078923274 29.09229078923274 29.09229078923274 29.09229078923274 29.123054385643655 29.09229078923274 29.09229078923274 29.09229078923274 29.09229078923274 29.09229078923274 29.09229078923274 29.09229078923274 29.09229078923274 29.09229078923274 29.09229078923274 29.09229078923274 29.09229078923274 29.09229078923274 29.09229078923274 29.09229078923274 29.09229078923274 29.123054385643655 29.09229078923274 29.123054385643655 29.123054385643655 29.09229078923274 29.09229078923274 29.09229078923274 29.09229078923274 29.09229078923274 29.09229078923274 29.09229078923274 29.09229078923274 29.09229078923274 29.09229078923274 29.09229078923274 29.09229078923274 29.09229078923274 29.09229078923274 29.09229078923274 29.09229078923274 29.09229078923274 29.09229078923274 29.09229078923274 29.09229078923274 29.09229078923274 29.09229078923274 29.09229078923274 29.09229078923274 29.09229078923274 29.09229078923274 29.09229078923274 29.123054385643655 29.09229078923274 29.09229078923274 29.09229078923274 29.09229078923274 29.09229078923274 29.09229078923274 29.09229078923274 29.09229078923274 29.09229078923274 29.09229078923274 29.09229078923274 29.09229078923274 29.09229078923274 29.09229078923274 29.09229078923274 29.09229078923274 29.09229078923274 29.09229078923274 29.09229078923274 29.09229078923274 29.09229078923274 29.09229078923274 29.09229078923274 29.09229078923274 29.09229078923274 29.09229078923274 29.09229078923274 29.09229078923274 29.09229078923274 29.09229078923274 29.09229078923274 29.09229078923274 29.09229078923274 29.09229078923274 29.09229078923274 29.09229078923274 29.09229078923274 29.09229078923274 29.09229078923274 29.09229078923274 29.09229078923274 29.09229078923274 29.09229078923274 29.09229078923274 29.09229078923274 29.123054385643655 29.09229078923274 29.09229078923274 29.09229078923274 29.09229078923274 29.09229078923274 29.09229078923274 29.09229078923274 29.09229078923274 29.09229078923274 29.09229078923274 29.09229078923274 29.09229078923274 29.09229078923274 29.09229078923274 29.09229078923274 29.09229078923274 29.09229078923274 29.09229078923274 29.09229078923274 29.09229078923274 29.09229078923274 29.09229078923274 29.09229078923274 29.09229078923274 29.09229078923274 29.09229078923274 29.09229078923274 29.09229078923274 29.09229078923274 29.09229078923274 29.09229078923274 29.09229078923274 29.09229078923274 29.09229078923274 29.09229078923274 29.09229078923274 29.09229078923274 29.09229078923274 29.09229078923274 29.09229078923274 29.09229078923274 29.09229078923274 29.09229078923274 29.09229078923274 29.09229078923274 29.09229078923274 29.09229078923274 29.09229078923274 29.09229078923274 29.09229078923274 29.09229078923274 29.09229078923274 29.09229078923274 29.09229078923274 29.09229078923274 29.09229078923274 29.09229078923274 29.09229078923274 29.09229078923274 29.09229078923274 29.09229078923274 29.09229078923274 29.09229078923274 29.09229078923274 29.09229078923274 29.09229078923274 29.09229078923274 29.09229078923274 29.09229078923274 29.09229078923274 29.09229078923274 29.123054385643655 29.123054385643655 29.123054385643655 29.123054385643655 29.123054385643655 29.123054385643655 29.123054385643655 29.123054385643655 29.15381798205457 29.123054385643655 29.15381798205457 29.15381798205457 29.15381798205457 29.15381798205457 29.15381798205457 29.15381798205457 29.15381798205457 29.15381798205457 29.184581578465483 29.184581578465483 29.184581578465483 29.184581578465483 29.184581578465483 29.184581578465483 29.184581578465483 29.184581578465483 29.215345174876397 29.215345174876397 29.215345174876397 29.215345174876397 29.215345174876397 29.215345174876397 29.215345174876397 29.24610877128731 29.24610877128731 29.24610877128731 29.24610877128731 29.24610877128731 29.24610877128731 29.24610877128731 29.24610877128731 29.276872367698225 29.276872367698225 29.276872367698225 29.276872367698225 29.276872367698225 29.276872367698225 29.30763596410914 29.30763596410914 29.30763596410914 29.338399560520052 29.338399560520052 29.369163156930966 29.369163156930966 29.369163156930966 29.39992675334188 29.430690349752794 29.461453946163708 29.49221754257462 29.49221754257462 29.522981138985532 29.553744735396446 29.58450833180736 29.58450833180736 29.615271928218274 29.6767991210401 29.707562717451015 29.707562717451015 29.769089910272843 29.799853506683757 29.83061710309467 29.8921442959165 29.922907892327412 29.953671488738326 30.045962277971068 30.07672587438198 30.13825306720381 30.23054385643655 30.29207104925838 30.353598242080206 30.38436183849112 30.445889031312948 30.47665262772386 30.599707013367514 30.66123420618934 30.753524995422083 30.784288591832997 30.845815784654825 30.907342977476652 30.96887017029848 31.06116095953122 31.184215345174877 31.21497894158579 31.27650613440762 31.36879692364036 31.491851309284012 31.55337850210584 31.584142098516754 31.614905694927668 31.64566929133858 31.70719648416041 31.737960080571323 31.830250869804065 31.891778062625892 31.922541659036806 31.984068851858634 32.014832448269544 32.04559604468046 32.107123237502286 32.168650430324114 32.19941402673503 32.19941402673503 32.23017762314594 32.260941219556855 32.29170481596777 32.260941219556855 32.1378868339132 31.830250869804065 31.922541659036806 32.1378868339132 32.29170481596777 32.32246841237868 32.32246841237868 32.3532320087896 32.69163156930965 32.968503937007874 33.522248672404324 33.860648232924376 34.075993407800766 34.26057498626625 34.44515656473173 34.84508331807361 34.99890130012818 35.15271928218275 35.27577366782641 35.46035524629189 35.583409631935545 35.79875480681194 35.952572788866505 36.106390770921074 36.29097234938656 36.3832631386193 36.53708112067387 36.69089910272844 36.87548068119392 37.18311664530306 37.33693462735763 37.459989013001284 37.70609778428859 37.921442959164985 38.10602453763047 38.22907892327412 38.44442409815052 38.50595129097235 38.567478483794176 38.69053286943783 38.81358725508149 38.90587804431423 39.028932429957884 39.09045962277971 39.15198681560154 39.21351400842337 39.30580479765611 39.33656839406702 39.45962277971067 39.5211499725325 39.61344076176525 39.70573155099798 39.76725874381981 39.85954953305256 39.921076725874386 40.044131111518034 40.10565830433986 40.1979490935726 40.290239882805345 40.35176707562717 40.413294268449 40.47482146127083 40.536348654092656 40.597875846914484 40.690166636147225 40.78245742537997 40.87474821461271 40.936275407434536 41.12085698590002 41.243911371543675 41.27467496795458 41.459256546420065 41.55154733565281 41.67460172129647 41.82841970335103 41.92071049258377 42.04376487822743 42.197582860282 42.28987364951474 42.38216443874748 42.53598242080205 42.68980040285662 42.84361838491119 42.93590917414393 43.058963559787585 43.0897271561985 43.18201794543124 43.24354513825307 43.305072331074896 43.42812671671855 43.48965390954038 43.5511811023622 43.67423548800586 43.79728987364952 43.88958066288225 43.92034425929317 43.981871452114994 44.074162241347736 44.16645303058048 44.227980223402305 44.381798205456874 44.474088994689616 44.50485259110053 44.535616187511444 44.535616187511444 44.56637978392236 44.59714338033327 44.59714338033327 44.59714338033327 44.627906976744185 44.627906976744185 44.6586705731551 44.6586705731551 44.6586705731551 44.6586705731551 44.6586705731551 44.6586705731551 44.6586705731551 44.72019776597693 44.75096136238784 44.75096136238784 44.75096136238784 44.781724958798755 44.781724958798755 44.781724958798755 44.781724958798755 44.81248855520967 44.81248855520967 44.81248855520967 44.81248855520967 44.81248855520967 44.84325215162058 44.81248855520967 44.81248855520967 44.84325215162058 44.84325215162058 44.84325215162058 44.84325215162058 44.84325215162058 44.81248855520967 44.84325215162058 44.81248855520967 44.84325215162058 44.84325215162058 44.84325215162058 44.84325215162058 44.84325215162058 44.84325215162058 44.84325215162058 44.84325215162058 44.84325215162058 44.84325215162058 44.84325215162058 44.84325215162058 44.84325215162058 44.84325215162058 44.84325215162058 44.84325215162058 44.84325215162058 44.81248855520967 44.781724958798755 44.781724958798755 44.75096136238784 44.72019776597693 44.6586705731551 44.59714338033327 44.535616187511444 44.474088994689616 44.4433253982787 44.41256180186779 44.41256180186779 44.381798205456874 44.381798205456874 44.381798205456874 44.381798205456874 44.35103460904596 44.381798205456874 44.381798205456874 44.381798205456874 44.35103460904596 44.28950741622413 44.28950741622413 44.25874381981322 44.25874381981322 44.25874381981322 44.25874381981322 44.227980223402305 44.227980223402305 44.227980223402305 44.19721662699139 44.16645303058048 44.16645303058048 44.16645303058048 44.10492583775865 44.10492583775865 44.074162241347736 44.04339864493682 44.04339864493682 44.04339864493682 44.01263504852591 44.04339864493682 44.04339864493682 44.01263504852591 44.01263504852591 44.01263504852591 44.01263504852591 44.01263504852591 44.01263504852591 44.01263504852591 44.01263504852591 44.01263504852591 44.01263504852591 44.01263504852591 44.01263504852591 44.04339864493682 44.01263504852591 44.01263504852591 44.04339864493682 44.04339864493682 44.04339864493682 44.04339864493682 44.01263504852591 44.01263504852591 44.04339864493682 44.01263504852591 44.01263504852591 44.01263504852591 44.01263504852591 44.01263504852591 44.04339864493682 44.04339864493682 44.04339864493682 44.04339864493682 44.04339864493682 44.04339864493682 44.04339864493682 44.04339864493682 44.04339864493682 44.04339864493682 44.04339864493682 44.074162241347736 44.074162241347736 44.04339864493682 44.04339864493682 44.04339864493682 44.04339864493682 44.074162241347736 44.074162241347736 44.04339864493682 44.074162241347736 44.074162241347736 44.04339864493682 44.074162241347736 44.074162241347736 44.04339864493682 44.074162241347736 44.074162241347736 44.074162241347736 44.074162241347736 44.04339864493682 44.04339864493682 44.04339864493682 44.04339864493682 44.04339864493682 44.04339864493682 44.04339864493682 44.04339864493682 44.04339864493682 44.04339864493682 44.04339864493682 44.04339864493682 44.04339864493682 44.04339864493682 44.04339864493682 44.04339864493682 44.04339864493682 44.04339864493682 44.04339864493682 44.04339864493682 44.04339864493682 44.04339864493682 44.04339864493682 44.04339864493682 44.04339864493682 44.04339864493682 44.04339864493682 44.04339864493682 44.04339864493682 44.04339864493682 44.04339864493682 44.04339864493682 44.04339864493682 44.04339864493682 44.04339864493682 44.04339864493682 44.04339864493682 44.04339864493682 44.01263504852591 44.04339864493682 44.04339864493682 44.04339864493682 44.04339864493682 44.04339864493682 44.04339864493682 44.04339864493682 44.04339864493682 44.04339864493682 44.04339864493682 44.04339864493682 44.04339864493682 44.04339864493682 44.04339864493682 44.04339864493682 44.04339864493682 44.04339864493682 44.04339864493682 44.04339864493682 44.04339864493682 44.04339864493682 44.04339864493682 44.04339864493682 44.074162241347736 44.074162241347736 44.074162241347736 44.04339864493682 44.04339864493682 44.04339864493682 44.074162241347736 44.074162241347736 44.04339864493682 44.04339864493682 44.04339864493682 44.04339864493682 44.04339864493682 44.04339864493682 44.04339864493682 44.04339864493682 44.074162241347736 44.074162241347736 44.074162241347736 44.074162241347736 44.135689434169564 44.10492583775865 44.135689434169564 44.16645303058048 44.19721662699139 44.227980223402305 44.227980223402305 44.227980223402305 44.28950741622413 44.28950741622413 44.28950741622413 44.28950741622413 44.28950741622413 44.28950741622413 44.28950741622413 44.28950741622413 44.28950741622413 44.28950741622413 44.28950741622413 44.32027101263505 44.32027101263505 44.32027101263505 44.28950741622413 44.32027101263505 44.28950741622413 44.28950741622413 44.28950741622413 44.28950741622413 44.28950741622413 44.28950741622413 44.28950741622413 44.28950741622413 44.28950741622413 44.28950741622413 44.28950741622413 44.28950741622413 44.28950741622413 44.28950741622413 44.28950741622413 44.28950741622413 44.28950741622413 44.32027101263505 44.32027101263505 44.32027101263505 44.35103460904596 44.35103460904596 44.381798205456874 44.41256180186779 44.41256180186779 44.4433253982787 44.4433253982787 44.4433253982787 44.474088994689616 44.4433253982787 44.474088994689616 44.474088994689616 44.50485259110053 44.50485259110053 44.50485259110053 44.50485259110053 44.50485259110053 44.535616187511444 44.56637978392236 44.56637978392236 44.59714338033327 44.59714338033327 44.627906976744185 44.6586705731551 44.6586705731551 44.68943416956601 44.68943416956601 44.68943416956601 44.75096136238784 44.75096136238784 44.781724958798755 44.781724958798755 44.81248855520967 44.81248855520967 44.81248855520967 44.84325215162058 44.81248855520967 44.84325215162058 44.81248855520967 44.84325215162058 44.81248855520967 44.84325215162058 44.84325215162058 44.81248855520967 44.81248855520967 44.81248855520967 44.81248855520967 44.874015748031496 44.84325215162058 44.874015748031496 44.874015748031496 44.90477934444241 44.90477934444241 44.90477934444241 44.90477934444241 44.90477934444241 44.90477934444241 44.90477934444241 44.90477934444241 44.90477934444241 44.90477934444241 44.874015748031496 44.90477934444241 44.90477934444241 44.874015748031496 44.874015748031496 44.84325215162058 44.874015748031496 44.84325215162058 44.81248855520967 44.81248855520967 44.781724958798755 44.781724958798755 44.75096136238784 44.72019776597693 44.68943416956601 44.68943416956601 44.68943416956601 44.6586705731551 44.6586705731551 44.6586705731551 44.6586705731551 44.6586705731551 44.6586705731551 44.6586705731551 44.6586705731551 44.6586705731551 44.6586705731551 44.6586705731551 44.6586705731551 44.6586705731551 44.6586705731551 44.6586705731551 44.6586705731551 44.6586705731551 44.6586705731551 44.6586705731551 44.6586705731551 44.6586705731551 44.6586705731551 44.6586705731551 44.6586705731551 44.6586705731551 44.6586705731551 44.6586705731551 44.6586705731551 44.6586705731551 44.627906976744185 44.627906976744185 44.6586705731551 44.627906976744185 44.6586705731551 44.6586705731551 44.6586705731551 44.627906976744185 44.6586705731551 44.6586705731551 44.535616187511444 44.4433253982787 44.28950741622413 44.19721662699139 44.01263504852591 43.828053470060425 43.64347189159494 43.52041750595129 43.42812671671855 43.24354513825307 43.12049075260941 42.99743636696576 42.84361838491119 42.72056399926753 42.59750961362388 42.44369163156931 42.38216443874748 42.197582860282 42.04376487822743 41.85918329976195 41.67460172129647 41.58231093206372 41.39772935359824 41.243911371543675 41.15162058231093 40.96703900384545 40.90551181102362 40.87474821461271 40.81322102179088 40.75169382896905 40.597875846914484 40.536348654092656 40.50558505768174 40.444057864859914 40.32100347921626 40.22871268998352 40.136421900750776 39.982603918696206 39.79802234023072 39.674967954587075 39.61344076176525 39.428859183299764 39.24427760483428 39.18275041201245 39.0596960263688 38.99816883354697 39.0596960263688 39.121223219190625 39.028932429957884 38.81358725508149 38.567478483794176 38.35213330891778 38.19831532686321 38.10602453763047 37.9522065555759 37.798388573521336 37.767624977110415 37.64457059146676 37.521516205823104 37.459989013001284 37.36769822376854 37.2754074345358 37.21388024171397 37.24464383812489 37.2754074345358 37.2754074345358 37.18311664530306 37.18311664530306 37.060062259659404 37.09082585607032 37.09082585607032 37.02929866324849 36.96777147042666 36.87548068119392 36.81395348837209 36.66013550631752 36.444790331441126 36.352499542208385 36.41402673503021 36.352499542208385 36.32173594579747 36.1679179637429 36.106390770921074 36.07562717451016 35.952572788866505 35.9218091924556 35.737227613990115 35.64493682475737 35.61417322834646 35.55264603552463 35.52188243911371 35.429591649880976 35.36806445705915 35.337300860648234 35.27577366782641 35.183482878593665 35.12195568577184 35.12195568577184 35.029664896539096 34.96813770371727 34.87584691448453 34.84508331807361 34.66050173960813 34.537447353964474 34.44515656473173 34.383629371909905 34.26057498626625 34.137520600622594 34.01446621497894 33.95293902215711 33.89141182933528 33.829884636513455 33.73759384728072 33.614539461637065 33.522248672404324 33.460721479582496 33.39919428676067 33.33766709393884 33.30690349752793 33.30690349752793 33.27613990111701 33.2453763047061 33.2453763047061 33.214612708295185 33.15308551547336 33.15308551547336 33.09155832265153 33.0300311298297 32.93774034059696 32.87621314777513 32.84544955136422 32.72239516572056 32.63010437648782 32.59934078007691 32.53781358725508 32.47628639443325 32.44552279802234 32.414759201611425 32.414759201611425 32.3532320087896 32.3532320087896 32.32246841237868 32.260941219556855 32.23017762314594 32.168650430324114 32.107123237502286 32.04559604468046 31.984068851858634 31.922541659036806 31.86101446621498 31.737960080571323 31.676432887749495 31.584142098516754 31.491851309284012 31.399560520051274 31.307269730818533 31.245742537996705 31.153451748763963 31.06116095953122 30.96887017029848 30.845815784654825 30.691997802600255 30.599707013367514 30.47665262772386 30.38436183849112 30.322834645669293 30.169016663614723 30.07672587438198 30.07672587438198 30.045962277971068 30.045962277971068 30.045962277971068 30.015198681560154 29.98443508514924 29.953671488738326 29.953671488738326 29.8921442959165 29.861380699505585 29.83061710309467 29.799853506683757 29.769089910272843 29.73832631386193 29.73832631386193 29.707562717451015 29.707562717451015 29.6767991210401 29.6767991210401 29.6767991210401 29.6767991210401 29.646035524629188 29.615271928218274 29.615271928218274 29.58450833180736 29.58450833180736 29.553744735396446 29.553744735396446 29.553744735396446 29.553744735396446 29.553744735396446 29.522981138985532 29.522981138985532 29.522981138985532 29.522981138985532 29.522981138985532 29.49221754257462 29.49221754257462 29.49221754257462 29.49221754257462 29.49221754257462 29.461453946163708 29.461453946163708 29.461453946163708 29.430690349752794 29.430690349752794 29.430690349752794 29.430690349752794 29.430690349752794 29.430690349752794 29.430690349752794 29.39992675334188 29.430690349752794 29.39992675334188 29.39992675334188 29.39992675334188 29.39992675334188 29.39992675334188 29.39992675334188 29.39992675334188 29.39992675334188 29.39992675334188 29.369163156930966 29.369163156930966 29.369163156930966 29.39992675334188 29.369163156930966 29.369163156930966 29.369163156930966 29.369163156930966 29.369163156930966 29.369163156930966 29.369163156930966 29.369163156930966 29.338399560520052 29.338399560520052 29.369163156930966 29.369163156930966 29.338399560520052 29.369163156930966 29.338399560520052 29.338399560520052 29.338399560520052 29.338399560520052 29.338399560520052 29.338399560520052 29.338399560520052 29.338399560520052 29.338399560520052 29.338399560520052 29.338399560520052 29.338399560520052 29.338399560520052 29.338399560520052 29.338399560520052 29.338399560520052 29.338399560520052 29.338399560520052 29.338399560520052 29.338399560520052 29.338399560520052 29.338399560520052 29.30763596410914 29.338399560520052 29.30763596410914 29.30763596410914 29.338399560520052 29.338399560520052 29.338399560520052 29.338399560520052 29.338399560520052 29.30763596410914 29.30763596410914 29.30763596410914 29.338399560520052 29.338399560520052 29.30763596410914 29.30763596410914 29.30763596410914 29.30763596410914 29.30763596410914 29.30763596410914 29.30763596410914 29.30763596410914 29.30763596410914 29.30763596410914 29.30763596410914 29.30763596410914 29.30763596410914 29.30763596410914 29.30763596410914 29.30763596410914 29.30763596410914 29.30763596410914 29.30763596410914 29.30763596410914 29.30763596410914 29.30763596410914 29.30763596410914 29.30763596410914 29.30763596410914 29.30763596410914 29.30763596410914 29.30763596410914 29.30763596410914 29.30763596410914 29.30763596410914 29.30763596410914 29.30763596410914 29.30763596410914 29.30763596410914 29.30763596410914 29.30763596410914 29.30763596410914 29.276872367698225 29.30763596410914 29.30763596410914 29.30763596410914 29.30763596410914 29.30763596410914 29.276872367698225 29.30763596410914 29.30763596410914 29.30763596410914 29.30763596410914 29.30763596410914 29.30763596410914 29.30763596410914 29.30763596410914 29.30763596410914 29.276872367698225 29.276872367698225 29.30763596410914 29.30763596410914 29.30763596410914 29.276872367698225 29.276872367698225 29.30763596410914 29.276872367698225 29.30763596410914 29.30763596410914 29.30763596410914 29.30763596410914 29.30763596410914 29.276872367698225 29.276872367698225 29.276872367698225 29.276872367698225 29.276872367698225 29.276872367698225 29.276872367698225 29.276872367698225 29.276872367698225 29.30763596410914 29.30763596410914 29.276872367698225 29.276872367698225 29.276872367698225 29.276872367698225 29.30763596410914 29.276872367698225 29.276872367698225 29.276872367698225 29.276872367698225 29.276872367698225 29.276872367698225 29.276872367698225 29.276872367698225 29.276872367698225 29.276872367698225 29.276872367698225 29.276872367698225 29.276872367698225 29.276872367698225 29.276872367698225 29.276872367698225 29.276872367698225 29.276872367698225 29.276872367698225 29.276872367698225 29.276872367698225 29.276872367698225 29.276872367698225 29.276872367698225 29.276872367698225 29.276872367698225 29.276872367698225 29.276872367698225 29.276872367698225 29.276872367698225 29.276872367698225 29.276872367698225 29.276872367698225 29.276872367698225 29.276872367698225 29.276872367698225 29.276872367698225 29.276872367698225 29.276872367698225 29.276872367698225 29.276872367698225 29.276872367698225 29.276872367698225 29.276872367698225 29.276872367698225 29.276872367698225 29.276872367698225 29.276872367698225 29.276872367698225 29.276872367698225 29.276872367698225 29.276872367698225 29.276872367698225 29.276872367698225 29.276872367698225 29.276872367698225 29.276872367698225 29.276872367698225 29.276872367698225 29.276872367698225 29.276872367698225 29.276872367698225 29.276872367698225 29.276872367698225 29.276872367698225 29.276872367698225 29.276872367698225 29.276872367698225 29.276872367698225 29.276872367698225 29.276872367698225 29.276872367698225 29.276872367698225 29.276872367698225 29.276872367698225 29.276872367698225 29.276872367698225 29.276872367698225 29.276872367698225 29.276872367698225 29.276872367698225 29.276872367698225 29.276872367698225 29.276872367698225 29.276872367698225 29.276872367698225 29.276872367698225 29.276872367698225 29.276872367698225 29.276872367698225 29.276872367698225 29.276872367698225 29.276872367698225 29.276872367698225 29.276872367698225 29.276872367698225 29.276872367698225 29.276872367698225 29.276872367698225 29.276872367698225 29.276872367698225 29.276872367698225 29.24610877128731 29.276872367698225 29.276872367698225 29.276872367698225 29.276872367698225 29.276872367698225 29.24610877128731 29.24610877128731 29.276872367698225 29.276872367698225 29.276872367698225 29.276872367698225 29.276872367698225 29.24610877128731 29.276872367698225 29.276872367698225 29.276872367698225 29.276872367698225 29.276872367698225 29.276872367698225 29.276872367698225 29.276872367698225 29.276872367698225 29.276872367698225 29.276872367698225 29.24610877128731 29.24610877128731 29.24610877128731 29.24610877128731 29.276872367698225 29.24610877128731 29.24610877128731 29.276872367698225 29.276872367698225 29.24610877128731 29.276872367698225 29.276872367698225 29.276872367698225 29.24610877128731 29.24610877128731 29.24610877128731 29.24610877128731 29.276872367698225 29.276872367698225 29.276872367698225 29.276872367698225 29.24610877128731 29.24610877128731 29.24610877128731 29.24610877128731 29.24610877128731 29.24610877128731 29.276872367698225 29.24610877128731 29.24610877128731 29.24610877128731 29.276872367698225 29.24610877128731 29.24610877128731 29.24610877128731 29.24610877128731 29.24610877128731 29.24610877128731 29.24610877128731 29.24610877128731 29.276872367698225 29.24610877128731 29.24610877128731 29.24610877128731 29.24610877128731 29.24610877128731 29.24610877128731 29.24610877128731 29.276872367698225 29.24610877128731 29.24610877128731 29.24610877128731 29.24610877128731 29.24610877128731 29.24610877128731 29.276872367698225 29.24610877128731 29.24610877128731 29.276872367698225 29.24610877128731 29.24610877128731 29.24610877128731 29.24610877128731 29.24610877128731 29.24610877128731 29.276872367698225 29.24610877128731 29.24610877128731 29.24610877128731 29.24610877128731 29.24610877128731 29.24610877128731 29.24610877128731 29.24610877128731 29.24610877128731 29.24610877128731 29.24610877128731 29.24610877128731 29.24610877128731 29.24610877128731 29.24610877128731 29.24610877128731 29.24610877128731 29.24610877128731 29.24610877128731 29.24610877128731 29.24610877128731 29.24610877128731 29.24610877128731 29.24610877128731 29.24610877128731 29.24610877128731 29.24610877128731 29.24610877128731 29.24610877128731 29.24610877128731 29.24610877128731 29.24610877128731 29.24610877128731 29.24610877128731 29.24610877128731 29.24610877128731 29.24610877128731 29.24610877128731 29.24610877128731 29.24610877128731 29.24610877128731 29.24610877128731 29.24610877128731 29.24610877128731 29.24610877128731 29.24610877128731 29.24610877128731 29.24610877128731 29.24610877128731 29.24610877128731 29.24610877128731 29.24610877128731 29.24610877128731 29.24610877128731 29.24610877128731 29.24610877128731 29.24610877128731 29.24610877128731 29.24610877128731 29.24610877128731 29.24610877128731 29.24610877128731 29.24610877128731 29.24610877128731 29.24610877128731 29.24610877128731 29.24610877128731 29.24610877128731 29.24610877128731 29.24610877128731 29.24610877128731 29.24610877128731 29.24610877128731 29.24610877128731 29.24610877128731 29.24610877128731 29.24610877128731 29.24610877128731 29.24610877128731 29.24610877128731 29.24610877128731 29.24610877128731 29.24610877128731 29.24610877128731 29.24610877128731 29.24610877128731 29.24610877128731 29.24610877128731 29.24610877128731 29.24610877128731 29.24610877128731 29.24610877128731 29.24610877128731 29.24610877128731 29.24610877128731 29.24610877128731 29.24610877128731 29.24610877128731 29.24610877128731 29.24610877128731 29.24610877128731 29.24610877128731 29.24610877128731 29.24610877128731 29.24610877128731 29.24610877128731 29.24610877128731 29.24610877128731 29.24610877128731 29.24610877128731 29.24610877128731 29.24610877128731 29.24610877128731 29.24610877128731 29.24610877128731 29.24610877128731 29.24610877128731 29.24610877128731 29.24610877128731 29.24610877128731 29.24610877128731 29.24610877128731 29.24610877128731 29.24610877128731 29.24610877128731 29.24610877128731 29.24610877128731 29.24610877128731 29.24610877128731 29.24610877128731 29.24610877128731 29.24610877128731 29.24610877128731 29.24610877128731 29.24610877128731 29.24610877128731 29.24610877128731 29.24610877128731 29.24610877128731 29.24610877128731 29.24610877128731 29.24610877128731 29.24610877128731 29.24610877128731 29.24610877128731 29.24610877128731 29.24610877128731 29.24610877128731 29.24610877128731 29.24610877128731 29.24610877128731 29.24610877128731 29.24610877128731 29.24610877128731 29.24610877128731 29.24610877128731 29.24610877128731 29.24610877128731 29.24610877128731 29.24610877128731 29.24610877128731 29.24610877128731 29.24610877128731 29.24610877128731 29.24610877128731 29.24610877128731 29.24610877128731 29.24610877128731 29.24610877128731 29.24610877128731 29.24610877128731 29.24610877128731 29.24610877128731 29.24610877128731 29.215345174876397 29.215345174876397 29.215345174876397 29.24610877128731 29.24610877128731 29.24610877128731 29.24610877128731 29.24610877128731 29.24610877128731 29.24610877128731 29.24610877128731 29.24610877128731 29.24610877128731 29.24610877128731 29.24610877128731 29.24610877128731 29.24610877128731 29.24610877128731 29.24610877128731 29.24610877128731 29.24610877128731 29.24610877128731 29.24610877128731 29.24610877128731 29.215345174876397 29.24610877128731 29.24610877128731 29.24610877128731 29.24610877128731 29.24610877128731 29.24610877128731 29.215345174876397 29.24610877128731 29.24610877128731 29.24610877128731 29.24610877128731 29.24610877128731 29.215345174876397 29.215345174876397 29.24610877128731 29.24610877128731 29.215345174876397 29.24610877128731 29.24610877128731 29.215345174876397 29.24610877128731 29.24610877128731 29.24610877128731 29.215345174876397 29.24610877128731 29.215345174876397 29.24610877128731 29.24610877128731 29.24610877128731 29.215345174876397 29.24610877128731 29.24610877128731 29.24610877128731 29.24610877128731 29.215345174876397 29.215345174876397 29.24610877128731 29.24610877128731 29.24610877128731 29.24610877128731 29.24610877128731 29.24610877128731 29.215345174876397 29.24610877128731 29.24610877128731 29.24610877128731 29.215345174876397 29.24610877128731 29.24610877128731 29.24610877128731 29.24610877128731 29.24610877128731 29.24610877128731 29.24610877128731 29.24610877128731 29.24610877128731 29.24610877128731 29.215345174876397 29.24610877128731 29.24610877128731 29.24610877128731 29.24610877128731 29.24610877128731 29.24610877128731 29.24610877128731 29.24610877128731 29.24610877128731 29.24610877128731 29.24610877128731 29.24610877128731 29.24610877128731 29.24610877128731 29.24610877128731 29.24610877128731 29.24610877128731 29.24610877128731 29.24610877128731 29.24610877128731 29.24610877128731 29.24610877128731 29.24610877128731 29.24610877128731 29.24610877128731 29.215345174876397 29.24610877128731 29.24610877128731 29.24610877128731 29.215345174876397 29.24610877128731 29.24610877128731 29.215345174876397 29.24610877128731 29.24610877128731 29.24610877128731 29.24610877128731 29.24610877128731 29.24610877128731 29.24610877128731 29.24610877128731 29.24610877128731 29.24610877128731 29.24610877128731 29.24610877128731 29.24610877128731 29.215345174876397 29.24610877128731 29.24610877128731 29.24610877128731 29.215345174876397 29.24610877128731 29.24610877128731 29.24610877128731 29.24610877128731 29.24610877128731 29.24610877128731 29.24610877128731 29.24610877128731 29.24610877128731 29.24610877128731 29.24610877128731 29.24610877128731 29.24610877128731 29.276872367698225 29.276872367698225 29.276872367698225 29.276872367698225 29.276872367698225 29.276872367698225 29.276872367698225 29.276872367698225 29.30763596410914 29.30763596410914 29.30763596410914 29.30763596410914 29.30763596410914 29.30763596410914 29.30763596410914 29.338399560520052 29.338399560520052 29.338399560520052 29.369163156930966 29.369163156930966 29.369163156930966 29.39992675334188 29.39992675334188 29.39992675334188 29.39992675334188 29.39992675334188 29.430690349752794 29.430690349752794 29.430690349752794 29.461453946163708 29.461453946163708 29.461453946163708 29.461453946163708 29.49221754257462 29.49221754257462 29.49221754257462 29.522981138985532 29.522981138985532 29.553744735396446 29.553744735396446 29.58450833180736 29.58450833180736 29.615271928218274 29.615271928218274 29.646035524629188 29.646035524629188 29.6767991210401 29.707562717451015 29.73832631386193 29.769089910272843 29.799853506683757 29.83061710309467 29.861380699505585 29.8921442959165 29.922907892327412 29.922907892327412 29.953671488738326 29.98443508514924 30.015198681560154 30.045962277971068 30.07672587438198 30.107489470792896 30.13825306720381 30.169016663614723 30.23054385643655 30.29207104925838 30.353598242080206 30.415125434902034 30.47665262772386 30.538179820545686 30.599707013367514 30.72276139901117 30.845815784654825 30.907342977476652 31.030397363120308 31.153451748763963 31.245742537996705 31.338033327229446 31.430324116462188 31.522614905694926 31.614905694927668 31.70719648416041 31.768723676982237 31.830250869804065 31.891778062625892 31.984068851858634 32.04559604468046 32.107123237502286 32.23017762314594 32.32246841237868 32.44552279802234 32.507049990844166 32.568577183665994 32.660867972898735 32.72239516572056 32.84544955136422 32.99926753341879 33.09155832265153 33.214612708295185 33.368430690349754 33.49148507599341 33.73759384728072 33.922175425746204 34.29133858267716 34.44515656473173 34.66050173960813 34.96813770371727 35.24501007141549 35.583409631935545 35.76799121040103 35.98333638527742 36.26020875297564 36.506317524262954 36.72166269913935 36.93700787401575 37.09082585607032 37.2754074345358 37.459989013001284 37.521516205823104 37.70609778428859 37.859915766343164 37.921442959164985 38.321369712506865 38.38289690532869 38.875114447903314 39.121223219190625 39.30580479765611 39.644204358176154 40.1979490935726 40.56711225050357 40.843984618201794 41.090093389489105 41.36696575718733 41.64383812488555 41.82841970335103 41.9822376854056 42.16681926387108 42.28987364951474 42.53598242080205 42.659036806445705 42.812854788500275 42.93590917414393 42.966672770554844 43.12049075260941 43.21278154184215 43.305072331074896 43.42812671671855 43.5511811023622 43.67423548800586 43.79728987364952 43.88958066288225 44.01263504852591 44.04339864493682 44.04339864493682 44.074162241347736 44.10492583775865 44.16645303058048 44.19721662699139 44.227980223402305 44.32027101263505 44.381798205456874 44.474088994689616 44.535616187511444 44.627906976744185 44.72019776597693 44.781724958798755 44.84325215162058 44.96630653726424 44.99707013367515 45.089360922907886 45.181651712140635 45.21241530855154 45.27394250137337 45.3354696941952 45.36623329060612 45.396996887017025 45.427760483427946 45.427760483427946 45.52005127266068 45.5508148690716 45.58157846548251 45.643105658304336 45.67386925471526 45.70463285112616 45.67386925471526 45.67386925471526 45.70463285112616 45.70463285112616 45.735396447537084 45.735396447537084 45.735396447537084 45.735396447537084 45.735396447537084 45.735396447537084 45.735396447537084 45.735396447537084 45.735396447537084 45.76616004394799 45.735396447537084 45.76616004394799 45.76616004394799 45.76616004394799 45.735396447537084 45.735396447537084 45.70463285112616 45.70463285112616 45.70463285112616 45.70463285112616 45.67386925471526 45.67386925471526 45.67386925471526 45.67386925471526 45.67386925471526 45.643105658304336 45.67386925471526 45.67386925471526 45.643105658304336 45.643105658304336 45.643105658304336 45.643105658304336 45.67386925471526 45.67386925471526 45.61234206189343 45.5508148690716 45.52005127266068 45.427760483427946 45.396996887017025 45.396996887017025 45.396996887017025 45.396996887017025 45.3354696941952 45.30470609778429 45.27394250137337 45.27394250137337 45.27394250137337 45.27394250137337 45.24317890496246 45.27394250137337 45.24317890496246 45.24317890496246 45.21241530855154 45.21241530855154 45.24317890496246 45.24317890496246 45.24317890496246 45.24317890496246 45.24317890496246 45.27394250137337 45.27394250137337 45.27394250137337 45.24317890496246 45.27394250137337 45.27394250137337 45.27394250137337 45.27394250137337 45.30470609778429 45.30470609778429 45.3354696941952 45.3354696941952 45.3354696941952 45.3354696941952 45.3354696941952 45.30470609778429 45.3354696941952 45.3354696941952 45.3354696941952 45.3354696941952 45.30470609778429 45.3354696941952 45.30470609778429 45.30470609778429 45.3354696941952 45.3354696941952 45.3354696941952 45.3354696941952 45.3354696941952 45.3354696941952 45.3354696941952 45.30470609778429 45.3354696941952 45.30470609778429 45.30470609778429 45.30470609778429 45.30470609778429 45.27394250137337 45.27394250137337 45.27394250137337 45.181651712140635 45.089360922907886 44.96630653726424 44.84325215162058 44.68943416956601 44.56637978392236 44.474088994689616 44.41256180186779 44.32027101263505 44.32027101263505 44.28950741622413 44.28950741622413 44.28950741622413 44.28950741622413 44.25874381981322 44.227980223402305 44.25874381981322 44.227980223402305 44.227980223402305 44.227980223402305 44.19721662699139 44.227980223402305 44.227980223402305 44.227980223402305 44.227980223402305 44.25874381981322 44.227980223402305 44.227980223402305 44.227980223402305 44.28950741622413 44.32027101263505 44.41256180186779 44.474088994689616 44.535616187511444 44.56637978392236 44.59714338033327 44.6586705731551 44.68943416956601 44.72019776597693 44.75096136238784 44.75096136238784 44.781724958798755 44.781724958798755 44.75096136238784 44.72019776597693 44.72019776597693 44.68943416956601 44.68943416956601 44.68943416956601 44.72019776597693 44.68943416956601 44.68943416956601 44.72019776597693 44.68943416956601 44.68943416956601 44.68943416956601 44.68943416956601 44.68943416956601 44.68943416956601 44.68943416956601 44.68943416956601 44.6586705731551 44.68943416956601 44.72019776597693 44.68943416956601 44.68943416956601 44.68943416956601 44.72019776597693 44.72019776597693 44.72019776597693 44.72019776597693 44.72019776597693 44.75096136238784 44.72019776597693 44.72019776597693 44.72019776597693 44.72019776597693 44.68943416956601 44.68943416956601 44.72019776597693 44.781724958798755 44.84325215162058 44.84325215162058 44.84325215162058 44.84325215162058 44.90477934444241 44.874015748031496 44.90477934444241 44.90477934444241 44.90477934444241 44.90477934444241 44.935542940853324 44.935542940853324 44.935542940853324 44.935542940853324 44.935542940853324 44.935542940853324 44.935542940853324 44.90477934444241 44.90477934444241 44.90477934444241 44.90477934444241 44.90477934444241 44.90477934444241 44.90477934444241 44.874015748031496 44.874015748031496 44.84325215162058 44.874015748031496 44.874015748031496 44.874015748031496 44.90477934444241 44.90477934444241 44.90477934444241 44.90477934444241 44.90477934444241 44.90477934444241 44.90477934444241 44.874015748031496 44.90477934444241 44.874015748031496 44.96630653726424 44.99707013367515 45.15088811572972 45.12012451931881 45.181651712140635 45.24317890496246 45.27394250137337 45.27394250137337 45.30470609778429 45.27394250137337 45.30470609778429 45.30470609778429 45.27394250137337 45.27394250137337 45.27394250137337 45.27394250137337 45.27394250137337 45.27394250137337 45.27394250137337 45.27394250137337 45.27394250137337 45.30470609778429 45.3354696941952 45.3354696941952 45.3354696941952 45.3354696941952 45.3354696941952 45.3354696941952 45.3354696941952 45.3354696941952 45.3354696941952 45.36623329060612 45.36623329060612 45.3354696941952 45.3354696941952 45.36623329060612 45.3354696941952 45.3354696941952 45.3354696941952 45.36623329060612 45.45852407983885 45.52005127266068 45.5508148690716 45.58157846548251 45.61234206189343 45.643105658304336 45.61234206189343 45.643105658304336 45.643105658304336 45.643105658304336 45.643105658304336 45.643105658304336 45.643105658304336 45.643105658304336 45.643105658304336 45.643105658304336 45.643105658304336 45.643105658304336 45.61234206189343 45.643105658304336 45.643105658304336 45.643105658304336 45.643105658304336 45.643105658304336 45.643105658304336 45.643105658304336 45.643105658304336 45.643105658304336 45.643105658304336 45.643105658304336 45.67386925471526 45.643105658304336 45.643105658304336 45.643105658304336 45.643105658304336 45.643105658304336 45.643105658304336 45.643105658304336 45.61234206189343 45.643105658304336 45.643105658304336 45.643105658304336 45.643105658304336 45.643105658304336 45.643105658304336 45.61234206189343 45.5508148690716 45.396996887017025 45.21241530855154 44.99707013367515 44.81248855520967 44.474088994689616 44.35103460904596 43.981871452114994 43.67423548800586 43.274308734663975 43.058963559787585 43.12049075260941 43.12049075260941 43.0897271561985 43.058963559787585 42.93590917414393 42.84361838491119 42.75132759567845 42.62827321003479 42.53598242080205 42.412928035158394 42.197582860282 42.13605566746017 41.92071049258377 41.705365317707376 41.55154733565281 41.18238417872185 40.87474821461271 40.65940303973631 40.38253067203809 40.290239882805345 40.10565830433986 39.890313129463465 39.76725874381981 39.61344076176525 39.49038637612159 39.30580479765611 39.121223219190625 38.99816883354697 38.8443508514924 38.75206006225966 38.59824208020509 38.38289690532869 38.29060611609595 38.10602453763047 37.859915766343164 37.70609778428859 37.58304339864493 37.459989013001284 37.33693462735763 37.152353048892145 37.060062259659404 36.752426295550265 36.53708112067387 36.41402673503021 36.32173594579747 36.1679179637429 36.01409998168833 35.76799121040103 35.61417322834646 35.52188243911371 35.491118842702804 35.429591649880976 35.183482878593665 35.029664896539096 34.8143197216627 34.66050173960813 34.537447353964474 34.32210217908808 34.137520600622594 34.01446621497894 33.95293902215711 33.829884636513455 33.76835744369163 33.73759384728072 33.73759384728072 33.64530305804798 33.58377586522615 33.522248672404324 33.460721479582496 33.522248672404324 33.614539461637065 33.64530305804798 33.614539461637065 33.58377586522615 33.64530305804798 33.64530305804798 33.64530305804798 33.64530305804798 33.614539461637065 33.58377586522615 33.522248672404324 33.460721479582496 33.33766709393884 33.30690349752793 33.2453763047061 33.18384911188427 33.12232191906244 33.0300311298297 32.93774034059696 32.84544955136422 32.78392235854239 32.75315876213148 32.69163156930965 32.63010437648782 32.59934078007691 32.568577183665994 32.53781358725508 32.47628639443325 32.44552279802234 32.414759201611425 32.3532320087896 32.32246841237868 32.23017762314594 32.23017762314594 32.19941402673503 32.168650430324114 32.1378868339132 32.107123237502286 32.04559604468046 31.984068851858634 31.922541659036806 31.830250869804065 31.768723676982237 31.676432887749495 31.614905694927668 31.55337850210584 31.461087712873102 31.430324116462188 31.36879692364036 31.307269730818533 31.245742537996705 31.184215345174877 31.153451748763963 31.06116095953122 30.96887017029848 30.938106573887566 30.87657938106574 30.784288591832997 30.72276139901117 30.630470609778428 30.5689434169566 30.538179820545686 30.445889031312948 30.415125434902034 30.353598242080206 30.29207104925838 30.29207104925838 30.29207104925838 30.261307452847465 30.261307452847465 30.261307452847465 30.261307452847465 30.261307452847465 30.261307452847465 30.23054385643655 30.23054385643655 30.23054385643655 30.199780260025637 30.169016663614723 30.169016663614723 30.13825306720381 30.13825306720381 30.107489470792896 30.07672587438198 30.045962277971068 30.015198681560154 29.953671488738326 29.922907892327412 29.8921442959165 29.861380699505585 29.799853506683757 29.769089910272843 29.73832631386193 29.6767991210401 29.646035524629188 29.58450833180736 29.58450833180736 29.553744735396446 29.522981138985532 29.522981138985532 29.49221754257462 29.49221754257462 29.49221754257462 29.461453946163708 29.49221754257462 29.461453946163708 29.461453946163708 29.461453946163708 29.461453946163708 29.461453946163708 29.461453946163708 29.430690349752794 29.430690349752794 29.430690349752794 29.430690349752794 29.430690349752794 29.430690349752794 29.430690349752794 29.39992675334188 29.430690349752794 29.430690349752794 29.39992675334188 29.430690349752794 29.430690349752794 29.39992675334188 29.39992675334188 29.39992675334188 29.39992675334188 29.39992675334188 29.39992675334188 29.39992675334188 29.39992675334188 29.39992675334188 29.39992675334188 29.369163156930966 29.369163156930966 29.369163156930966 29.369163156930966 29.369163156930966 29.338399560520052 29.369163156930966 29.338399560520052 29.338399560520052 29.338399560520052 29.338399560520052 29.338399560520052 29.338399560520052 29.338399560520052 29.338399560520052 29.338399560520052 29.338399560520052 29.338399560520052 29.338399560520052 29.338399560520052 29.338399560520052 29.338399560520052 29.30763596410914 29.338399560520052 29.338399560520052 29.338399560520052 29.338399560520052 29.338399560520052 29.338399560520052 29.338399560520052 29.30763596410914 29.338399560520052 29.338399560520052 29.30763596410914 29.30763596410914 29.30763596410914 29.338399560520052 29.30763596410914 29.30763596410914 29.30763596410914 29.30763596410914 29.30763596410914 29.30763596410914 29.30763596410914 29.30763596410914 29.338399560520052 29.30763596410914 29.30763596410914 29.30763596410914 29.30763596410914 29.30763596410914 29.30763596410914 29.30763596410914 29.30763596410914 29.30763596410914 29.30763596410914 29.30763596410914 29.30763596410914 29.30763596410914 29.30763596410914 29.30763596410914 29.30763596410914 29.30763596410914 29.276872367698225 29.276872367698225 29.30763596410914 29.30763596410914 29.276872367698225 29.30763596410914 29.276872367698225 29.276872367698225 29.30763596410914 29.276872367698225 29.30763596410914 29.276872367698225 29.276872367698225 29.276872367698225 29.30763596410914 29.276872367698225 29.276872367698225 29.276872367698225 29.276872367698225 29.276872367698225 29.276872367698225 29.276872367698225 29.276872367698225 29.276872367698225 29.276872367698225 29.276872367698225 29.276872367698225 29.276872367698225 29.276872367698225 29.276872367698225 29.276872367698225 29.276872367698225 29.276872367698225 29.276872367698225 29.276872367698225 29.276872367698225 29.276872367698225 29.276872367698225 29.276872367698225 29.276872367698225 29.276872367698225 29.276872367698225 29.276872367698225 29.276872367698225 29.276872367698225 29.276872367698225 29.276872367698225 29.276872367698225 29.276872367698225 29.276872367698225 29.276872367698225 29.276872367698225 29.276872367698225 29.276872367698225 29.276872367698225 29.276872367698225 29.276872367698225 29.276872367698225 29.276872367698225 29.276872367698225 29.276872367698225 29.276872367698225 29.276872367698225 29.276872367698225 29.276872367698225 29.276872367698225 29.24610877128731 29.276872367698225 29.276872367698225 29.276872367698225 29.276872367698225 29.276872367698225 29.276872367698225 29.276872367698225 29.276872367698225 29.276872367698225 29.276872367698225 29.276872367698225 29.276872367698225 29.276872367698225 29.276872367698225 29.24610877128731 29.24610877128731 29.276872367698225 29.276872367698225 29.276872367698225 29.276872367698225 29.276872367698225 29.24610877128731 29.24610877128731 29.24610877128731 29.276872367698225 29.276872367698225 29.24610877128731 29.24610877128731 29.24610877128731 29.276872367698225 29.276872367698225 29.276872367698225 29.24610877128731 29.24610877128731 29.24610877128731 29.276872367698225 29.24610877128731 29.24610877128731 29.24610877128731 29.24610877128731 29.24610877128731 29.24610877128731 29.24610877128731 29.24610877128731 29.24610877128731 29.24610877128731 29.24610877128731 29.24610877128731 29.24610877128731 29.24610877128731 29.24610877128731 29.24610877128731 29.24610877128731 29.24610877128731 29.24610877128731 29.24610877128731 29.24610877128731 29.24610877128731 29.24610877128731 29.24610877128731 29.24610877128731 29.24610877128731 29.24610877128731 29.24610877128731 29.24610877128731 29.24610877128731 29.24610877128731 29.24610877128731 29.24610877128731 29.24610877128731 29.24610877128731 29.24610877128731 29.24610877128731 29.24610877128731 29.24610877128731 29.24610877128731 29.24610877128731 29.24610877128731 29.24610877128731 29.24610877128731 29.24610877128731 29.24610877128731 29.24610877128731 29.24610877128731 29.24610877128731 29.24610877128731 29.24610877128731 29.24610877128731 29.215345174876397 29.24610877128731 29.24610877128731 29.24610877128731 29.24610877128731 29.215345174876397 29.24610877128731 29.24610877128731 29.24610877128731 29.24610877128731 29.24610877128731 29.24610877128731 29.24610877128731 29.24610877128731 29.24610877128731 29.24610877128731 29.24610877128731 29.215345174876397 29.215345174876397 29.24610877128731 29.24610877128731 29.24610877128731 29.24610877128731 29.24610877128731 29.24610877128731 29.24610877128731 29.215345174876397 29.215345174876397 29.24610877128731 29.215345174876397 29.215345174876397 29.215345174876397 29.215345174876397 29.215345174876397 29.24610877128731 29.215345174876397 29.215345174876397 29.215345174876397 29.215345174876397 29.215345174876397 29.215345174876397 29.215345174876397 29.24610877128731 29.215345174876397 29.215345174876397 29.24610877128731 29.215345174876397 29.215345174876397 29.215345174876397 29.215345174876397 29.215345174876397 29.215345174876397 29.215345174876397 29.215345174876397 29.215345174876397 29.215345174876397 29.215345174876397 29.215345174876397 29.215345174876397 29.215345174876397 29.215345174876397 29.215345174876397 29.24610877128731 29.215345174876397 29.215345174876397 29.215345174876397 29.215345174876397 29.215345174876397 29.215345174876397 29.215345174876397 29.215345174876397 29.24610877128731 29.215345174876397 29.215345174876397 29.215345174876397 29.215345174876397 29.215345174876397 29.215345174876397 29.215345174876397 29.215345174876397 29.215345174876397 29.215345174876397 29.215345174876397 29.215345174876397 29.215345174876397 29.215345174876397 29.215345174876397 29.215345174876397 29.215345174876397 29.215345174876397 29.215345174876397 29.215345174876397 29.215345174876397 29.215345174876397 29.215345174876397 29.215345174876397 29.215345174876397 29.215345174876397 29.215345174876397 29.215345174876397 29.215345174876397 29.215345174876397 29.215345174876397 29.215345174876397 29.215345174876397 29.215345174876397 29.215345174876397 29.215345174876397 29.215345174876397 29.215345174876397 29.215345174876397 29.215345174876397 29.215345174876397 29.215345174876397 29.215345174876397 29.215345174876397 29.215345174876397 29.215345174876397 29.215345174876397 29.215345174876397 29.215345174876397 29.215345174876397 29.215345174876397 29.215345174876397 29.215345174876397 29.215345174876397 29.215345174876397 29.215345174876397 29.215345174876397 29.184581578465483 29.215345174876397 29.215345174876397 29.215345174876397 29.215345174876397 29.215345174876397 29.215345174876397 29.215345174876397 29.215345174876397 29.215345174876397 29.215345174876397 29.215345174876397 29.215345174876397 29.215345174876397 29.215345174876397 29.215345174876397 29.215345174876397 29.215345174876397 29.215345174876397 29.215345174876397 29.215345174876397 29.215345174876397 29.215345174876397 29.215345174876397 29.184581578465483 29.215345174876397 29.215345174876397 29.184581578465483 29.215345174876397 29.184581578465483 29.215345174876397 29.215345174876397 29.184581578465483 29.215345174876397 29.215345174876397 29.215345174876397 29.184581578465483 29.215345174876397 29.215345174876397 29.215345174876397 29.215345174876397 29.215345174876397 29.215345174876397 29.215345174876397 29.184581578465483 29.215345174876397 29.215345174876397 29.184581578465483 29.184581578465483 29.184581578465483 29.184581578465483 29.184581578465483 29.184581578465483 29.184581578465483 29.184581578465483 29.184581578465483 29.184581578465483 29.184581578465483 29.215345174876397 29.184581578465483 29.184581578465483 29.215345174876397 29.215345174876397 29.215345174876397 29.184581578465483 29.184581578465483 29.215345174876397 29.184581578465483 29.184581578465483 29.184581578465483 29.184581578465483 29.184581578465483 29.184581578465483 29.184581578465483 29.184581578465483 29.184581578465483 29.184581578465483 29.184581578465483 29.184581578465483 29.215345174876397 29.184581578465483 29.184581578465483 29.215345174876397 29.184581578465483 29.184581578465483 29.184581578465483 29.184581578465483 29.184581578465483 29.184581578465483 29.184581578465483 29.184581578465483 29.184581578465483 29.184581578465483 29.184581578465483 29.184581578465483 29.184581578465483 29.184581578465483 29.184581578465483 29.184581578465483 29.184581578465483 29.184581578465483 29.184581578465483 29.184581578465483 29.184581578465483 29.184581578465483 29.184581578465483 29.184581578465483 29.184581578465483 29.184581578465483 29.184581578465483 29.184581578465483 29.184581578465483 29.184581578465483 29.215345174876397 29.184581578465483 29.215345174876397 29.184581578465483 29.184581578465483 29.215345174876397 29.215345174876397 29.215345174876397 29.184581578465483 29.184581578465483 29.215345174876397 29.215345174876397 29.184581578465483 29.184581578465483 29.184581578465483 29.184581578465483 29.184581578465483 29.184581578465483 29.215345174876397 29.184581578465483 29.215345174876397 29.184581578465483 29.184581578465483 29.184581578465483 29.184581578465483 29.184581578465483 29.184581578465483 29.184581578465483 29.184581578465483 29.184581578465483 29.184581578465483 29.184581578465483 29.184581578465483 29.184581578465483 29.184581578465483 29.184581578465483 29.184581578465483 29.184581578465483 29.184581578465483 29.184581578465483 29.184581578465483 29.184581578465483 29.184581578465483 29.184581578465483 29.184581578465483 29.184581578465483 29.184581578465483 29.184581578465483 29.184581578465483 29.184581578465483 29.184581578465483 29.184581578465483 29.184581578465483 29.184581578465483 29.184581578465483 29.184581578465483 29.184581578465483 29.184581578465483 29.184581578465483 29.184581578465483 29.184581578465483 29.184581578465483 29.184581578465483 29.184581578465483 29.184581578465483 29.184581578465483 29.184581578465483 29.184581578465483 29.184581578465483 29.184581578465483 29.184581578465483 29.184581578465483 29.184581578465483 29.184581578465483 29.184581578465483 29.184581578465483 29.184581578465483 29.184581578465483 29.184581578465483 29.184581578465483 29.184581578465483 29.184581578465483 29.184581578465483 29.184581578465483 29.184581578465483 29.184581578465483 29.184581578465483 29.184581578465483 29.184581578465483 29.184581578465483 29.184581578465483 29.184581578465483 29.184581578465483 29.184581578465483 29.184581578465483 29.184581578465483 29.184581578465483 29.184581578465483 29.184581578465483 29.184581578465483 29.184581578465483 29.184581578465483 29.184581578465483 29.184581578465483 29.184581578465483 29.184581578465483 29.184581578465483 29.184581578465483 29.184581578465483 29.184581578465483 29.184581578465483 29.184581578465483 29.184581578465483 29.184581578465483 29.184581578465483 29.184581578465483 29.184581578465483 29.184581578465483 29.184581578465483 29.184581578465483 29.184581578465483 29.184581578465483 29.184581578465483 29.184581578465483 29.184581578465483 29.184581578465483 29.184581578465483 29.184581578465483 29.184581578465483 29.184581578465483 29.184581578465483 29.184581578465483 29.184581578465483 29.184581578465483 29.184581578465483 29.184581578465483 29.184581578465483 29.184581578465483 29.184581578465483 29.184581578465483 29.184581578465483 29.184581578465483 29.15381798205457 29.184581578465483 29.184581578465483 29.184581578465483 29.184581578465483 29.184581578465483 29.184581578465483 29.184581578465483 29.184581578465483 29.184581578465483 29.184581578465483 29.184581578465483 29.184581578465483 29.184581578465483 29.184581578465483 29.184581578465483 29.184581578465483 29.184581578465483 29.184581578465483 29.184581578465483 29.184581578465483 29.184581578465483 29.184581578465483 29.184581578465483 29.184581578465483 29.184581578465483 29.184581578465483 29.184581578465483 29.184581578465483 29.184581578465483 29.184581578465483 29.184581578465483 29.184581578465483 29.184581578465483 29.184581578465483 29.184581578465483 29.184581578465483 29.184581578465483 29.184581578465483 29.184581578465483 29.184581578465483 29.184581578465483 29.184581578465483 29.184581578465483 29.184581578465483 29.184581578465483 29.184581578465483 29.184581578465483 29.184581578465483 29.184581578465483 29.184581578465483 29.184581578465483 29.184581578465483 29.184581578465483 29.184581578465483 29.184581578465483 29.184581578465483 29.184581578465483 29.184581578465483 29.184581578465483 29.184581578465483 29.184581578465483 29.184581578465483 29.184581578465483 29.184581578465483 29.184581578465483 29.184581578465483 29.184581578465483 29.184581578465483 29.184581578465483 29.184581578465483 29.184581578465483 29.184581578465483 29.184581578465483 29.184581578465483 29.184581578465483 29.184581578465483 29.184581578465483 29.184581578465483 29.15381798205457 29.184581578465483 29.184581578465483 29.184581578465483 29.184581578465483 29.184581578465483 29.15381798205457 29.184581578465483 29.184581578465483 29.184581578465483 29.184581578465483 29.15381798205457 29.15381798205457 29.184581578465483 29.184581578465483 29.184581578465483 29.184581578465483 29.184581578465483 29.184581578465483 29.184581578465483 29.184581578465483 29.184581578465483 29.184581578465483 29.184581578465483 29.184581578465483 29.184581578465483 29.184581578465483 29.184581578465483 29.184581578465483 29.184581578465483 29.15381798205457 29.184581578465483 29.184581578465483 29.184581578465483 29.184581578465483 29.184581578465483 29.184581578465483 29.184581578465483 29.184581578465483 29.184581578465483 29.184581578465483 29.15381798205457 29.184581578465483 29.184581578465483 29.184581578465483 29.184581578465483 29.184581578465483 29.184581578465483 29.184581578465483 29.184581578465483 29.184581578465483 29.184581578465483 29.184581578465483 29.184581578465483 29.184581578465483 29.184581578465483 29.184581578465483 29.184581578465483 29.184581578465483 29.184581578465483 29.184581578465483 29.184581578465483 29.15381798205457 29.184581578465483 29.184581578465483 29.184581578465483 29.184581578465483 29.184581578465483 29.184581578465483 29.184581578465483 29.184581578465483 29.184581578465483 29.184581578465483 29.184581578465483 29.184581578465483 29.184581578465483 29.184581578465483 29.184581578465483 29.184581578465483 29.184581578465483 29.184581578465483 29.184581578465483 29.184581578465483 29.184581578465483 29.184581578465483 29.184581578465483 29.184581578465483 29.184581578465483 29.184581578465483 29.184581578465483 29.184581578465483 29.184581578465483 29.184581578465483 29.184581578465483 29.184581578465483 29.184581578465483 29.184581578465483 29.184581578465483 29.184581578465483 29.15381798205457 29.184581578465483 29.184581578465483 29.15381798205457 29.184581578465483 29.184581578465483 29.15381798205457 29.15381798205457 29.184581578465483 29.15381798205457 29.184581578465483 29.184581578465483 29.184581578465483 29.184581578465483 29.184581578465483 29.184581578465483 29.184581578465483 29.184581578465483 29.184581578465483 29.184581578465483 29.215345174876397 29.215345174876397 29.215345174876397 29.215345174876397 29.215345174876397 29.215345174876397 29.24610877128731 29.24610877128731 29.24610877128731 29.24610877128731 29.276872367698225 29.276872367698225 29.276872367698225 29.276872367698225 29.30763596410914 29.30763596410914 29.30763596410914 29.338399560520052 29.338399560520052 29.338399560520052 29.369163156930966 29.369163156930966 29.369163156930966 29.369163156930966 29.39992675334188 29.430690349752794 29.430690349752794 29.461453946163708 29.461453946163708 29.522981138985532 29.58450833180736 29.646035524629188 29.6767991210401 29.6767991210401 29.707562717451015 29.73832631386193 29.769089910272843 29.861380699505585 29.8921442959165 29.953671488738326 29.98443508514924 30.045962277971068 30.107489470792896 30.169016663614723 30.199780260025637 30.29207104925838 30.38436183849112 30.415125434902034 30.507416224134772 30.5689434169566 30.691997802600255 30.81505218824391 30.87657938106574 30.999633766709394 31.091924555942136 31.153451748763963 31.245742537996705 31.27650613440762 31.399560520051274 31.491851309284012 31.55337850210584 31.614905694927668 31.64566929133858 31.70719648416041 31.768723676982237 31.768723676982237 31.86101446621498 31.922541659036806 31.95330525544772 31.984068851858634 32.014832448269544 32.07635964109137 32.107123237502286 32.1378868339132 32.19941402673503 32.260941219556855 32.260941219556855 32.29170481596777 32.19941402673503 31.737960080571323 31.030397363120308 31.030397363120308 31.12268815235305 31.27650613440762 31.36879692364036 31.461087712873102 31.676432887749495 32.507049990844166 32.72239516572056 32.84544955136422 33.214612708295185 33.73759384728072 34.137520600622594 34.475920161142646 34.90661051089544 35.337300860648234 35.76799121040103 35.952572788866505 36.41402673503021 36.72166269913935 37.02929866324849 37.2754074345358 37.459989013001284 37.70609778428859 37.9522065555759 38.13678813404138 38.321369712506865 38.44442409815052 38.567478483794176 38.81358725508149 38.99816883354697 39.15198681560154 39.39809558688884 39.55191356894342 39.70573155099798 40.01336751510712 40.16718549716169 40.444057864859914 40.597875846914484 40.87474821461271 41.18238417872185 41.336202160776416 41.58231093206372 41.7668925105292 42.013001281816514 42.32063724592565 42.505218824391136 42.72056399926753 42.93590917414393 42.99743636696576 43.21278154184215 43.33583592748581 43.5511811023622 43.79728987364952 43.95110785570408 44.135689434169564 44.35103460904596 44.474088994689616 44.6586705731551 44.874015748031496 45.089360922907886 45.27394250137337 45.396996887017025 45.58157846548251 45.76616004394799 45.950741622413474 46.07379600805713 46.196850393700785 46.31990477934444 46.442959164988096 46.56601355063175 46.71983153268632 46.965940303973625 47.05823109320637 47.24281267167186 47.36586705731551 47.519685039370074 47.73503021424648 47.91961179271196 48.13495696758835 48.35030214246475 48.473356528108404 48.59641091375206 48.81175608862846 48.96557407068302 49.1501556491485 49.27321003479216 49.45779161325764 49.61160959531221 49.76542757736678 49.95000915583226 50.10382713788683 50.2576451199414 50.442226698406884 50.50375389122871 50.65757187328328 50.81138985533785 50.903680644570585 50.995971433803334 51.05749862662516 51.11902581944699 51.242080205090645 51.242080205090645 51.30360739791247 51.33437099432338 51.3651345907343 51.39589818714521 51.39589818714521 51.39589818714521 51.39589818714521 51.39589818714521 51.42666178355613 51.42666178355613 51.42666178355613 51.42666178355613 51.42666178355613 51.42666178355613 51.42666178355613 51.42666178355613 51.42666178355613 51.39589818714521 51.42666178355613 51.42666178355613 51.42666178355613 51.39589818714521 51.39589818714521 51.39589818714521 51.42666178355613 51.39589818714521 51.39589818714521 51.39589818714521 51.39589818714521 51.39589818714521 51.42666178355613 51.39589818714521 51.39589818714521 51.42666178355613 51.39589818714521 51.39589818714521 51.3651345907343 51.39589818714521 51.39589818714521 51.3651345907343 51.3651345907343 51.3651345907343 51.3651345907343 51.3651345907343 51.3651345907343 51.33437099432338 51.3651345907343 51.3651345907343 51.33437099432338 51.3651345907343 51.3651345907343 51.33437099432338 51.33437099432338 51.3651345907343 51.3651345907343 51.33437099432338 51.3651345907343 51.3651345907343 51.3651345907343 51.3651345907343 51.33437099432338 51.3651345907343 51.3651345907343 51.33437099432338 51.33437099432338 51.33437099432338 51.3651345907343 51.33437099432338 51.30360739791247 51.30360739791247 51.27284380150155 51.242080205090645 51.18055301226882 51.149789415857896 51.11902581944699 51.08826222303607 51.05749862662516 51.02673503021424 51.02673503021424 50.995971433803334 50.995971433803334 50.995971433803334 50.96520783739241 50.934444240981506 50.903680644570585 50.903680644570585 50.903680644570585 50.87291704815968 50.842153451748764 50.842153451748764 50.81138985533785 50.81138985533785 50.74986266251602 50.71909906610511 50.688335469694195 50.596044680461446 50.534517487639626 50.4729902948178 50.41146310199597 50.380699505585056 50.380699505585056 50.34993590917414 50.34993590917414 50.31917231276323 50.34993590917414 50.34993590917414 50.31917231276323 50.31917231276323 50.31917231276323 50.31917231276323 50.31917231276323 50.31917231276323 50.31917231276323 50.31917231276323 50.34993590917414 50.31917231276323 50.31917231276323 50.31917231276323 50.34993590917414 50.31917231276323 50.34993590917414 50.34993590917414 50.34993590917414 50.34993590917414 50.34993590917414 50.34993590917414 50.34993590917414 50.34993590917414 50.31917231276323 50.34993590917414 50.34993590917414 50.31917231276323 50.34993590917414 50.34993590917414 50.31917231276323 50.34993590917414 50.31917231276323 50.31917231276323 50.31917231276323 50.31917231276323 50.31917231276323 50.31917231276323 50.31917231276323 50.31917231276323 50.31917231276323 50.31917231276323 50.31917231276323 50.31917231276323 50.31917231276323 50.31917231276323 50.31917231276323 50.34993590917414 50.34993590917414 50.34993590917414 50.34993590917414 50.380699505585056 50.34993590917414 50.34993590917414 50.34993590917414 50.34993590917414 50.2576451199414 50.16535433070866 50.07306354147592 50.01153634865409 49.888481963010435 49.79619117377769 49.73466398095587 49.580845998901296 49.55008240249039 49.48855520966856 49.427028016846734 49.365500824024906 49.334737227613985 49.30397363120308 49.30397363120308 49.27321003479216 49.27321003479216 49.30397363120308 49.30397363120308 49.334737227613985 49.334737227613985 49.334737227613985 49.334737227613985 49.334737227613985 49.365500824024906 49.334737227613985 49.365500824024906 49.365500824024906 49.427028016846734 49.45779161325764 49.51931880607947 49.55008240249039 49.55008240249039 49.580845998901296 49.55008240249039 49.580845998901296 49.61160959531221 49.642373191723124 49.642373191723124 49.642373191723124 49.673136788134045 49.673136788134045 49.673136788134045 49.673136788134045 49.73466398095587 49.73466398095587 49.76542757736678 49.79619117377769 49.82695477018861 49.85771836659953 49.85771836659953 49.888481963010435 49.888481963010435 49.888481963010435 49.888481963010435 49.888481963010435 49.888481963010435 49.888481963010435 49.888481963010435 49.888481963010435 49.888481963010435 49.888481963010435 49.888481963010435 49.888481963010435 49.888481963010435 49.888481963010435 49.888481963010435 49.888481963010435 49.888481963010435 49.888481963010435 49.888481963010435 49.888481963010435 49.888481963010435 49.888481963010435 49.888481963010435 49.888481963010435 49.888481963010435 49.888481963010435 49.91924555942135 49.888481963010435 49.888481963010435 49.888481963010435 49.888481963010435 49.91924555942135 49.980772752243176 50.01153634865409 50.042299945065004 50.07306354147592 50.10382713788683 50.134590734297745 50.134590734297745 50.134590734297745 50.16535433070866 50.134590734297745 50.134590734297745 50.16535433070866 50.16535433070866 50.19611792711957 50.22688152353049 50.2576451199414 50.2576451199414 50.288408716352315 50.31917231276323 50.31917231276323 50.31917231276323 50.34993590917414 50.31917231276323 50.34993590917414 50.34993590917414 50.34993590917414 50.41146310199597 50.442226698406884 50.442226698406884 50.442226698406884 50.442226698406884 50.4729902948178 50.50375389122871 50.4729902948178 50.50375389122871 50.50375389122871 50.50375389122871 50.50375389122871 50.50375389122871 50.50375389122871 50.4729902948178 50.4729902948178 50.442226698406884 50.442226698406884 50.442226698406884 50.442226698406884 50.41146310199597 50.41146310199597 50.41146310199597 50.442226698406884 50.41146310199597 50.380699505585056 50.380699505585056 50.34993590917414 50.34993590917414 50.31917231276323 50.288408716352315 50.22688152353049 50.134590734297745 50.042299945065004 49.95000915583226 49.82695477018861 49.70390038454495 49.48855520966856 49.24244643838125 49.05786485991577 48.719465299395715 48.473356528108404 48.22724775682109 48.04266617835561 47.85808459989013 47.5812122321919 47.33510346090459 47.24281267167186 47.05823109320637 46.93517670756272 46.87364951474089 46.750595129097235 46.750595129097235 46.68906793627541 46.658304339864486 46.62754074345358 46.596777147042665 46.56601355063175 46.504486357809924 46.47372276139901 46.442959164988096 46.31990477934444 46.25837758652261 46.2276139901117 46.104559604468044 46.07379600805713 45.98150521882439 45.79692364035891 45.67386925471526 45.5508148690716 45.27394250137337 45.15088811572972 44.90477934444241 44.68943416956601 44.535616187511444 44.35103460904596 44.10492583775865 43.88958066288225 43.64347189159494 43.39736312030763 43.21278154184215 43.058963559787585 42.966672770554844 42.812854788500275 42.68980040285662 42.505218824391136 42.259110053103825 42.07452847463834 41.82841970335103 41.61307452847464 41.490020142830986 41.36696575718733 41.15162058231093 40.997802600256364 40.72093023255814 40.536348654092656 40.32100347921626 40.10565830433986 39.890313129463465 39.644204358176154 39.45962277971067 39.24427760483428 39.0596960263688 38.93664164072514 38.81358725508149 38.75206006225966 38.59824208020509 38.475187694561434 38.38289690532869 38.25984251968504 38.22907892327412 38.13678813404138 38.04449734480864 37.9522065555759 37.921442959164985 37.89067936275407 37.859915766343164 37.767624977110415 37.70609778428859 37.64457059146676 37.64457059146676 37.4907526094122 37.152353048892145 36.998535066837576 36.87548068119392 36.72166269913935 36.47555392785204 36.22944515656473 36.044863578099246 35.89104559604468 35.706464017579194 35.36806445705915 35.183482878593665 35.06042849295001 34.937374107306354 34.84508331807361 34.72202893242996 34.66050173960813 34.50668375755356 34.35286577549899 34.26057498626625 34.10675700421168 33.89141182933528 33.76835744369163 33.67606665445889 33.58377586522615 33.460721479582496 33.368430690349754 33.30690349752793 33.214612708295185 33.09155832265153 32.99926753341879 32.906976744186046 32.84544955136422 32.75315876213148 32.59934078007691 32.47628639443325 32.260941219556855 32.107123237502286 31.922541659036806 31.737960080571323 31.584142098516754 31.461087712873102 31.245742537996705 31.12268815235305 31.030397363120308 30.96887017029848 31.030397363120308 31.245742537996705 31.307269730818533 31.36879692364036 31.399560520051274 31.36879692364036 31.338033327229446 31.338033327229446 31.399560520051274 31.36879692364036 31.338033327229446 31.27650613440762 31.27650613440762 31.245742537996705 31.21497894158579 31.245742537996705 31.245742537996705 31.27650613440762 31.27650613440762 31.307269730818533 31.36879692364036 31.430324116462188 31.491851309284012 31.491851309284012 31.584142098516754 31.614905694927668 31.64566929133858 31.737960080571323 31.86101446621498 31.891778062625892 31.922541659036806 31.922541659036806 31.95330525544772 31.984068851858634 31.984068851858634 31.95330525544772 31.891778062625892 31.86101446621498 31.830250869804065 31.79948727339315 31.737960080571323 31.64566929133858 31.614905694927668 31.55337850210584 31.491851309284012 31.430324116462188 31.399560520051274 31.338033327229446 31.27650613440762 31.184215345174877 31.091924555942136 31.06116095953122 31.030397363120308 30.999633766709394 30.938106573887566 30.938106573887566 30.907342977476652 30.845815784654825 30.81505218824391 30.784288591832997 30.753524995422083 30.72276139901117 30.691997802600255 30.66123420618934 30.599707013367514 30.5689434169566 30.538179820545686 30.538179820545686 30.507416224134772 30.47665262772386 30.415125434902034 30.415125434902034 30.415125434902034 30.38436183849112 30.38436183849112 30.353598242080206 30.353598242080206 30.353598242080206 30.353598242080206 30.322834645669293 30.322834645669293 30.322834645669293 30.29207104925838 30.261307452847465 30.23054385643655 30.169016663614723 30.107489470792896 30.07672587438198 30.015198681560154 29.922907892327412 29.8921442959165 29.83061710309467 29.799853506683757 29.73832631386193 29.707562717451015 29.646035524629188 29.58450833180736 29.553744735396446 29.522981138985532 29.49221754257462 29.49221754257462 29.461453946163708 29.461453946163708 29.461453946163708 29.461453946163708 29.461453946163708 29.461453946163708 29.461453946163708 29.461453946163708 29.461453946163708 29.461453946163708 29.461453946163708 29.430690349752794 29.430690349752794 29.430690349752794 29.430690349752794 29.430690349752794 29.430690349752794 29.430690349752794 29.39992675334188 29.39992675334188 29.39992675334188 29.39992675334188 29.39992675334188 29.39992675334188 29.39992675334188 29.39992675334188 29.39992675334188 29.39992675334188 29.39992675334188 29.39992675334188 29.39992675334188 29.39992675334188 29.39992675334188 29.39992675334188 29.369163156930966 29.39992675334188 29.369163156930966 29.369163156930966 29.39992675334188 29.369163156930966 29.369163156930966 29.369163156930966 29.369163156930966 29.369163156930966 29.369163156930966 29.369163156930966 29.369163156930966 29.369163156930966 29.369163156930966 29.369163156930966 29.369163156930966 29.369163156930966 29.369163156930966 29.369163156930966 29.369163156930966 29.369163156930966 29.369163156930966 29.369163156930966 29.369163156930966 29.369163156930966 29.369163156930966 29.369163156930966 29.369163156930966 29.369163156930966 29.369163156930966 29.369163156930966 29.338399560520052 29.369163156930966 29.338399560520052 29.369163156930966 29.369163156930966 29.338399560520052 29.338399560520052 29.369163156930966 29.369163156930966 29.338399560520052 29.369163156930966 29.338399560520052 29.338399560520052 29.369163156930966 29.338399560520052 29.369163156930966 29.338399560520052 29.369163156930966 29.338399560520052 29.338399560520052 29.369163156930966 29.338399560520052 29.369163156930966 29.338399560520052 29.338399560520052 29.369163156930966 29.338399560520052 29.338399560520052 29.338399560520052 29.338399560520052 29.338399560520052 29.369163156930966 29.338399560520052 29.338399560520052 29.338399560520052 29.338399560520052 29.338399560520052 29.338399560520052 29.338399560520052 29.338399560520052 29.338399560520052 29.338399560520052 29.369163156930966 29.369163156930966 29.369163156930966 29.338399560520052 29.338399560520052 29.338399560520052 29.338399560520052 29.369163156930966 29.338399560520052 29.369163156930966 29.338399560520052 29.338399560520052 29.369163156930966 29.338399560520052 29.338399560520052 29.338399560520052 29.338399560520052 29.338399560520052 29.338399560520052 29.338399560520052 29.338399560520052 29.338399560520052 29.338399560520052 29.338399560520052 29.338399560520052 29.338399560520052 29.338399560520052 29.338399560520052 29.338399560520052 29.338399560520052 29.338399560520052 29.338399560520052 29.338399560520052 29.338399560520052 29.338399560520052 29.338399560520052 29.338399560520052 29.338399560520052 29.338399560520052 29.338399560520052 29.338399560520052 29.338399560520052 29.338399560520052 29.338399560520052 29.338399560520052 29.338399560520052 29.338399560520052 29.338399560520052 29.338399560520052 29.338399560520052 29.338399560520052 29.338399560520052 29.338399560520052 29.338399560520052 29.338399560520052 29.338399560520052 29.338399560520052 29.338399560520052 29.338399560520052 29.338399560520052 29.338399560520052 29.338399560520052 29.338399560520052 29.338399560520052 29.338399560520052 29.338399560520052 29.338399560520052 29.338399560520052 29.338399560520052 29.338399560520052 29.338399560520052 29.338399560520052 29.338399560520052 29.338399560520052 29.338399560520052 29.338399560520052 29.338399560520052 29.338399560520052 29.338399560520052 29.338399560520052 29.338399560520052 29.338399560520052 29.338399560520052 29.338399560520052 29.338399560520052 29.338399560520052 29.338399560520052 29.338399560520052 29.338399560520052 29.338399560520052 29.30763596410914 29.338399560520052 29.338399560520052 29.338399560520052 29.338399560520052 29.338399560520052 29.338399560520052 29.338399560520052 29.338399560520052 29.338399560520052 29.338399560520052 29.338399560520052 29.338399560520052 29.338399560520052 29.338399560520052 29.338399560520052 29.338399560520052 29.338399560520052 29.338399560520052 29.338399560520052 29.338399560520052 29.30763596410914 29.30763596410914 29.30763596410914 29.30763596410914 29.338399560520052 29.30763596410914 29.30763596410914 29.30763596410914 29.338399560520052 29.338399560520052 29.338399560520052 29.30763596410914 29.338399560520052 29.338399560520052 29.338399560520052 29.30763596410914 29.30763596410914 29.30763596410914 29.338399560520052 29.30763596410914 29.30763596410914 29.30763596410914 29.30763596410914 29.30763596410914 29.30763596410914 29.30763596410914 29.30763596410914 29.30763596410914 29.30763596410914 29.30763596410914 29.30763596410914 29.30763596410914 29.30763596410914 29.30763596410914 29.30763596410914 29.30763596410914 29.30763596410914 29.30763596410914 29.276872367698225 29.276872367698225 29.276872367698225 29.276872367698225 29.30763596410914 29.276872367698225 29.30763596410914 29.276872367698225 29.30763596410914 29.276872367698225 29.276872367698225 29.276872367698225 29.276872367698225 29.30763596410914 29.276872367698225 29.276872367698225 29.276872367698225 29.276872367698225 29.276872367698225 29.276872367698225 29.30763596410914 29.276872367698225 29.276872367698225 29.276872367698225 29.276872367698225 29.276872367698225 29.276872367698225 29.276872367698225 29.276872367698225 29.30763596410914 29.30763596410914 29.276872367698225 29.276872367698225 29.276872367698225 29.30763596410914 29.276872367698225 29.276872367698225 29.276872367698225 29.276872367698225 29.276872367698225 29.276872367698225 29.276872367698225 29.276872367698225 29.276872367698225 29.276872367698225 29.276872367698225 29.276872367698225 29.276872367698225 29.276872367698225 29.276872367698225 29.276872367698225 29.276872367698225 29.276872367698225 29.276872367698225 29.276872367698225 29.276872367698225 29.276872367698225 29.276872367698225 29.276872367698225 29.276872367698225 29.276872367698225 29.276872367698225 29.276872367698225 29.276872367698225 29.276872367698225 29.276872367698225 29.276872367698225 29.276872367698225 29.276872367698225 29.276872367698225 29.276872367698225 29.24610877128731 29.276872367698225 29.276872367698225 29.276872367698225 29.276872367698225 29.24610877128731 29.276872367698225 29.276872367698225 29.276872367698225 29.276872367698225 29.276872367698225 29.276872367698225 29.276872367698225 29.276872367698225 29.24610877128731 29.276872367698225 29.276872367698225 29.276872367698225 29.276872367698225 29.276872367698225 29.276872367698225 29.276872367698225 29.24610877128731 29.24610877128731 29.276872367698225 29.276872367698225 29.24610877128731 29.24610877128731 29.276872367698225 29.24610877128731 29.24610877128731 29.24610877128731 29.24610877128731 29.24610877128731 29.276872367698225 29.24610877128731 29.24610877128731 29.24610877128731 29.24610877128731 29.276872367698225 29.24610877128731 29.24610877128731 29.24610877128731 29.24610877128731 29.24610877128731 29.24610877128731 29.24610877128731 29.24610877128731 29.24610877128731 29.24610877128731 29.24610877128731 29.24610877128731 29.24610877128731 29.24610877128731 29.24610877128731 29.24610877128731 29.24610877128731 29.24610877128731 29.24610877128731 29.24610877128731 29.24610877128731 29.24610877128731 29.24610877128731 29.24610877128731 29.24610877128731 29.215345174876397 29.215345174876397 29.24610877128731 29.24610877128731 29.215345174876397 29.215345174876397 29.215345174876397 29.24610877128731 29.215345174876397 29.24610877128731 29.24610877128731 29.215345174876397 29.215345174876397 29.215345174876397 29.215345174876397 29.24610877128731 29.215345174876397 29.24610877128731 29.24610877128731 29.215345174876397 29.215345174876397 29.215345174876397 29.215345174876397 29.24610877128731 29.24610877128731 29.215345174876397 29.24610877128731 29.215345174876397 29.215345174876397 29.215345174876397 29.215345174876397 29.215345174876397 29.215345174876397 29.215345174876397 29.215345174876397 29.215345174876397 29.215345174876397 29.215345174876397 29.215345174876397 29.215345174876397 29.215345174876397 29.215345174876397 29.215345174876397 29.215345174876397 29.215345174876397 29.215345174876397 29.215345174876397 29.215345174876397 29.215345174876397 29.215345174876397 29.215345174876397 29.215345174876397 29.215345174876397 29.24610877128731 29.215345174876397 29.215345174876397 29.215345174876397 29.24610877128731 29.215345174876397 29.24610877128731 29.215345174876397 29.24610877128731 29.215345174876397 29.215345174876397 29.215345174876397 29.215345174876397 29.215345174876397 29.215345174876397 29.215345174876397 29.215345174876397 29.215345174876397 29.215345174876397 29.24610877128731 29.215345174876397 29.215345174876397 29.215345174876397 29.24610877128731 29.215345174876397 29.215345174876397 29.215345174876397 29.215345174876397 29.215345174876397 29.215345174876397 29.215345174876397 29.215345174876397 29.215345174876397 29.215345174876397 29.215345174876397 29.215345174876397 29.215345174876397 29.215345174876397 29.215345174876397 29.215345174876397 29.215345174876397 29.215345174876397 29.215345174876397 29.24610877128731 29.215345174876397 29.215345174876397 29.215345174876397 29.215345174876397 29.215345174876397 29.215345174876397 29.215345174876397 29.215345174876397 29.215345174876397 29.215345174876397 29.24610877128731 29.215345174876397 29.215345174876397 29.215345174876397 29.215345174876397 29.215345174876397 29.215345174876397 29.215345174876397 29.215345174876397 29.215345174876397 29.215345174876397 29.215345174876397 29.215345174876397 29.215345174876397 29.215345174876397 29.215345174876397 29.215345174876397 29.215345174876397 29.215345174876397 29.24610877128731 29.215345174876397 29.215345174876397 29.215345174876397 29.215345174876397 29.215345174876397 29.215345174876397 29.215345174876397 29.215345174876397 29.215345174876397 29.215345174876397 29.215345174876397 29.215345174876397 29.215345174876397 29.215345174876397 29.215345174876397 29.215345174876397 29.215345174876397 29.215345174876397 29.215345174876397 29.215345174876397 29.215345174876397 29.215345174876397 29.215345174876397 29.215345174876397 29.215345174876397 29.215345174876397 29.215345174876397 29.215345174876397 29.215345174876397 29.215345174876397 29.215345174876397 29.215345174876397 29.215345174876397 29.215345174876397 29.215345174876397 29.215345174876397 29.215345174876397 29.215345174876397 29.215345174876397 29.215345174876397 29.215345174876397 29.215345174876397 29.215345174876397 29.215345174876397 29.215345174876397 29.215345174876397 29.215345174876397 29.215345174876397 29.215345174876397 29.215345174876397 29.215345174876397 29.215345174876397 29.215345174876397 29.215345174876397 29.215345174876397 29.215345174876397 29.215345174876397 29.215345174876397 29.215345174876397 29.215345174876397 29.215345174876397 29.215345174876397 29.215345174876397 29.215345174876397 29.215345174876397 29.215345174876397 29.215345174876397 29.215345174876397 29.215345174876397 29.215345174876397 29.215345174876397 29.215345174876397 29.215345174876397 29.215345174876397 29.215345174876397 29.215345174876397 29.215345174876397 29.215345174876397 29.215345174876397 29.215345174876397 29.215345174876397 29.215345174876397 29.215345174876397 29.215345174876397 29.215345174876397 29.215345174876397 29.215345174876397 29.215345174876397 29.215345174876397 29.215345174876397 29.215345174876397 29.215345174876397 29.215345174876397 29.215345174876397 29.215345174876397 29.215345174876397 29.215345174876397 29.215345174876397 29.215345174876397 29.215345174876397 29.215345174876397 29.215345174876397 29.215345174876397 29.215345174876397 29.215345174876397 29.215345174876397 29.215345174876397 29.215345174876397 29.215345174876397 29.215345174876397 29.215345174876397 29.215345174876397 29.215345174876397 29.215345174876397 29.215345174876397 29.215345174876397 29.215345174876397 29.215345174876397 29.215345174876397 29.215345174876397 29.215345174876397 29.215345174876397 29.215345174876397 29.215345174876397 29.215345174876397 29.215345174876397 29.215345174876397 29.215345174876397 29.215345174876397 29.215345174876397 29.215345174876397 29.215345174876397 29.215345174876397 29.215345174876397 29.215345174876397 29.215345174876397 29.215345174876397 29.215345174876397 29.215345174876397 29.215345174876397 29.215345174876397 29.215345174876397 29.215345174876397 29.215345174876397 29.215345174876397 29.215345174876397 29.215345174876397 29.215345174876397 29.215345174876397 29.215345174876397 29.215345174876397 29.215345174876397 29.215345174876397 29.215345174876397 29.215345174876397 29.215345174876397 29.215345174876397 29.215345174876397 29.215345174876397 29.215345174876397 29.215345174876397 29.215345174876397 29.215345174876397 29.215345174876397 29.215345174876397 29.215345174876397 29.215345174876397 29.215345174876397 29.215345174876397 29.215345174876397 29.215345174876397 29.215345174876397 29.215345174876397 29.215345174876397 29.215345174876397 29.215345174876397 29.215345174876397 29.215345174876397 29.215345174876397 29.215345174876397 29.215345174876397 29.215345174876397 29.215345174876397 29.215345174876397 29.215345174876397 29.215345174876397 29.215345174876397 29.215345174876397 29.215345174876397 29.215345174876397 29.184581578465483 29.215345174876397 29.215345174876397 29.215345174876397 29.215345174876397 29.215345174876397 29.215345174876397 29.215345174876397 29.215345174876397 29.215345174876397 29.215345174876397 29.215345174876397 29.215345174876397 29.215345174876397 29.215345174876397 29.215345174876397 29.215345174876397 29.215345174876397 29.215345174876397 29.215345174876397 29.215345174876397 29.215345174876397 29.215345174876397 29.215345174876397 29.215345174876397 29.215345174876397 29.215345174876397 29.215345174876397 29.215345174876397 29.215345174876397 29.215345174876397 29.215345174876397 29.215345174876397 29.215345174876397 29.215345174876397 29.215345174876397 29.215345174876397 29.184581578465483 29.215345174876397 29.184581578465483 29.184581578465483 29.215345174876397 29.215345174876397 29.215345174876397 29.215345174876397 29.215345174876397 29.215345174876397 29.215345174876397 29.215345174876397 29.215345174876397 29.215345174876397 29.215345174876397 29.215345174876397 29.215345174876397 29.215345174876397 29.215345174876397 29.215345174876397 29.215345174876397 29.215345174876397 29.215345174876397 29.215345174876397 29.215345174876397 29.215345174876397 29.215345174876397 29.215345174876397 29.215345174876397 29.215345174876397 29.215345174876397 29.24610877128731 29.215345174876397 29.24610877128731 29.24610877128731 29.24610877128731 29.24610877128731 29.276872367698225 29.276872367698225 29.276872367698225 29.276872367698225 29.30763596410914 29.30763596410914 29.30763596410914 29.338399560520052 29.369163156930966 29.369163156930966 29.369163156930966 29.39992675334188 29.39992675334188 29.430690349752794 29.430690349752794 29.461453946163708 29.461453946163708 29.461453946163708 29.49221754257462 29.522981138985532 29.553744735396446 29.553744735396446 29.615271928218274 29.646035524629188 29.646035524629188 29.6767991210401 29.73832631386193 29.769089910272843 29.861380699505585 29.8921442959165 29.98443508514924 30.045962277971068 30.07672587438198 30.13825306720381 30.199780260025637 30.199780260025637 30.261307452847465 30.261307452847465 30.29207104925838 30.322834645669293 30.322834645669293 30.29207104925838 30.261307452847465 30.13825306720381 29.73832631386193 29.522981138985532 29.30763596410914 29.24610877128731 29.215345174876397 29.184581578465483 29.215345174876397 29.184581578465483 29.15381798205457 29.184581578465483 29.184581578465483 29.215345174876397 29.184581578465483 29.184581578465483 29.215345174876397 29.215345174876397 29.215345174876397 29.184581578465483 29.184581578465483 29.15381798205457 29.15381798205457 29.215345174876397 29.215345174876397 29.276872367698225 29.39992675334188 29.461453946163708 29.522981138985532 29.646035524629188 29.707562717451015 29.707562717451015 29.83061710309467 29.861380699505585 29.8921442959165 29.861380699505585 29.799853506683757 29.522981138985532 29.461453946163708 29.461453946163708 29.369163156930966 29.646035524629188 30.13825306720381 30.445889031312948 30.938106573887566 31.55337850210584 31.86101446621498 32.1378868339132 32.414759201611425 32.78392235854239 33.09155832265153 33.33766709393884 33.55301226881524 33.73759384728072 33.89141182933528 34.04522981138985 34.16828419703351 34.41439296832082 34.56821095037539 34.69126533601904 34.937374107306354 35.183482878593665 35.36806445705915 35.67570042116829 35.89104559604468 36.22944515656473 36.506317524262954 36.72166269913935 36.998535066837576 37.21388024171397 37.459989013001284 37.64457059146676 37.82915216993224 38.075260941219554 38.35213330891778 38.44442409815052 38.69053286943783 38.8443508514924 39.0596960263688 39.15198681560154 39.21351400842337 39.33656839406702 39.49038637612159 39.55191356894342 39.70573155099798 39.85954953305256 39.982603918696206 40.16718549716169 40.32100347921626 40.50558505768174 40.690166636147225 40.843984618201794 41.12085698590002 41.243911371543675 41.36696575718733 41.55154733565281 41.64383812488555 41.82841970335103 42.013001281816514 42.105292071049256 42.197582860282 42.259110053103825 42.35140084233657 42.44369163156931 42.53598242080205 42.659036806445705 42.812854788500275 42.905145577733016 43.0897271561985 43.21278154184215 43.45889031312946 43.5511811023622 43.64347189159494 43.85881706647134 44.10492583775865 44.28950741622413 44.56637978392236 44.6586705731551 44.781724958798755 44.84325215162058 44.874015748031496 44.99707013367515 45.181651712140635 45.27394250137337 45.396996887017025 45.52005127266068 45.643105658304336 45.85845083318073 45.98150521882439 46.13532320087896 46.38143197216627 46.596777147042665 46.904413111151804 47.1197582860282 47.550448635780995 47.82732100347921 48.011902581944696 48.19648416041018 48.44259293169749 48.59641091375206 48.84251968503936 49.027101263504846 49.27321003479216 49.39626442043581 49.48855520966856 49.61160959531221 49.70390038454495 49.73466398095587 49.76542757736678 49.79619117377769 49.82695477018861 49.82695477018861 49.82695477018861 49.82695477018861 49.85771836659953 49.85771836659953 49.85771836659953 49.82695477018861 49.82695477018861 49.85771836659953 49.85771836659953 49.82695477018861 49.82695477018861 49.82695477018861 49.82695477018861 49.79619117377769 49.79619117377769 49.79619117377769 49.76542757736678 49.76542757736678 49.76542757736678 49.79619117377769 49.79619117377769 49.76542757736678 49.76542757736678 49.76542757736678 49.76542757736678 49.76542757736678 49.76542757736678 49.76542757736678 49.76542757736678 49.76542757736678 49.76542757736678 49.76542757736678 49.76542757736678 49.79619117377769 49.76542757736678 49.76542757736678 49.76542757736678 49.73466398095587 49.73466398095587 49.73466398095587 49.76542757736678 49.73466398095587 49.73466398095587 49.73466398095587 49.73466398095587 49.73466398095587 49.73466398095587 49.73466398095587 49.73466398095587 49.73466398095587 49.73466398095587 49.70390038454495 49.70390038454495 49.673136788134045 49.673136788134045 49.642373191723124 49.642373191723124 49.61160959531221 49.580845998901296 49.51931880607947 49.51931880607947 49.48855520966856 49.48855520966856 49.45779161325764 49.48855520966856 49.45779161325764 49.48855520966856 49.45779161325764 49.45779161325764 49.45779161325764 49.48855520966856 49.48855520966856 49.45779161325764 49.45779161325764 49.45779161325764 49.45779161325764 49.45779161325764 49.48855520966856 49.45779161325764 49.45779161325764 49.48855520966856 49.48855520966856 49.45779161325764 49.48855520966856 49.48855520966856 49.48855520966856 49.45779161325764 49.48855520966856 49.45779161325764 49.48855520966856 49.45779161325764 49.48855520966856 49.48855520966856 49.45779161325764 49.45779161325764 49.45779161325764 49.45779161325764 49.45779161325764 49.45779161325764 49.427028016846734 49.427028016846734 49.427028016846734 49.39626442043581 49.427028016846734 49.427028016846734 49.39626442043581 