29.0 29.0 29.0 29.0 29.0 29.0 29.0 29.0 28.969236403589086 29.0 29.0 29.0 29.0 28.969236403589086 28.969236403589086 28.969236403589086 28.969236403589086 29.0 29.0 28.969236403589086 28.969236403589086 28.969236403589086 29.0 28.969236403589086 29.0 28.969236403589086 29.0 29.0 28.969236403589086 28.969236403589086 28.969236403589086 28.969236403589086 29.0 29.0 29.0 28.969236403589086 28.969236403589086 28.969236403589086 28.969236403589086 28.969236403589086 28.969236403589086 28.969236403589086 28.969236403589086 28.969236403589086 29.0 28.969236403589086 29.0 28.969236403589086 28.969236403589086 29.0 29.0 28.969236403589086 28.969236403589086 28.969236403589086 28.969236403589086 28.969236403589086 28.969236403589086 29.0 28.969236403589086 28.969236403589086 28.969236403589086 28.969236403589086 28.969236403589086 28.969236403589086 28.969236403589086 28.969236403589086 28.969236403589086 29.0 28.969236403589086 29.0 29.0 29.0 29.0 28.969236403589086 28.969236403589086 29.0 28.969236403589086 28.969236403589086 28.969236403589086 29.0 28.969236403589086 29.0 28.969236403589086 28.969236403589086 28.969236403589086 28.969236403589086 28.969236403589086 28.969236403589086 29.0 28.969236403589086 29.0 28.969236403589086 28.969236403589086 28.969236403589086 28.969236403589086 29.0 29.0 28.969236403589086 28.969236403589086 28.969236403589086 29.0 28.969236403589086 28.969236403589086 28.969236403589086 29.0 28.969236403589086 28.969236403589086 29.0 28.969236403589086 28.969236403589086 28.969236403589086 28.969236403589086 28.969236403589086 29.0 28.969236403589086 28.969236403589086 28.969236403589086 28.969236403589086 28.969236403589086 28.969236403589086 28.969236403589086 28.969236403589086 28.969236403589086 28.969236403589086 28.969236403589086 29.0 28.969236403589086 28.969236403589086 28.969236403589086 28.969236403589086 29.0 28.969236403589086 28.969236403589086 28.969236403589086 28.969236403589086 28.969236403589086 28.969236403589086 28.969236403589086 29.0 28.969236403589086 29.0 28.969236403589086 28.969236403589086 28.969236403589086 28.969236403589086 28.969236403589086 29.0 28.969236403589086 29.0 28.969236403589086 28.969236403589086 28.969236403589086 28.969236403589086 29.0 28.969236403589086 28.969236403589086 29.0 28.969236403589086 28.969236403589086 28.969236403589086 28.969236403589086 28.969236403589086 28.969236403589086 29.0 28.969236403589086 28.969236403589086 28.969236403589086 28.969236403589086 28.969236403589086 29.0 28.969236403589086 29.0 29.0 29.0 28.969236403589086 28.969236403589086 28.969236403589086 29.0 29.0 28.969236403589086 28.969236403589086 29.0 28.969236403589086 28.969236403589086 28.969236403589086 28.969236403589086 28.969236403589086 28.969236403589086 28.969236403589086 28.969236403589086 28.969236403589086 28.969236403589086 29.0 28.969236403589086 28.969236403589086 28.969236403589086 29.0 28.969236403589086 28.969236403589086 28.969236403589086 28.969236403589086 28.969236403589086 28.969236403589086 28.969236403589086 28.969236403589086 28.969236403589086 28.969236403589086 28.969236403589086 29.0 28.969236403589086 28.969236403589086 29.0 28.969236403589086 28.969236403589086 28.969236403589086 28.969236403589086 28.969236403589086 28.969236403589086 28.969236403589086 28.969236403589086 28.969236403589086 28.969236403589086 29.0 28.969236403589086 28.969236403589086 29.0 29.0 28.969236403589086 28.969236403589086 29.0 28.969236403589086 28.969236403589086 28.969236403589086 28.969236403589086 28.969236403589086 28.969236403589086 28.969236403589086 28.969236403589086 28.969236403589086 28.969236403589086 28.969236403589086 28.969236403589086 28.969236403589086 29.0 28.969236403589086 28.969236403589086 29.0 28.969236403589086 28.969236403589086 28.969236403589086 28.969236403589086 28.969236403589086 29.0 28.969236403589086 28.969236403589086 28.969236403589086 28.969236403589086 29.0 28.969236403589086 28.969236403589086 28.969236403589086 28.969236403589086 28.969236403589086 28.969236403589086 29.0 29.0 28.969236403589086 28.969236403589086 28.969236403589086 28.969236403589086 28.969236403589086 28.969236403589086 28.969236403589086 28.969236403589086 29.0 29.0 28.969236403589086 28.969236403589086 29.0 28.969236403589086 28.969236403589086 28.969236403589086 28.969236403589086 28.969236403589086 29.0 28.969236403589086 29.0 28.969236403589086 28.969236403589086 29.0 28.969236403589086 28.969236403589086 28.969236403589086 28.969236403589086 28.969236403589086 28.969236403589086 28.969236403589086 28.969236403589086 28.969236403589086 28.969236403589086 28.969236403589086 28.969236403589086 28.969236403589086 29.0 28.969236403589086 28.969236403589086 29.0 28.969236403589086 28.969236403589086 28.969236403589086 29.0 28.969236403589086 28.969236403589086 28.969236403589086 28.969236403589086 28.969236403589086 28.969236403589086 28.969236403589086 28.969236403589086 28.969236403589086 28.969236403589086 28.969236403589086 28.969236403589086 28.969236403589086 28.969236403589086 29.0 28.969236403589086 28.969236403589086 29.0 28.969236403589086 28.969236403589086 29.0 29.0 28.969236403589086 29.0 28.969236403589086 28.969236403589086 28.969236403589086 28.969236403589086 28.969236403589086 28.969236403589086 28.969236403589086 28.969236403589086 28.969236403589086 28.969236403589086 28.969236403589086 28.969236403589086 28.969236403589086 29.0 28.969236403589086 28.969236403589086 28.969236403589086 28.969236403589086 28.969236403589086 28.969236403589086 28.969236403589086 28.969236403589086 28.969236403589086 28.969236403589086 28.969236403589086 28.969236403589086 28.969236403589086 28.969236403589086 29.0 29.0 29.0 28.969236403589086 29.0 28.969236403589086 28.969236403589086 28.969236403589086 28.969236403589086 28.969236403589086 28.969236403589086 29.0 28.969236403589086 28.969236403589086 28.969236403589086 28.969236403589086 28.969236403589086 29.0 28.969236403589086 28.969236403589086 28.969236403589086 28.969236403589086 28.969236403589086 28.969236403589086 28.969236403589086 29.0 29.0 28.969236403589086 28.969236403589086 28.969236403589086 28.969236403589086 28.969236403589086 28.969236403589086 28.969236403589086 28.969236403589086 28.969236403589086 28.969236403589086 28.969236403589086 28.969236403589086 28.969236403589086 28.969236403589086 28.969236403589086 28.969236403589086 29.0 28.969236403589086 28.969236403589086 29.0 28.969236403589086 28.969236403589086 28.969236403589086 28.969236403589086 28.969236403589086 28.969236403589086 28.969236403589086 28.969236403589086 28.969236403589086 28.969236403589086 29.0 28.969236403589086 28.969236403589086 29.0 28.969236403589086 28.969236403589086 28.969236403589086 28.969236403589086 28.969236403589086 28.969236403589086 28.969236403589086 28.969236403589086 29.0 29.0 28.969236403589086 28.969236403589086 28.969236403589086 28.969236403589086 28.969236403589086 28.969236403589086 28.969236403589086 28.969236403589086 28.969236403589086 28.969236403589086 28.969236403589086 28.969236403589086 28.969236403589086 28.969236403589086 28.969236403589086 29.0 28.969236403589086 28.969236403589086 28.969236403589086 29.0 28.969236403589086 29.0 28.969236403589086 28.969236403589086 28.969236403589086 28.969236403589086 28.969236403589086 29.0 28.969236403589086 28.969236403589086 28.969236403589086 28.969236403589086 28.969236403589086 29.0 28.969236403589086 28.969236403589086 28.969236403589086 28.969236403589086 28.969236403589086 28.969236403589086 28.969236403589086 28.969236403589086 28.969236403589086 28.969236403589086 28.969236403589086 28.969236403589086 28.969236403589086 28.969236403589086 28.969236403589086 29.0 28.969236403589086 28.969236403589086 28.969236403589086 28.969236403589086 28.969236403589086 28.969236403589086 28.969236403589086 28.969236403589086 28.969236403589086 28.969236403589086 28.969236403589086 28.969236403589086 28.969236403589086 29.0 28.969236403589086 28.969236403589086 28.969236403589086 29.0 28.969236403589086 28.969236403589086 28.969236403589086 28.969236403589086 28.969236403589086 28.969236403589086 28.969236403589086 28.969236403589086 28.969236403589086 28.969236403589086 28.969236403589086 28.969236403589086 28.969236403589086 28.969236403589086 28.969236403589086 28.969236403589086 28.969236403589086 28.969236403589086 28.969236403589086 29.0 28.969236403589086 28.969236403589086 28.969236403589086 28.969236403589086 28.969236403589086 29.0 28.969236403589086 28.969236403589086 28.969236403589086 28.969236403589086 28.969236403589086 28.969236403589086 28.969236403589086 28.969236403589086 28.969236403589086 28.969236403589086 28.969236403589086 29.0 28.969236403589086 28.969236403589086 28.969236403589086 29.0 28.969236403589086 28.969236403589086 28.969236403589086 28.969236403589086 28.969236403589086 28.969236403589086 28.969236403589086 28.969236403589086 29.0 28.969236403589086 29.0 28.969236403589086 28.969236403589086 28.969236403589086 28.969236403589086 28.969236403589086 28.969236403589086 28.969236403589086 28.969236403589086 28.969236403589086 28.969236403589086 29.0 28.969236403589086 28.969236403589086 28.969236403589086 28.969236403589086 28.969236403589086 28.969236403589086 28.969236403589086 28.969236403589086 28.969236403589086 28.969236403589086 28.969236403589086 28.969236403589086 28.969236403589086 28.969236403589086 28.969236403589086 28.969236403589086 28.969236403589086 28.969236403589086 28.969236403589086 29.0 28.969236403589086 28.969236403589086 28.969236403589086 28.969236403589086 28.969236403589086 28.969236403589086 28.969236403589086 28.969236403589086 28.969236403589086 28.969236403589086 28.969236403589086 28.969236403589086 28.969236403589086 28.969236403589086 28.969236403589086 28.969236403589086 28.969236403589086 28.969236403589086 28.969236403589086 28.969236403589086 29.0 29.0 28.969236403589086 29.0 28.969236403589086 29.0 28.969236403589086 28.969236403589086 28.969236403589086 28.969236403589086 29.0 28.969236403589086 28.969236403589086 28.969236403589086 29.0 28.969236403589086 29.0 29.0 28.969236403589086 28.969236403589086 28.969236403589086 29.0 28.969236403589086 28.969236403589086 28.969236403589086 28.969236403589086 28.969236403589086 29.0 28.969236403589086 28.969236403589086 28.969236403589086 28.969236403589086 29.0 28.969236403589086 28.969236403589086 28.969236403589086 29.0 28.969236403589086 29.0 29.0 29.0 29.0 29.0 29.0 29.0 29.0 29.030763596410914 29.030763596410914 29.030763596410914 29.030763596410914 29.061527192821828 29.061527192821828 29.09229078923274 29.061527192821828 29.09229078923274 29.09229078923274 29.123054385643655 29.15381798205457 29.184581578465483 29.215345174876397 29.24610877128731 29.24610877128731 29.30763596410914 29.30763596410914 29.338399560520052 29.369163156930966 29.39992675334188 29.39992675334188 29.430690349752794 29.461453946163708 29.49221754257462 29.522981138985532 29.553744735396446 29.615271928218274 29.646035524629188 29.707562717451015 29.73832631386193 29.769089910272843 29.83061710309467 29.8921442959165 29.953671488738326 30.015198681560154 30.045962277971068 30.07672587438198 30.13825306720381 30.169016663614723 30.23054385643655 30.29207104925838 30.353598242080206 30.415125434902034 30.507416224134772 30.630470609778428 30.72276139901117 30.907342977476652 30.999633766709394 31.091924555942136 31.153451748763963 31.307269730818533 31.399560520051274 31.461087712873102 31.522614905694926 31.614905694927668 31.64566929133858 31.768723676982237 31.830250869804065 31.95330525544772 32.1378868339132 32.260941219556855 32.3532320087896 32.507049990844166 32.63010437648782 32.814685954953305 32.93774034059696 33.12232191906244 33.27613990111701 33.39919428676067 33.55301226881524 33.67606665445889 33.922175425746204 34.137520600622594 34.26057498626625 34.56821095037539 34.783556125251785 35.06042849295001 35.429591649880976 35.55264603552463 36.01409998168833 36.26020875297564 36.506317524262954 36.998535066837576 37.33693462735763 37.61380699505585 37.9522065555759 38.10602453763047 38.475187694561434 38.8443508514924 39.24427760483428 39.61344076176525 39.95184032228529 40.16718549716169 40.444057864859914 40.56711225050357 40.81322102179088 40.936275407434536 41.02856619666728 41.05932979307819 41.05932979307819 41.05932979307819 41.05932979307819 41.05932979307819 41.05932979307819 41.05932979307819 41.02856619666728 41.02856619666728 41.02856619666728 41.02856619666728 41.02856619666728 41.02856619666728 40.997802600256364 40.997802600256364 40.96703900384545 40.936275407434536 40.936275407434536 40.90551181102362 40.87474821461271 40.87474821461271 40.90551181102362 40.90551181102362 40.90551181102362 40.90551181102362 40.90551181102362 40.90551181102362 40.90551181102362 40.90551181102362 40.90551181102362 40.90551181102362 40.90551181102362 40.90551181102362 40.90551181102362 40.90551181102362 40.90551181102362 40.90551181102362 40.90551181102362 40.90551181102362 40.90551181102362 40.90551181102362 40.90551181102362 40.90551181102362 40.90551181102362 40.90551181102362 40.90551181102362 40.843984618201794 40.843984618201794 40.843984618201794 40.843984618201794 40.78245742537997 40.78245742537997 40.78245742537997 40.78245742537997 40.78245742537997 40.78245742537997 40.78245742537997 40.78245742537997 40.78245742537997 40.78245742537997 40.78245742537997 40.78245742537997 40.78245742537997 40.78245742537997 40.78245742537997 40.81322102179088 40.81322102179088 40.81322102179088 40.81322102179088 40.81322102179088 40.81322102179088 40.81322102179088 40.81322102179088 40.81322102179088 40.81322102179088 40.81322102179088 40.81322102179088 40.81322102179088 40.81322102179088 40.81322102179088 40.81322102179088 40.81322102179088 40.81322102179088 40.81322102179088 40.81322102179088 40.81322102179088 40.81322102179088 40.81322102179088 40.81322102179088 40.81322102179088 40.81322102179088 40.81322102179088 40.81322102179088 40.81322102179088 40.81322102179088 40.81322102179088 40.81322102179088 40.81322102179088 40.81322102179088 40.81322102179088 40.81322102179088 40.81322102179088 40.81322102179088 40.81322102179088 40.81322102179088 40.81322102179088 40.81322102179088 40.78245742537997 40.81322102179088 40.81322102179088 40.81322102179088 40.81322102179088 40.81322102179088 40.81322102179088 40.81322102179088 40.81322102179088 40.81322102179088 40.81322102179088 40.81322102179088 40.81322102179088 40.81322102179088 40.81322102179088 40.81322102179088 40.843984618201794 40.843984618201794 40.81322102179088 40.843984618201794 40.81322102179088 40.81322102179088 40.81322102179088 40.843984618201794 40.81322102179088 40.843984618201794 40.843984618201794 40.843984618201794 40.81322102179088 40.843984618201794 40.81322102179088 40.81322102179088 40.81322102179088 40.81322102179088 40.81322102179088 40.81322102179088 40.81322102179088 40.81322102179088 40.78245742537997 40.81322102179088 40.81322102179088 40.81322102179088 40.78245742537997 40.81322102179088 40.78245742537997 40.78245742537997 40.81322102179088 40.81322102179088 40.81322102179088 40.81322102179088 40.81322102179088 40.81322102179088 40.81322102179088 40.81322102179088 40.81322102179088 40.81322102179088 40.81322102179088 40.81322102179088 40.81322102179088 40.81322102179088 40.81322102179088 40.81322102179088 40.81322102179088 40.81322102179088 40.81322102179088 40.81322102179088 40.81322102179088 40.81322102179088 40.843984618201794 40.81322102179088 40.81322102179088 40.81322102179088 40.81322102179088 40.81322102179088 40.81322102179088 40.81322102179088 40.81322102179088 40.81322102179088 40.81322102179088 40.81322102179088 40.81322102179088 40.81322102179088 40.81322102179088 40.81322102179088 40.81322102179088 40.81322102179088 40.81322102179088 40.81322102179088 40.81322102179088 40.81322102179088 40.81322102179088 40.81322102179088 40.81322102179088 40.81322102179088 40.81322102179088 40.81322102179088 40.81322102179088 40.81322102179088 40.81322102179088 40.81322102179088 40.81322102179088 40.81322102179088 40.81322102179088 40.81322102179088 40.81322102179088 40.81322102179088 40.81322102179088 40.81322102179088 40.81322102179088 40.81322102179088 40.81322102179088 40.81322102179088 40.81322102179088 40.843984618201794 40.843984618201794 40.843984618201794 40.81322102179088 40.843984618201794 40.843984618201794 40.843984618201794 40.843984618201794 40.843984618201794 40.843984618201794 40.843984618201794 40.81322102179088 40.843984618201794 40.81322102179088 40.843984618201794 40.843984618201794 40.843984618201794 40.843984618201794 40.843984618201794 40.81322102179088 40.843984618201794 40.843984618201794 40.843984618201794 40.843984618201794 40.81322102179088 40.81322102179088 40.81322102179088 40.81322102179088 40.81322102179088 40.843984618201794 40.81322102179088 40.81322102179088 40.81322102179088 40.81322102179088 40.81322102179088 40.81322102179088 40.81322102179088 40.78245742537997 40.78245742537997 40.78245742537997 40.78245742537997 40.75169382896905 40.75169382896905 40.75169382896905 40.72093023255814 40.690166636147225 40.65940303973631 40.597875846914484 40.536348654092656 40.47482146127083 40.444057864859914 40.38253067203809 40.35176707562717 40.290239882805345 40.25947628639443 40.22871268998352 40.16718549716169 40.07489470792895 39.95184032228529 39.79802234023072 39.674967954587075 39.5211499725325 39.30580479765611 39.121223219190625 38.875114447903314 38.567478483794176 38.25984251968504 37.9522065555759 37.73686138069951 37.552279802234025 37.18311664530306 36.81395348837209 36.444790331441126 36.1679179637429 35.82951840322285 35.55264603552463 35.36806445705915 35.15271928218275 35.029664896539096 34.937374107306354 34.84508331807361 34.75279252884087 34.629738143197216 34.475920161142646 34.383629371909905 34.29133858267716 34.229811389855335 34.16828419703351 34.075993407800766 34.01446621497894 33.860648232924376 33.73759384728072 33.64530305804798 33.55301226881524 33.368430690349754 33.27613990111701 33.15308551547336 33.0300311298297 32.84544955136422 32.69163156930965 32.568577183665994 32.38399560520051 32.19941402673503 32.107123237502286 31.95330525544772 31.86101446621498 31.70719648416041 31.584142098516754 31.491851309284012 31.491851309284012 31.461087712873102 31.461087712873102 31.399560520051274 31.338033327229446 31.27650613440762 31.21497894158579 31.153451748763963 31.12268815235305 31.06116095953122 30.96887017029848 30.907342977476652 30.845815784654825 30.81505218824391 30.72276139901117 30.630470609778428 30.445889031312948 30.29207104925838 30.13825306720381 29.98443508514924 29.8921442959165 29.73832631386193 29.6767991210401 29.615271928218274 29.553744735396446 29.553744735396446 29.522981138985532 29.49221754257462 29.461453946163708 29.430690349752794 29.39992675334188 29.39992675334188 29.369163156930966 29.369163156930966 29.369163156930966 29.369163156930966 29.338399560520052 29.338399560520052 29.338399560520052 29.30763596410914 29.338399560520052 29.30763596410914 29.30763596410914 29.30763596410914 29.276872367698225 29.276872367698225 29.24610877128731 29.24610877128731 29.24610877128731 29.24610877128731 29.24610877128731 29.24610877128731 29.24610877128731 29.24610877128731 29.24610877128731 29.24610877128731 29.215345174876397 29.215345174876397 29.24610877128731 29.215345174876397 29.215345174876397 29.215345174876397 29.215345174876397 29.215345174876397 29.215345174876397 29.24610877128731 29.215345174876397 29.215345174876397 29.215345174876397 29.215345174876397 29.215345174876397 29.215345174876397 29.215345174876397 29.215345174876397 29.215345174876397 29.215345174876397 29.215345174876397 29.215345174876397 29.215345174876397 29.215345174876397 29.215345174876397 29.215345174876397 29.215345174876397 29.215345174876397 29.215345174876397 29.215345174876397 29.215345174876397 29.215345174876397 29.215345174876397 29.215345174876397 29.215345174876397 29.215345174876397 29.215345174876397 29.215345174876397 29.215345174876397 29.215345174876397 29.215345174876397 29.215345174876397 29.215345174876397 29.215345174876397 29.215345174876397 29.215345174876397 29.215345174876397 29.215345174876397 29.215345174876397 29.215345174876397 29.215345174876397 29.215345174876397 29.215345174876397 29.215345174876397 29.215345174876397 29.215345174876397 29.215345174876397 29.215345174876397 29.215345174876397 29.215345174876397 29.215345174876397 29.215345174876397 29.215345174876397 29.215345174876397 29.215345174876397 29.215345174876397 29.215345174876397 29.215345174876397 29.184581578465483 29.184581578465483 29.184581578465483 29.184581578465483 29.184581578465483 29.184581578465483 29.184581578465483 29.184581578465483 29.184581578465483 29.184581578465483 29.184581578465483 29.184581578465483 29.184581578465483 29.184581578465483 29.184581578465483 29.184581578465483 29.184581578465483 29.184581578465483 29.184581578465483 29.184581578465483 29.184581578465483 29.184581578465483 29.184581578465483 29.184581578465483 29.184581578465483 29.15381798205457 29.184581578465483 29.15381798205457 29.184581578465483 29.15381798205457 29.184581578465483 29.15381798205457 29.184581578465483 29.15381798205457 29.15381798205457 29.15381798205457 29.15381798205457 29.15381798205457 29.15381798205457 29.15381798205457 29.15381798205457 29.15381798205457 29.15381798205457 29.15381798205457 29.123054385643655 29.15381798205457 29.123054385643655 29.123054385643655 29.123054385643655 29.123054385643655 29.123054385643655 29.123054385643655 29.123054385643655 29.123054385643655 29.123054385643655 29.09229078923274 29.123054385643655 29.123054385643655 29.123054385643655 29.123054385643655 29.123054385643655 29.123054385643655 29.123054385643655 29.123054385643655 29.123054385643655 29.123054385643655 29.123054385643655 29.123054385643655 29.09229078923274 29.09229078923274 29.09229078923274 29.09229078923274 29.123054385643655 29.123054385643655 29.123054385643655 29.123054385643655 29.123054385643655 29.123054385643655 29.09229078923274 29.09229078923274 29.09229078923274 29.09229078923274 29.123054385643655 29.09229078923274 29.123054385643655 29.123054385643655 29.09229078923274 29.123054385643655 29.09229078923274 29.123054385643655 29.123054385643655 29.09229078923274 29.09229078923274 29.123054385643655 29.09229078923274 29.09229078923274 29.123054385643655 29.123054385643655 29.09229078923274 29.123054385643655 29.09229078923274 29.09229078923274 29.09229078923274 29.123054385643655 29.09229078923274 29.123054385643655 29.09229078923274 29.09229078923274 29.09229078923274 29.09229078923274 29.09229078923274 29.09229078923274 29.09229078923274 29.123054385643655 29.09229078923274 29.123054385643655 29.09229078923274 29.123054385643655 29.09229078923274 29.09229078923274 29.09229078923274 29.09229078923274 29.09229078923274 29.09229078923274 29.09229078923274 29.123054385643655 29.09229078923274 29.09229078923274 29.09229078923274 29.09229078923274 29.123054385643655 29.09229078923274 29.09229078923274 29.123054385643655 29.09229078923274 29.09229078923274 29.09229078923274 29.09229078923274 29.09229078923274 29.09229078923274 29.123054385643655 29.09229078923274 29.09229078923274 29.123054385643655 29.09229078923274 29.09229078923274 29.09229078923274 29.09229078923274 29.123054385643655 29.123054385643655 29.09229078923274 29.09229078923274 29.09229078923274 29.09229078923274 29.123054385643655 29.09229078923274 29.09229078923274 29.09229078923274 29.09229078923274 29.09229078923274 29.09229078923274 29.09229078923274 29.09229078923274 29.09229078923274 29.09229078923274 29.09229078923274 29.09229078923274 29.09229078923274 29.061527192821828 29.09229078923274 29.09229078923274 29.061527192821828 29.09229078923274 29.061527192821828 29.061527192821828 29.09229078923274 29.09229078923274 29.09229078923274 29.09229078923274 29.09229078923274 29.09229078923274 29.09229078923274 29.09229078923274 29.123054385643655 29.123054385643655 29.15381798205457 29.215345174876397 29.30763596410914 29.338399560520052 29.430690349752794 29.49221754257462 29.615271928218274 29.6767991210401 29.83061710309467 29.953671488738326 30.015198681560154 30.07672587438198 30.199780260025637 30.261307452847465 30.353598242080206 30.5689434169566 30.66123420618934 30.72276139901117 30.938106573887566 30.999633766709394 31.184215345174877 31.338033327229446 31.55337850210584 31.768723676982237 31.891778062625892 32.04559604468046 32.19941402673503 32.32246841237868 32.44552279802234 32.53781358725508 32.660867972898735 32.814685954953305 32.906976744186046 33.060794726240616 33.2453763047061 33.33766709393884 33.55301226881524 33.67606665445889 33.829884636513455 34.01446621497894 34.10675700421168 34.19904779344442 34.41439296832082 34.56821095037539 34.783556125251785 34.96813770371727 35.27577366782641 35.583409631935545 35.98333638527742 36.22944515656473 36.598608313495696 36.93700787401575 37.33693462735763 37.70609778428859 38.25984251968504 39.121223219190625 39.5211499725325 40.16718549716169 40.65940303973631 41.15162058231093 41.5207837392419 42.07452847463834 42.566746017212964 42.966672770554844 43.21278154184215 43.5511811023622 43.88958066288225 44.074162241347736 44.35103460904596 44.50485259110053 44.75096136238784 44.90477934444241 45.02783373008606 45.181651712140635 45.21241530855154 45.24317890496246 45.27394250137337 45.27394250137337 45.27394250137337 45.27394250137337 45.27394250137337 45.27394250137337 45.27394250137337 45.27394250137337 45.27394250137337 45.27394250137337 45.27394250137337 45.27394250137337 45.27394250137337 45.27394250137337 45.24317890496246 45.24317890496246 45.27394250137337 45.24317890496246 45.27394250137337 45.24317890496246 45.24317890496246 45.24317890496246 45.24317890496246 45.24317890496246 45.24317890496246 45.24317890496246 45.24317890496246 45.24317890496246 45.24317890496246 45.24317890496246 45.27394250137337 45.27394250137337 45.24317890496246 45.24317890496246 45.27394250137337 45.27394250137337 45.27394250137337 45.27394250137337 45.27394250137337 45.27394250137337 45.27394250137337 45.27394250137337 45.27394250137337 45.27394250137337 45.27394250137337 45.27394250137337 45.27394250137337 45.24317890496246 45.24317890496246 45.24317890496246 45.24317890496246 45.24317890496246 45.27394250137337 45.24317890496246 45.21241530855154 45.181651712140635 45.12012451931881 45.05859732649698 45.02783373008606 44.99707013367515 44.935542940853324 44.90477934444241 44.874015748031496 44.84325215162058 44.81248855520967 44.81248855520967 44.81248855520967 44.781724958798755 44.81248855520967 44.81248855520967 44.81248855520967 44.81248855520967 44.81248855520967 44.81248855520967 44.84325215162058 44.84325215162058 44.81248855520967 44.84325215162058 44.84325215162058 44.84325215162058 44.84325215162058 44.81248855520967 44.81248855520967 44.84325215162058 44.81248855520967 44.81248855520967 44.81248855520967 44.81248855520967 44.81248855520967 44.81248855520967 44.81248855520967 44.84325215162058 44.81248855520967 44.81248855520967 44.81248855520967 44.781724958798755 44.781724958798755 44.75096136238784 44.75096136238784 44.72019776597693 44.6586705731551 44.6586705731551 44.627906976744185 44.627906976744185 44.59714338033327 44.59714338033327 44.56637978392236 44.535616187511444 44.535616187511444 44.50485259110053 44.474088994689616 44.41256180186779 44.35103460904596 44.32027101263505 44.28950741622413 44.25874381981322 44.19721662699139 44.16645303058048 44.135689434169564 44.135689434169564 44.135689434169564 44.135689434169564 44.16645303058048 44.16645303058048 44.135689434169564 44.135689434169564 44.135689434169564 44.135689434169564 44.135689434169564 44.16645303058048 44.19721662699139 44.16645303058048 44.19721662699139 44.19721662699139 44.19721662699139 44.227980223402305 44.227980223402305 44.227980223402305 44.25874381981322 44.28950741622413 44.28950741622413 44.28950741622413 44.28950741622413 44.28950741622413 44.28950741622413 44.28950741622413 44.28950741622413 44.28950741622413 44.28950741622413 44.32027101263505 44.32027101263505 44.32027101263505 44.32027101263505 44.28950741622413 44.32027101263505 44.32027101263505 44.32027101263505 44.32027101263505 44.32027101263505 44.32027101263505 44.32027101263505 44.32027101263505 44.32027101263505 44.32027101263505 44.32027101263505 44.32027101263505 44.32027101263505 44.28950741622413 44.28950741622413 44.28950741622413 44.19721662699139 44.135689434169564 44.04339864493682 43.95110785570408 43.95110785570408 43.95110785570408 43.95110785570408 43.95110785570408 43.95110785570408 43.95110785570408 43.95110785570408 43.95110785570408 43.981871452114994 44.01263504852591 44.01263504852591 44.01263504852591 44.04339864493682 44.04339864493682 44.04339864493682 44.04339864493682 44.04339864493682 44.04339864493682 44.074162241347736 44.074162241347736 44.074162241347736 44.10492583775865 44.10492583775865 44.135689434169564 44.135689434169564 44.10492583775865 44.10492583775865 44.135689434169564 44.10492583775865 44.135689434169564 44.135689434169564 44.135689434169564 44.135689434169564 44.135689434169564 44.135689434169564 44.135689434169564 44.135689434169564 44.135689434169564 44.135689434169564 44.135689434169564 44.135689434169564 44.135689434169564 44.135689434169564 44.135689434169564 44.10492583775865 44.135689434169564 44.10492583775865 44.10492583775865 44.074162241347736 44.04339864493682 44.04339864493682 44.01263504852591 44.01263504852591 44.01263504852591 44.01263504852591 43.981871452114994 43.981871452114994 43.95110785570408 43.88958066288225 43.79728987364952 43.70499908441677 43.581944698773114 43.366599523896724 43.21278154184215 43.028199963376665 42.68980040285662 42.505218824391136 42.22834645669291 41.951474088994686 41.705365317707376 41.42849295000916 41.21314777513276 40.87474821461271 40.56711225050357 40.35176707562717 40.044131111518034 39.82878593664164 39.49038637612159 39.15198681560154 38.875114447903314 38.35213330891778 38.04449734480864 37.921442959164985 37.4907526094122 37.21388024171397 36.998535066837576 36.62937190990661 36.41402673503021 36.106390770921074 35.82951840322285 35.61417322834646 35.30653726423732 34.99890130012818 34.8143197216627 34.5989745467863 34.50668375755356 34.35286577549899 34.229811389855335 34.04522981138985 33.89141182933528 33.79912104010255 33.7068302508698 33.55301226881524 33.42995788317158 33.214612708295185 33.09155832265153 32.968503937007874 32.814685954953305 32.69163156930965 32.59934078007691 32.44552279802234 32.29170481596777 32.1378868339132 31.984068851858634 31.891778062625892 31.737960080571323 31.614905694927668 31.55337850210584 31.430324116462188 31.399560520051274 31.36879692364036 31.36879692364036 31.338033327229446 31.27650613440762 31.21497894158579 31.12268815235305 31.06116095953122 30.999633766709394 30.96887017029848 30.907342977476652 30.81505218824391 30.72276139901117 30.691997802600255 30.630470609778428 30.538179820545686 30.507416224134772 30.445889031312948 30.415125434902034 30.353598242080206 30.322834645669293 30.29207104925838 30.261307452847465 30.199780260025637 30.169016663614723 30.107489470792896 30.07672587438198 30.045962277971068 30.015198681560154 29.953671488738326 29.922907892327412 29.861380699505585 29.83061710309467 29.769089910272843 29.707562717451015 29.6767991210401 29.6767991210401 29.6767991210401 29.6767991210401 29.646035524629188 29.646035524629188 29.646035524629188 29.615271928218274 29.615271928218274 29.615271928218274 29.615271928218274 29.615271928218274 29.615271928218274 29.58450833180736 29.553744735396446 29.522981138985532 29.49221754257462 29.430690349752794 29.430690349752794 29.39992675334188 29.369163156930966 29.369163156930966 29.30763596410914 29.30763596410914 29.276872367698225 29.24610877128731 29.24610877128731 29.24610877128731 29.24610877128731 29.215345174876397 29.24610877128731 29.215345174876397 29.215345174876397 29.215345174876397 29.215345174876397 29.215345174876397 29.215345174876397 29.215345174876397 29.215345174876397 29.215345174876397 29.215345174876397 29.215345174876397 29.215345174876397 29.215345174876397 29.215345174876397 29.215345174876397 29.215345174876397 29.215345174876397 29.215345174876397 29.215345174876397 29.215345174876397 29.215345174876397 29.215345174876397 29.215345174876397 29.184581578465483 29.184581578465483 29.184581578465483 29.184581578465483 29.215345174876397 29.184581578465483 29.184581578465483 29.184581578465483 29.184581578465483 29.184581578465483 29.184581578465483 29.184581578465483 29.15381798205457 29.184581578465483 29.184581578465483 29.15381798205457 29.15381798205457 29.184581578465483 29.184581578465483 29.184581578465483 29.15381798205457 29.184581578465483 29.15381798205457 29.15381798205457 29.15381798205457 29.15381798205457 29.15381798205457 29.15381798205457 29.15381798205457 29.15381798205457 29.15381798205457 29.15381798205457 29.15381798205457 29.15381798205457 29.15381798205457 29.15381798205457 29.15381798205457 29.15381798205457 29.123054385643655 29.123054385643655 29.123054385643655 29.123054385643655 29.123054385643655 29.123054385643655 29.123054385643655 29.123054385643655 29.123054385643655 29.123054385643655 29.123054385643655 29.123054385643655 29.123054385643655 29.123054385643655 29.123054385643655 29.123054385643655 29.123054385643655 29.123054385643655 29.123054385643655 29.123054385643655 29.123054385643655 29.123054385643655 29.123054385643655 29.123054385643655 29.123054385643655 29.123054385643655 29.123054385643655 29.123054385643655 29.123054385643655 29.123054385643655 29.123054385643655 29.123054385643655 29.123054385643655 29.123054385643655 29.123054385643655 29.123054385643655 29.123054385643655 29.123054385643655 29.123054385643655 29.123054385643655 29.123054385643655 29.123054385643655 29.123054385643655 29.123054385643655 29.123054385643655 29.123054385643655 29.123054385643655 29.123054385643655 29.123054385643655 29.123054385643655 29.123054385643655 29.123054385643655 29.123054385643655 29.123054385643655 29.123054385643655 29.09229078923274 29.123054385643655 29.123054385643655 29.123054385643655 29.123054385643655 29.123054385643655 29.123054385643655 29.123054385643655 29.123054385643655 29.09229078923274 29.123054385643655 29.123054385643655 29.123054385643655 29.123054385643655 29.123054385643655 29.123054385643655 29.123054385643655 29.123054385643655 29.123054385643655 29.123054385643655 29.123054385643655 29.123054385643655 29.123054385643655 29.123054385643655 29.123054385643655 29.123054385643655 29.123054385643655 29.123054385643655 29.123054385643655 29.123054385643655 29.123054385643655 29.123054385643655 29.09229078923274 29.123054385643655 29.123054385643655 29.123054385643655 29.123054385643655 29.123054385643655 29.123054385643655 29.123054385643655 29.123054385643655 29.123054385643655 29.123054385643655 29.09229078923274 29.123054385643655 29.123054385643655 29.123054385643655 29.123054385643655 29.123054385643655 29.123054385643655 29.123054385643655 29.09229078923274 29.123054385643655 29.123054385643655 29.123054385643655 29.123054385643655 29.123054385643655 29.123054385643655 29.123054385643655 29.123054385643655 29.123054385643655 29.123054385643655 29.123054385643655 29.123054385643655 29.123054385643655 29.123054385643655 29.123054385643655 29.123054385643655 29.123054385643655 29.123054385643655 29.123054385643655 29.123054385643655 29.123054385643655 29.123054385643655 29.123054385643655 29.123054385643655 29.123054385643655 29.123054385643655 29.123054385643655 29.123054385643655 29.123054385643655 29.123054385643655 29.123054385643655 29.123054385643655 29.123054385643655 29.123054385643655 29.123054385643655 29.123054385643655 29.123054385643655 29.123054385643655 29.123054385643655 29.123054385643655 29.123054385643655 29.123054385643655 29.123054385643655 29.123054385643655 29.123054385643655 29.123054385643655 29.123054385643655 29.123054385643655 29.123054385643655 29.09229078923274 29.123054385643655 29.123054385643655 29.123054385643655 29.09229078923274 29.09229078923274 29.09229078923274 29.123054385643655 29.123054385643655 29.123054385643655 29.123054385643655 29.123054385643655 29.123054385643655 29.123054385643655 29.123054385643655 29.123054385643655 29.123054385643655 29.123054385643655 29.123054385643655 29.123054385643655 29.123054385643655 29.123054385643655 29.123054385643655 29.123054385643655 29.123054385643655 29.123054385643655 29.123054385643655 29.123054385643655 29.123054385643655 29.123054385643655 29.123054385643655 29.123054385643655 29.123054385643655 29.123054385643655 29.123054385643655 29.123054385643655 29.123054385643655 29.123054385643655 29.123054385643655 29.123054385643655 29.123054385643655 29.123054385643655 29.123054385643655 29.123054385643655 29.123054385643655 29.123054385643655 29.123054385643655 29.123054385643655 29.123054385643655 29.123054385643655 29.123054385643655 29.123054385643655 29.123054385643655 29.123054385643655 29.123054385643655 29.123054385643655 29.123054385643655 29.123054385643655 29.123054385643655 29.123054385643655 29.123054385643655 29.123054385643655 29.123054385643655 29.15381798205457 29.15381798205457 29.15381798205457 29.215345174876397 29.215345174876397 29.24610877128731 29.24610877128731 29.276872367698225 29.30763596410914 29.338399560520052 29.338399560520052 29.369163156930966 29.39992675334188 29.430690349752794 29.461453946163708 29.461453946163708 29.522981138985532 29.553744735396446 29.615271928218274 29.707562717451015 29.73832631386193 29.83061710309467 29.922907892327412 29.98443508514924 30.015198681560154 30.07672587438198 30.13825306720381 30.169016663614723 30.23054385643655 30.261307452847465 30.322834645669293 30.38436183849112 30.415125434902034 30.47665262772386 30.507416224134772 30.599707013367514 30.66123420618934 30.72276139901117 30.784288591832997 30.845815784654825 30.907342977476652 30.999633766709394 31.153451748763963 31.36879692364036 31.461087712873102 31.64566929133858 31.79948727339315 32.07635964109137 32.260941219556855 32.38399560520051 32.53781358725508 32.69163156930965 32.814685954953305 33.09155832265153 33.27613990111701 33.460721479582496 33.64530305804798 33.73759384728072 33.860648232924376 34.075993407800766 34.229811389855335 34.44515656473173 34.5989745467863 34.8143197216627 35.06042849295001 35.21424647500458 35.61417322834646 35.82951840322285 36.044863578099246 36.3832631386193 36.752426295550265 36.998535066837576 37.4907526094122 37.73686138069951 38.13678813404138 38.413660501739606 38.65976927302692 39.0596960263688 39.45962277971067 39.85954953305256 40.22871268998352 40.50558505768174 40.843984618201794 41.090093389489105 41.459256546420065 41.73612891411829 41.951474088994686 42.28987364951474 42.659036806445705 42.905145577733016 43.42812671671855 43.581944698773114 43.92034425929317 44.28950741622413 44.535616187511444 44.90477934444241 45.24317890496246 45.58157846548251 45.88921442959165 46.043032411646216 46.31990477934444 46.658304339864486 46.81212232191906 46.965940303973625 47.08899468961728 47.15052188243911 47.212049075260936 47.24281267167186 47.33510346090459 47.36586705731551 47.42739425013734 47.42739425013734 47.42739425013734 47.42739425013734 47.42739425013734 47.45815784654825 47.42739425013734 47.42739425013734 47.42739425013734 47.42739425013734 47.42739425013734 47.42739425013734 47.42739425013734 47.42739425013734 47.42739425013734 47.42739425013734 47.42739425013734 47.39663065372642 47.42739425013734 47.39663065372642 47.42739425013734 47.39663065372642 47.39663065372642 47.39663065372642 47.39663065372642 47.39663065372642 47.39663065372642 47.39663065372642 47.39663065372642 47.39663065372642 47.36586705731551 47.33510346090459 47.304339864493684 47.27357626808276 47.24281267167186 47.212049075260936 47.212049075260936 47.212049075260936 47.18128547885003 47.18128547885003 47.18128547885003 47.18128547885003 47.18128547885003 47.18128547885003 47.18128547885003 47.18128547885003 47.18128547885003 47.18128547885003 47.18128547885003 47.212049075260936 47.212049075260936 47.18128547885003 47.18128547885003 47.18128547885003 47.212049075260936 47.212049075260936 47.212049075260936 47.18128547885003 47.18128547885003 47.212049075260936 47.18128547885003 47.18128547885003 47.18128547885003 47.18128547885003 47.18128547885003 47.18128547885003 47.212049075260936 47.212049075260936 47.18128547885003 47.18128547885003 47.18128547885003 47.18128547885003 47.212049075260936 47.212049075260936 47.212049075260936 47.18128547885003 47.18128547885003 47.212049075260936 47.18128547885003 47.18128547885003 47.18128547885003 47.15052188243911 47.15052188243911 47.15052188243911 47.18128547885003 47.18128547885003 47.15052188243911 47.15052188243911 47.15052188243911 47.15052188243911 47.18128547885003 47.18128547885003 47.15052188243911 47.18128547885003 47.18128547885003 47.15052188243911 47.18128547885003 47.15052188243911 47.15052188243911 47.15052188243911 47.15052188243911 47.18128547885003 47.18128547885003 47.18128547885003 47.15052188243911 47.18128547885003 47.18128547885003 47.15052188243911 47.18128547885003 47.18128547885003 47.18128547885003 47.18128547885003 47.18128547885003 47.18128547885003 47.18128547885003 47.18128547885003 47.18128547885003 47.18128547885003 47.18128547885003 47.18128547885003 47.18128547885003 47.18128547885003 47.18128547885003 47.18128547885003 47.18128547885003 47.18128547885003 47.18128547885003 47.18128547885003 47.212049075260936 47.18128547885003 47.18128547885003 47.212049075260936 47.212049075260936 47.212049075260936 47.212049075260936 47.18128547885003 47.212049075260936 47.212049075260936 47.212049075260936 47.18128547885003 47.18128547885003 47.212049075260936 47.212049075260936 47.212049075260936 47.212049075260936 47.212049075260936 47.18128547885003 47.18128547885003 47.18128547885003 47.18128547885003 47.18128547885003 47.18128547885003 47.18128547885003 47.18128547885003 47.18128547885003 47.18128547885003 47.18128547885003 47.18128547885003 47.18128547885003 47.15052188243911 47.18128547885003 47.15052188243911 47.15052188243911 47.15052188243911 47.18128547885003 47.15052188243911 47.18128547885003 47.15052188243911 47.15052188243911 47.15052188243911 47.18128547885003 47.15052188243911 47.18128547885003 47.18128547885003 47.18128547885003 47.15052188243911 47.15052188243911 47.18128547885003 47.18128547885003 47.18128547885003 47.18128547885003 47.18128547885003 47.18128547885003 47.18128547885003 47.18128547885003 47.18128547885003 47.18128547885003 47.212049075260936 47.18128547885003 47.18128547885003 47.18128547885003 47.18128547885003 47.18128547885003 47.18128547885003 47.18128547885003 47.18128547885003 47.18128547885003 47.18128547885003 47.18128547885003 47.18128547885003 47.18128547885003 47.18128547885003 47.18128547885003 47.18128547885003 47.18128547885003 47.18128547885003 47.18128547885003 47.18128547885003 47.18128547885003 47.18128547885003 47.18128547885003 47.18128547885003 47.18128547885003 47.18128547885003 47.18128547885003 47.18128547885003 47.18128547885003 47.18128547885003 47.18128547885003 47.18128547885003 47.18128547885003 47.18128547885003 47.18128547885003 47.18128547885003 47.18128547885003 47.18128547885003 47.18128547885003 47.18128547885003 47.18128547885003 47.18128547885003 47.18128547885003 47.18128547885003 47.18128547885003 47.18128547885003 47.18128547885003 47.18128547885003 47.18128547885003 47.18128547885003 47.18128547885003 47.18128547885003 47.18128547885003 47.18128547885003 47.212049075260936 47.18128547885003 47.212049075260936 47.18128547885003 47.18128547885003 47.18128547885003 47.212049075260936 47.212049075260936 47.18128547885003 47.212049075260936 47.18128547885003 47.18128547885003 47.18128547885003 47.18128547885003 47.18128547885003 47.18128547885003 47.18128547885003 47.18128547885003 47.18128547885003 47.18128547885003 47.18128547885003 47.18128547885003 47.18128547885003 47.18128547885003 47.18128547885003 47.18128547885003 47.18128547885003 47.18128547885003 47.18128547885003 47.18128547885003 47.18128547885003 47.18128547885003 47.18128547885003 47.18128547885003 47.18128547885003 47.18128547885003 47.18128547885003 47.18128547885003 47.18128547885003 47.18128547885003 47.18128547885003 47.18128547885003 47.18128547885003 47.18128547885003 47.18128547885003 47.18128547885003 47.18128547885003 47.18128547885003 47.18128547885003 47.18128547885003 47.1197582860282 47.02746749679545 46.965940303973625 46.87364951474089 46.750595129097235 46.68906793627541 46.596777147042665 46.47372276139901 46.38143197216627 46.28914118293353 46.196850393700785 46.043032411646216 45.91997802600257 45.735396447537084 45.643105658304336 45.45852407983885 45.27394250137337 45.05859732649698 44.90477934444241 44.72019776597693 44.35103460904596 44.135689434169564 43.88958066288225 43.42812671671855 43.18201794543124 42.8743819813221 42.62827321003479 42.28987364951474 41.951474088994686 41.73612891411829 41.459256546420065 41.21314777513276 41.02856619666728 40.81322102179088 40.690166636147225 40.413294268449 40.1979490935726 40.10565830433986 39.76725874381981 39.5211499725325 39.367331990477936 39.0596960263688 38.875114447903314 38.59824208020509 38.25984251968504 38.075260941219554 37.70609778428859 37.33693462735763 37.02929866324849 36.62937190990661 36.32173594579747 35.86028199963376 35.429591649880976 35.09119208936092 34.8143197216627 34.66050173960813 34.537447353964474 34.383629371909905 34.26057498626625 34.01446621497894 33.829884636513455 33.67606665445889 33.460721479582496 33.33766709393884 33.18384911188427 32.968503937007874 32.84544955136422 32.660867972898735 32.47628639443325 32.32246841237868 32.1378868339132 32.04559604468046 31.95330525544772 31.830250869804065 31.768723676982237 31.737960080571323 31.70719648416041 31.676432887749495 31.614905694927668 31.584142098516754 31.522614905694926 31.461087712873102 31.399560520051274 31.27650613440762 31.153451748763963 31.091924555942136 31.030397363120308 30.938106573887566 30.845815784654825 30.784288591832997 30.753524995422083 30.66123420618934 30.599707013367514 30.538179820545686 30.47665262772386 30.415125434902034 30.38436183849112 30.353598242080206 30.353598242080206 30.322834645669293 30.29207104925838 30.29207104925838 30.261307452847465 30.23054385643655 30.199780260025637 30.199780260025637 30.169016663614723 30.13825306720381 30.13825306720381 30.13825306720381 30.13825306720381 30.107489470792896 30.107489470792896 30.107489470792896 30.07672587438198 30.07672587438198 30.07672587438198 30.07672587438198 30.07672587438198 30.07672587438198 30.045962277971068 30.045962277971068 30.045962277971068 30.045962277971068 30.045962277971068 30.015198681560154 30.045962277971068 30.015198681560154 30.015198681560154 30.015198681560154 30.015198681560154 30.015198681560154 30.015198681560154 30.015198681560154 30.015198681560154 30.015198681560154 30.015198681560154 30.015198681560154 30.015198681560154 30.015198681560154 30.015198681560154 30.015198681560154 30.015198681560154 30.015198681560154 30.015198681560154 30.015198681560154 30.015198681560154 30.015198681560154 30.015198681560154 29.98443508514924 29.98443508514924 29.98443508514924 29.98443508514924 29.98443508514924 30.015198681560154 29.98443508514924 29.98443508514924 29.98443508514924 29.98443508514924 29.953671488738326 29.953671488738326 29.953671488738326 29.922907892327412 29.922907892327412 29.8921442959165 29.861380699505585 29.861380699505585 29.83061710309467 29.799853506683757 29.769089910272843 29.769089910272843 29.73832631386193 29.707562717451015 29.707562717451015 29.646035524629188 29.646035524629188 29.615271928218274 29.615271928218274 29.58450833180736 29.553744735396446 29.553744735396446 29.522981138985532 29.49221754257462 29.461453946163708 29.430690349752794 29.430690349752794 29.369163156930966 29.369163156930966 29.369163156930966 29.338399560520052 29.338399560520052 29.338399560520052 29.338399560520052 29.30763596410914 29.338399560520052 29.338399560520052 29.30763596410914 29.30763596410914 29.30763596410914 29.30763596410914 29.30763596410914 29.30763596410914 29.30763596410914 29.30763596410914 29.30763596410914 29.30763596410914 29.30763596410914 29.30763596410914 29.30763596410914 29.30763596410914 29.30763596410914 29.30763596410914 29.30763596410914 29.30763596410914 29.30763596410914 29.30763596410914 29.30763596410914 29.30763596410914 29.30763596410914 29.30763596410914 29.30763596410914 29.276872367698225 29.30763596410914 29.30763596410914 29.30763596410914 29.30763596410914 29.30763596410914 29.30763596410914 29.276872367698225 29.30763596410914 29.276872367698225 29.30763596410914 29.30763596410914 29.30763596410914 29.30763596410914 29.276872367698225 29.276872367698225 29.30763596410914 29.30763596410914 29.30763596410914 29.30763596410914 29.276872367698225 29.276872367698225 29.276872367698225 29.30763596410914 29.30763596410914 29.30763596410914 29.30763596410914 29.30763596410914 29.30763596410914 29.276872367698225 29.30763596410914 29.276872367698225 29.30763596410914 29.276872367698225 29.30763596410914 29.276872367698225 29.276872367698225 29.30763596410914 29.276872367698225 29.276872367698225 29.276872367698225 29.276872367698225 29.276872367698225 29.276872367698225 29.276872367698225 29.276872367698225 29.276872367698225 29.276872367698225 29.276872367698225 29.276872367698225 29.276872367698225 29.30763596410914 29.276872367698225 29.276872367698225 29.276872367698225 29.276872367698225 29.276872367698225 29.276872367698225 29.276872367698225 29.276872367698225 29.276872367698225 29.276872367698225 29.276872367698225 29.276872367698225 29.276872367698225 29.276872367698225 29.276872367698225 29.276872367698225 29.276872367698225 29.276872367698225 29.276872367698225 29.276872367698225 29.276872367698225 29.276872367698225 29.276872367698225 29.276872367698225 29.30763596410914 29.276872367698225 29.30763596410914 29.276872367698225 29.276872367698225 29.276872367698225 29.276872367698225 29.276872367698225 29.30763596410914 29.276872367698225 29.276872367698225 29.276872367698225 29.30763596410914 29.30763596410914 29.276872367698225 29.276872367698225 29.276872367698225 29.276872367698225 29.30763596410914 29.30763596410914 29.30763596410914 29.30763596410914 29.30763596410914 29.30763596410914 29.30763596410914 29.30763596410914 29.30763596410914 29.30763596410914 29.30763596410914 29.30763596410914 29.30763596410914 29.338399560520052 29.338399560520052 29.338399560520052 29.338399560520052 29.338399560520052 29.369163156930966 29.369163156930966 29.369163156930966 29.39992675334188 29.39992675334188 29.430690349752794 29.430690349752794 29.430690349752794 29.461453946163708 29.49221754257462 29.522981138985532 29.553744735396446 29.58450833180736 29.615271928218274 29.6767991210401 29.707562717451015 29.769089910272843 29.799853506683757 29.8921442959165 29.98443508514924 30.07672587438198 30.199780260025637 30.261307452847465 30.322834645669293 30.415125434902034 30.507416224134772 30.691997802600255 30.784288591832997 30.938106573887566 31.12268815235305 31.27650613440762 31.338033327229446 31.461087712873102 31.55337850210584 31.70719648416041 31.830250869804065 32.04559604468046 32.32246841237868 32.53781358725508 32.660867972898735 32.84544955136422 32.968503937007874 33.15308551547336 33.30690349752793 33.614539461637065 33.829884636513455 33.922175425746204 34.075993407800766 34.229811389855335 34.383629371909905 34.629738143197216 34.87584691448453 35.12195568577184 35.36806445705915 35.583409631935545 35.79875480681194 36.13715436733199 36.32173594579747 36.598608313495696 36.78318989196118 37.02929866324849 37.2754074345358 37.4907526094122 37.67533418787768 37.9522065555759 38.167551730452296 38.44442409815052 38.721296465848745 38.967405237136056 39.275041201245195 39.674967954587075 40.01336751510712 40.22871268998352 40.50558505768174 40.936275407434536 41.21314777513276 41.58231093206372 41.92071049258377 42.197582860282 42.53598242080205 42.905145577733016 43.15125434902033 43.52041750595129 43.828053470060425 44.227980223402305 44.6586705731551 45.089360922907886 45.427760483427946 45.76616004394799 46.25837758652261 46.750595129097235 47.1197582860282 47.64273942501373 47.91961179271196 48.19648416041018 48.719465299395715 48.9040468778612 49.21168284197033 49.673136788134045 49.888481963010435 50.288408716352315 50.65757187328328 50.934444240981506 51.242080205090645 51.488188976377955 51.826588536898 52.103460904596226 52.31880607947262 52.59567844717085 52.87255081486907 53.118659586156376 53.27247756821095 53.3955319538546 53.580113532320084 53.67240432155283 53.73393151437466 53.76469511078557 53.79545870719648 53.826222303607395 53.88774949642922 54.01080388207288 54.072331074894706 54.226149056949275 54.2876762497711 54.41073063541476 54.53378502105841 54.65683940670207 54.81065738875664 54.933711774400294 55.11829335286578 55.30287493133125 55.425929316974916 55.641274491851306 55.82585607031679 56.01043764878227 56.195019227247755 56.28731001648049 56.41036440212415 56.53341878776781 56.656473173411456 56.81029115546603 56.93334554110969 56.964109137520595 57.02563633034242 57.02563633034242 57.056399926753336 57.08716352316425 57.08716352316425 57.08716352316425 57.08716352316425 57.08716352316425 57.08716352316425 57.08716352316425 57.08716352316425 57.08716352316425 57.08716352316425 57.08716352316425 57.08716352316425 57.08716352316425 57.08716352316425 57.08716352316425 57.08716352316425 57.08716352316425 57.08716352316425 57.08716352316425 57.08716352316425 57.08716352316425 57.08716352316425 57.08716352316425 57.08716352316425 57.08716352316425 57.08716352316425 57.08716352316425 57.08716352316425 57.08716352316425 57.08716352316425 57.08716352316425 57.08716352316425 57.08716352316425 57.08716352316425 57.08716352316425 57.08716352316425 57.08716352316425 57.056399926753336 57.08716352316425 57.08716352316425 57.08716352316425 57.08716352316425 57.08716352316425 57.08716352316425 57.08716352316425 57.056399926753336 57.08716352316425 57.08716352316425 57.08716352316425 57.08716352316425 57.08716352316425 57.08716352316425 57.08716352316425 57.08716352316425 57.08716352316425 57.08716352316425 57.08716352316425 57.08716352316425 57.08716352316425 57.08716352316425 57.08716352316425 57.08716352316425 57.08716352316425 57.08716352316425 57.08716352316425 57.08716352316425 57.08716352316425 57.08716352316425 57.08716352316425 57.08716352316425 57.08716352316425 57.08716352316425 57.08716352316425 57.08716352316425 57.08716352316425 57.08716352316425 57.08716352316425 57.056399926753336 57.08716352316425 57.056399926753336 57.08716352316425 57.08716352316425 57.08716352316425 57.08716352316425 57.08716352316425 57.08716352316425 57.08716352316425 57.08716352316425 57.08716352316425 57.08716352316425 57.08716352316425 57.08716352316425 57.08716352316425 57.08716352316425 57.08716352316425 57.08716352316425 57.08716352316425 57.056399926753336 57.08716352316425 57.08716352316425 57.08716352316425 57.08716352316425 57.08716352316425 57.08716352316425 57.08716352316425 57.08716352316425 57.08716352316425 57.08716352316425 57.056399926753336 57.056399926753336 57.08716352316425 57.08716352316425 57.056399926753336 57.056399926753336 57.056399926753336 57.056399926753336 57.056399926753336 57.056399926753336 57.056399926753336 57.056399926753336 57.056399926753336 57.02563633034242 57.02563633034242 57.056399926753336 57.02563633034242 57.02563633034242 57.02563633034242 57.02563633034242 56.994872733931516 56.964109137520595 56.93334554110969 56.87181834828786 56.841054751876946 56.841054751876946 56.841054751876946 56.81029115546603 56.77952755905512 56.748763962644205 56.718000366233284 56.718000366233284 56.68723676982238 56.68723676982238 56.656473173411456 56.62570957700055 56.62570957700055 56.62570957700055 56.59494598058963 56.59494598058963 56.59494598058963 56.59494598058963 56.59494598058963 56.59494598058963 56.59494598058963 56.59494598058963 56.59494598058963 56.59494598058963 56.59494598058963 56.59494598058963 56.59494598058963 56.59494598058963 56.59494598058963 56.59494598058963 56.59494598058963 56.59494598058963 56.59494598058963 56.59494598058963 56.56418238417872 56.56418238417872 56.53341878776781 56.53341878776781 56.53341878776781 56.53341878776781 56.53341878776781 56.53341878776781 56.53341878776781 56.53341878776781 56.53341878776781 56.53341878776781 56.53341878776781 56.53341878776781 56.53341878776781 56.53341878776781 56.53341878776781 56.53341878776781 56.53341878776781 56.53341878776781 56.53341878776781 56.53341878776781 56.53341878776781 56.53341878776781 56.502655191356894 56.47189159494598 56.41036440212415 56.31807361289141 56.28731001648049 56.16425563083684 56.041201245193186 55.948910455960444 55.67203808826222 55.48745650979674 55.33363852774217 55.087529756454856 54.9644753708112 54.74913019593481 54.47225782823658 54.19538546053836 53.918513092840136 53.610877128731005 53.3955319538546 53.057132393334555 52.811023622047244 52.47262406152719 52.13422450100714 51.85735213330892 51.488188976377955 51.05749862662516 50.71909906610511 50.16535433070866 49.85771836659953 49.580845998901296 49.21168284197033 48.93481047427211 48.50412012451932 47.91961179271196 47.61197582860282 47.212049075260936 46.93517670756272 46.68906793627541 46.31990477934444 46.07379600805713 45.70463285112616 45.27394250137337 44.96630653726424 44.50485259110053 44.16645303058048 43.7665262772386 43.39736312030763 43.12049075260941 42.659036806445705 42.13605566746017 41.73612891411829 41.243911371543675 40.72093023255814 40.413294268449 39.982603918696206 39.674967954587075 39.121223219190625 38.8443508514924 38.629005676616 38.38289690532869 38.22907892327412 38.075260941219554 37.767624977110415 37.521516205823104 37.152353048892145 36.87548068119392 36.56784471708478 36.22944515656473 35.82951840322285 35.46035524629189 35.27577366782641 35.06042849295001 34.783556125251785 34.629738143197216 34.35286577549899 34.229811389855335 34.075993407800766 33.89141182933528 33.73759384728072 33.58377586522615 33.2453763047061 32.99926753341879 32.75315876213148 32.47628639443325 32.3532320087896 32.19941402673503 31.984068851858634 31.86101446621498 31.737960080571323 31.64566929133858 31.491851309284012 31.36879692364036 31.245742537996705 31.184215345174877 31.12268815235305 31.06116095953122 30.96887017029848 30.87657938106574 30.691997802600255 30.599707013367514 30.538179820545686 30.507416224134772 30.445889031312948 30.38436183849112 30.353598242080206 30.322834645669293 30.29207104925838 30.29207104925838 30.261307452847465 30.261307452847465 30.23054385643655 30.23054385643655 30.23054385643655 30.23054385643655 30.199780260025637 30.199780260025637 30.169016663614723 30.13825306720381 30.13825306720381 30.107489470792896 30.07672587438198 30.045962277971068 30.015198681560154 30.015198681560154 30.015198681560154 29.98443508514924 29.98443508514924 29.98443508514924 29.953671488738326 29.98443508514924 29.953671488738326 29.953671488738326 29.922907892327412 29.922907892327412 29.922907892327412 29.922907892327412 29.8921442959165 29.8921442959165 29.8921442959165 29.861380699505585 29.861380699505585 29.861380699505585 29.861380699505585 29.83061710309467 29.83061710309467 29.83061710309467 29.799853506683757 29.799853506683757 29.769089910272843 29.73832631386193 29.73832631386193 29.707562717451015 29.6767991210401 29.6767991210401 29.646035524629188 29.646035524629188 29.646035524629188 29.615271928218274 29.615271928218274 29.58450833180736 29.58450833180736 29.58450833180736 29.553744735396446 29.553744735396446 29.553744735396446 29.553744735396446 29.522981138985532 29.522981138985532 29.49221754257462 29.49221754257462 29.461453946163708 29.461453946163708 29.430690349752794 29.430690349752794 29.39992675334188 29.39992675334188 29.369163156930966 29.369163156930966 29.369163156930966 29.369163156930966 29.369163156930966 29.369163156930966 29.369163156930966 29.369163156930966 29.369163156930966 29.369163156930966 29.369163156930966 29.369163156930966 29.369163156930966 29.369163156930966 29.369163156930966 29.369163156930966 29.369163156930966 29.338399560520052 29.338399560520052 29.338399560520052 29.338399560520052 29.338399560520052 29.338399560520052 29.338399560520052 29.338399560520052 29.338399560520052 29.338399560520052 29.338399560520052 29.338399560520052 29.338399560520052 29.338399560520052 29.338399560520052 29.338399560520052 29.338399560520052 29.338399560520052 29.338399560520052 29.338399560520052 29.338399560520052 29.338399560520052 29.338399560520052 29.338399560520052 29.338399560520052 29.338399560520052 29.338399560520052 29.338399560520052 29.338399560520052 29.338399560520052 29.338399560520052 29.338399560520052 29.338399560520052 29.338399560520052 29.338399560520052 29.338399560520052 29.338399560520052 29.338399560520052 29.338399560520052 29.338399560520052 29.338399560520052 29.338399560520052 29.338399560520052 29.338399560520052 29.338399560520052 29.338399560520052 29.338399560520052 29.338399560520052 29.338399560520052 29.338399560520052 29.338399560520052 29.338399560520052 29.338399560520052 29.338399560520052 29.338399560520052 29.338399560520052 29.338399560520052 29.338399560520052 29.338399560520052 29.338399560520052 29.338399560520052 29.338399560520052 29.338399560520052 29.338399560520052 29.338399560520052 29.338399560520052 29.338399560520052 29.338399560520052 29.338399560520052 29.338399560520052 29.338399560520052 29.338399560520052 29.338399560520052 29.338399560520052 29.338399560520052 29.338399560520052 29.338399560520052 29.338399560520052 29.338399560520052 29.338399560520052 29.338399560520052 29.338399560520052 29.338399560520052 29.338399560520052 29.338399560520052 29.338399560520052 29.338399560520052 29.338399560520052 29.338399560520052 29.338399560520052 29.338399560520052 29.338399560520052 29.338399560520052 29.338399560520052 29.338399560520052 29.338399560520052 29.338399560520052 29.338399560520052 29.338399560520052 29.369163156930966 29.369163156930966 29.338399560520052 29.338399560520052 29.338399560520052 29.369163156930966 29.338399560520052 29.369163156930966 29.369163156930966 29.369163156930966 29.338399560520052 29.338399560520052 29.369163156930966 29.369163156930966 29.369163156930966 29.338399560520052 29.338399560520052 29.369163156930966 29.369163156930966 29.338399560520052 29.369163156930966 29.369163156930966 29.338399560520052 29.338399560520052 29.369163156930966 29.369163156930966 29.369163156930966 29.338399560520052 29.369163156930966 29.369163156930966 29.369163156930966 29.369163156930966 29.369163156930966 29.369163156930966 29.369163156930966 29.369163156930966 29.369163156930966 29.369163156930966 29.369163156930966 29.369163156930966 29.369163156930966 29.369163156930966 29.369163156930966 29.369163156930966 29.369163156930966 29.369163156930966 29.369163156930966 29.369163156930966 29.39992675334188 29.39992675334188 29.39992675334188 29.430690349752794 29.39992675334188 29.461453946163708 29.49221754257462 29.522981138985532 29.615271928218274 29.646035524629188 29.707562717451015 29.769089910272843 29.83061710309467 29.861380699505585 29.922907892327412 29.98443508514924 30.13825306720381 30.23054385643655 30.38436183849112 30.507416224134772 30.630470609778428 30.81505218824391 30.907342977476652 31.153451748763963 31.27650613440762 31.36879692364036 31.491851309284012 31.64566929133858 31.737960080571323 31.891778062625892 31.95330525544772 32.168650430324114 32.23017762314594 32.3532320087896 32.53781358725508 32.63010437648782 32.72239516572056 32.906976744186046 32.99926753341879 33.15308551547336 33.368430690349754 33.58377586522615 33.7068302508698 33.860648232924376 33.983702618568024 34.16828419703351 34.29133858267716 34.50668375755356 34.72202893242996 34.90661051089544 35.12195568577184 35.39882805347006 35.706464017579194 35.9218091924556 36.13715436733199 36.444790331441126 36.81395348837209 37.060062259659404 37.58304339864493 37.98297015198681 38.321369712506865 38.69053286943783 38.967405237136056 39.24427760483428 39.79802234023072 40.07489470792895 40.536348654092656 40.96703900384545 41.243911371543675 41.797656106940124 42.013001281816514 42.22834645669291 42.53598242080205 42.78209119208936 43.058963559787585 43.39736312030763 43.73576268082768 44.10492583775865 44.32027101263505 44.59714338033327 44.96630653726424 45.21241530855154 45.82768723676982 46.13532320087896 46.596777147042665 47.05823109320637 47.36586705731551 47.64273942501373 48.165720563999265 48.44259293169749 48.81175608862846 49.05786485991577 49.39626442043581 49.73466398095587 49.95000915583226 50.2576451199414 50.534517487639626 50.78062625892693 50.995971433803334 51.18055301226882 51.39589818714521 51.703534151254345 51.85735213330892 52.011170115363484 52.257278886650795 52.411096868705364 52.65720563999267 52.84178721845816 53.026368796923634 53.21095037538912 53.364768357443694 53.580113532320084 53.76469511078557 53.88774949642922 54.072331074894706 54.226149056949275 54.34920344259293 54.41073063541476 54.5030214246475 54.56454861746933 54.59531221388024 54.65683940670207 54.65683940670207 54.65683940670207 54.65683940670207 54.65683940670207 54.65683940670207 54.626075810291155 54.65683940670207 54.626075810291155 54.626075810291155 54.59531221388024 54.53378502105841 54.5030214246475 54.47225782823658 54.44149423182567 54.379967039003844 54.31843984618202 54.2876762497711 54.25691265336019 54.226149056949275 54.226149056949275 54.226149056949275 54.226149056949275 54.16462186412745 54.13385826771653 54.10309467130563 54.10309467130563 54.072331074894706 54.0415674784838 54.0415674784838 54.01080388207288 54.01080388207288 53.980040285661964 53.980040285661964 53.94927668925105 53.918513092840136 53.918513092840136 53.918513092840136 53.918513092840136 53.918513092840136 53.918513092840136 53.918513092840136 53.918513092840136 53.918513092840136 53.918513092840136 53.918513092840136 53.918513092840136 53.918513092840136 53.918513092840136 53.918513092840136 53.918513092840136 53.918513092840136 53.918513092840136 53.918513092840136 53.918513092840136 53.918513092840136 53.918513092840136 53.918513092840136 53.88774949642922 53.85698590001831 53.79545870719648 53.76469511078557 53.73393151437466 53.67240432155283 53.64164072514191 53.610877128731005 53.610877128731005 53.580113532320084 53.580113532320084 53.54934993590917 53.54934993590917 53.518586339498256 53.518586339498256 53.54934993590917 53.518586339498256 53.518586339498256 53.54934993590917 53.518586339498256 53.54934993590917 53.518586339498256 53.518586339498256 53.518586339498256 53.518586339498256 53.54934993590917 53.518586339498256 53.518586339498256 53.518586339498256 53.48782274308734 53.45705914667643 53.42629555026552 53.42629555026552 53.3955319538546 53.3955319538546 53.3955319538546 53.3955319538546 53.3955319538546 53.3955319538546 53.3955319538546 53.3955319538546 53.3955319538546 53.364768357443694 53.364768357443694 53.364768357443694 53.3955319538546 53.364768357443694 53.3955319538546 53.3955319538546 53.3955319538546 53.3955319538546 53.3955319538546 53.364768357443694 53.3955319538546 53.364768357443694 53.3955319538546 53.3955319538546 53.3955319538546 53.364768357443694 53.3955319538546 53.3955319538546 53.3955319538546 53.3955319538546 53.3955319538546 53.3955319538546 53.3955319538546 53.364768357443694 53.3955319538546 53.3955319538546 53.3955319538546 53.364768357443694 53.3955319538546 53.3955319538546 53.3955319538546 53.3955319538546 53.3955319538546 53.3955319538546 53.3955319538546 53.3955319538546 53.364768357443694 53.3955319538546 53.3955319538546 53.3955319538546 53.3955319538546 53.3955319538546 53.3955319538546 53.3955319538546 53.3955319538546 53.3955319538546 53.3955319538546 53.3955319538546 53.3955319538546 53.3955319538546 53.3955319538546 53.3955319538546 53.3955319538546 53.364768357443694 53.3955319538546 53.364768357443694 53.33400476103277 53.27247756821095 53.21095037538912 53.18018677897821 53.14942318256729 53.08789598974546 53.026368796923634 52.99560520051273 52.96484160410181 52.96484160410181 52.9340780076909 52.903314411279986 52.903314411279986 52.903314411279986 52.87255081486907 52.811023622047244 52.718732832814496 52.65720563999267 52.62644204358176 52.59567844717085 52.59567844717085 52.59567844717085 52.59567844717085 52.59567844717085 52.56491485075993 52.59567844717085 52.59567844717085 52.59567844717085 52.59567844717085 52.59567844717085 52.59567844717085 52.59567844717085 52.59567844717085 52.59567844717085 52.59567844717085 52.59567844717085 52.59567844717085 52.59567844717085 52.59567844717085 52.59567844717085 52.59567844717085 52.59567844717085 52.59567844717085 52.59567844717085 52.59567844717085 52.56491485075993 52.56491485075993 52.56491485075993 52.56491485075993 52.56491485075993 52.56491485075993 52.56491485075993 52.56491485075993 52.56491485075993 52.56491485075993 52.56491485075993 52.56491485075993 52.56491485075993 52.56491485075993 52.56491485075993 52.56491485075993 52.56491485075993 52.56491485075993 52.56491485075993 52.56491485075993 52.56491485075993 52.56491485075993 52.56491485075993 52.56491485075993 52.56491485075993 52.56491485075993 52.56491485075993 52.56491485075993 52.56491485075993 52.56491485075993 52.56491485075993 52.56491485075993 52.503387657938106 52.503387657938106 52.47262406152719 52.411096868705364 52.411096868705364 52.34956967588353 52.34956967588353 52.31880607947262 52.257278886650795 52.16498809741805 52.07269730818531 52.0419337117744 51.98040651895257 51.949642922541656 51.98040651895257 51.98040651895257 51.949642922541656 51.949642922541656 51.98040651895257 51.98040651895257 51.98040651895257 51.98040651895257 51.98040651895257 51.98040651895257 51.98040651895257 51.98040651895257 51.98040651895257 51.98040651895257 51.98040651895257 51.98040651895257 51.98040651895257 52.011170115363484 52.011170115363484 52.011170115363484 51.98040651895257 52.011170115363484 52.011170115363484 51.98040651895257 51.98040651895257 51.98040651895257 51.98040651895257 52.011170115363484 52.011170115363484 52.011170115363484 52.011170115363484 52.011170115363484 52.011170115363484 52.011170115363484 51.98040651895257 52.011170115363484 52.011170115363484 52.011170115363484 51.98040651895257 51.98040651895257 51.98040651895257 51.98040651895257 51.98040651895257 51.98040651895257 51.98040651895257 51.98040651895257 51.98040651895257 52.011170115363484 51.98040651895257 51.98040651895257 51.98040651895257 51.98040651895257 51.98040651895257 51.98040651895257 51.98040651895257 52.011170115363484 51.98040651895257 51.98040651895257 52.011170115363484 51.98040651895257 51.98040651895257 51.98040651895257 51.98040651895257 52.011170115363484 51.98040651895257 51.98040651895257 51.98040651895257 51.98040651895257 51.98040651895257 51.98040651895257 51.98040651895257 51.98040651895257 51.98040651895257 51.98040651895257 51.98040651895257 51.98040651895257 51.91887932613075 51.88811572971983 51.88811572971983 51.826588536898 51.76506134407617 51.73429774766526 51.703534151254345 51.703534151254345 51.67277055484343 51.64200695843252 51.64200695843252 51.61124336202161 51.64200695843252 51.61124336202161 51.61124336202161 51.61124336202161 51.61124336202161 51.61124336202161 51.64200695843252 51.61124336202161 51.61124336202161 51.51895257278886 51.42666178355613 51.3651345907343 51.27284380150155 51.149789415857896 50.995971433803334 50.78062625892693 50.62680827687237 50.442226698406884 50.19611792711957 50.01153634865409 49.79619117377769 49.55008240249039 49.365500824024906 49.08862845632668 48.9040468778612 48.65793810657389 48.38106573887566 48.073429774766524 47.765793810657385 47.550448635780995 47.304339864493684 46.996703900384546 46.71983153268632 46.38143197216627 46.104559604468044 45.88921442959165 45.5508148690716 45.3354696941952 45.089360922907886 44.56637978392236 44.28950741622413 43.92034425929317 43.52041750595129 43.18201794543124 42.78209119208936 42.35140084233657 42.04376487822743 41.61307452847464 41.3054385643655 40.90551181102362 40.47482146127083 40.16718549716169 39.674967954587075 39.5211499725325 39.15198681560154 38.78282365867057 38.475187694561434 38.13678813404138 37.64457059146676 37.36769822376854 37.02929866324849 36.906244277604834 36.66013550631752 36.444790331441126 36.352499542208385 36.22944515656473 36.106390770921074 36.01409998168833 35.82951840322285 35.706464017579194 35.491118842702804 35.27577366782641 35.12195568577184 34.96813770371727 34.783556125251785 34.629738143197216 34.50668375755356 34.35286577549899 34.229811389855335 34.10675700421168 33.983702618568024 33.829884636513455 33.73759384728072 33.614539461637065 33.42995788317158 33.27613990111701 33.15308551547336 32.87621314777513 32.72239516572056 32.53781358725508 32.32246841237868 32.1378868339132 32.04559604468046 31.95330525544772 31.86101446621498 31.737960080571323 31.64566929133858 31.584142098516754 31.491851309284012 31.461087712873102 31.430324116462188 31.36879692364036 31.307269730818533 31.21497894158579 31.153451748763963 30.999633766709394 30.907342977476652 30.845815784654825 30.753524995422083 30.691997802600255 30.630470609778428 30.538179820545686 30.507416224134772 30.445889031312948 30.415125434902034 30.353598242080206 30.199780260025637 30.169016663614723 30.169016663614723 30.13825306720381 30.107489470792896 30.07672587438198 30.07672587438198 30.015198681560154 29.98443508514924 30.015198681560154 29.98443508514924 29.98443508514924 29.98443508514924 29.98443508514924 29.98443508514924 29.953671488738326 29.953671488738326 29.953671488738326 29.922907892327412 29.922907892327412 29.922907892327412 29.922907892327412 29.922907892327412 29.8921442959165 29.8921442959165 29.8921442959165 29.8921442959165 29.8921442959165 29.861380699505585 29.8921442959165 29.861380699505585 29.8921442959165 29.861380699505585 29.861380699505585 29.861380699505585 29.861380699505585 29.861380699505585 29.861380699505585 29.861380699505585 29.861380699505585 29.83061710309467 29.83061710309467 29.83061710309467 29.861380699505585 29.861380699505585 29.83061710309467 29.83061710309467 29.83061710309467 29.83061710309467 29.83061710309467 29.83061710309467 29.83061710309467 29.83061710309467 29.83061710309467 29.83061710309467 29.83061710309467 29.83061710309467 29.83061710309467 29.83061710309467 29.83061710309467 29.83061710309467 29.83061710309467 29.83061710309467 29.83061710309467 29.83061710309467 29.83061710309467 29.83061710309467 29.83061710309467 29.83061710309467 29.83061710309467 29.83061710309467 29.83061710309467 29.83061710309467 29.83061710309467 29.83061710309467 29.799853506683757 29.83061710309467 29.799853506683757 29.83061710309467 29.83061710309467 29.83061710309467 29.83061710309467 29.83061710309467 29.799853506683757 29.799853506683757 29.799853506683757 29.799853506683757 29.799853506683757 29.799853506683757 29.799853506683757 29.799853506683757 29.799853506683757 29.799853506683757 29.799853506683757 29.799853506683757 29.799853506683757 29.799853506683757 29.799853506683757 29.799853506683757 29.799853506683757 29.769089910272843 29.799853506683757 29.769089910272843 29.769089910272843 29.769089910272843 29.769089910272843 29.769089910272843 29.769089910272843 29.769089910272843 29.769089910272843 29.769089910272843 29.769089910272843 29.769089910272843 29.769089910272843 29.73832631386193 29.73832631386193 29.769089910272843 29.769089910272843 29.769089910272843 29.769089910272843 29.73832631386193 29.73832631386193 29.73832631386193 29.769089910272843 29.769089910272843 29.769089910272843 29.73832631386193 29.73832631386193 29.73832631386193 29.73832631386193 29.73832631386193 29.73832631386193 29.73832631386193 29.73832631386193 29.73832631386193 29.73832631386193 29.73832631386193 29.707562717451015 29.707562717451015 29.707562717451015 29.707562717451015 29.707562717451015 29.707562717451015 29.707562717451015 29.707562717451015 29.707562717451015 29.707562717451015 29.707562717451015 29.707562717451015 29.707562717451015 29.707562717451015 29.707562717451015 29.707562717451015 29.707562717451015 29.6767991210401 29.707562717451015 29.707562717451015 29.6767991210401 29.6767991210401 29.6767991210401 29.6767991210401 29.6767991210401 29.6767991210401 29.6767991210401 29.6767991210401 29.6767991210401 29.6767991210401 29.707562717451015 29.6767991210401 29.6767991210401 29.6767991210401 29.6767991210401 29.6767991210401 29.6767991210401 29.6767991210401 29.6767991210401 29.6767991210401 29.6767991210401 29.6767991210401 29.6767991210401 29.6767991210401 29.6767991210401 29.6767991210401 29.6767991210401 29.6767991210401 29.6767991210401 29.6767991210401 29.6767991210401 29.6767991210401 29.6767991210401 29.6767991210401 29.6767991210401 29.6767991210401 29.6767991210401 29.6767991210401 29.6767991210401 29.6767991210401 29.6767991210401 29.6767991210401 29.6767991210401 29.6767991210401 29.6767991210401 29.6767991210401 29.6767991210401 29.6767991210401 29.6767991210401 29.6767991210401 29.6767991210401 29.6767991210401 29.6767991210401 29.6767991210401 29.6767991210401 29.6767991210401 29.6767991210401 29.6767991210401 29.6767991210401 29.6767991210401 29.6767991210401 29.6767991210401 29.6767991210401 29.6767991210401 29.6767991210401 29.6767991210401 29.6767991210401 29.6767991210401 29.6767991210401 29.6767991210401 29.6767991210401 29.6767991210401 29.6767991210401 29.6767991210401 29.6767991210401 29.6767991210401 29.6767991210401 29.6767991210401 29.6767991210401 29.6767991210401 29.6767991210401 29.6767991210401 29.6767991210401 29.6767991210401 29.6767991210401 29.6767991210401 29.6767991210401 29.6767991210401 29.6767991210401 29.6767991210401 29.6767991210401 29.6767991210401 29.6767991210401 29.707562717451015 29.707562717451015 29.6767991210401 29.6767991210401 29.6767991210401 29.707562717451015 29.707562717451015 29.707562717451015 29.707562717451015 29.707562717451015 29.707562717451015 29.707562717451015 29.707562717451015 29.707562717451015 29.707562717451015 29.73832631386193 29.73832631386193 29.73832631386193 29.73832631386193 29.73832631386193 29.73832631386193 29.73832631386193 29.769089910272843 29.73832631386193 29.769089910272843 29.769089910272843 29.769089910272843 29.769089910272843 29.769089910272843 29.799853506683757 29.799853506683757 29.83061710309467 29.83061710309467 29.861380699505585 29.8921442959165 29.8921442959165 29.953671488738326 29.98443508514924 29.98443508514924 30.015198681560154 30.015198681560154 30.045962277971068 30.07672587438198 30.13825306720381 30.169016663614723 30.23054385643655 30.261307452847465 30.322834645669293 30.38436183849112 30.507416224134772 30.630470609778428 30.784288591832997 30.96887017029848 31.12268815235305 31.36879692364036 31.64566929133858 31.830250869804065 32.19941402673503 32.507049990844166 32.72239516572056 32.99926753341879 33.18384911188427 33.460721479582496 33.89141182933528 34.137520600622594 34.41439296832082 34.69126533601904 34.937374107306354 35.429591649880976 35.583409631935545 35.98333638527742 36.352499542208385 36.66013550631752 37.02929866324849 37.398461820179456 37.798388573521336 38.13678813404138 38.413660501739606 38.629005676616 39.028932429957884 39.30580479765611 39.85954953305256 40.25947628639443 40.597875846914484 40.936275407434536 41.21314777513276 41.459256546420065 41.9822376854056 42.32063724592565 42.659036806445705 43.058963559787585 43.366599523896724 43.7665262772386 44.135689434169564 44.50485259110053 44.935542940853324 45.21241530855154 45.61234206189343 46.0122688152353 46.31990477934444 46.81212232191906 47.08899468961728 47.33510346090459 47.765793810657385 48.13495696758835 48.75022889580663 49.55008240249039 49.980772752243176 50.596044680461446 50.995971433803334 51.3651345907343 51.98040651895257 52.288042483061716 52.59567844717085 52.74949642922542 52.96484160410181 53.08789598974546 53.21095037538912 53.303241164621866 53.364768357443694 53.3955319538546 53.42629555026552 53.42629555026552 53.42629555026552 53.42629555026552 53.42629555026552 53.42629555026552 53.42629555026552 53.3955319538546 53.3955319538546 53.3955319538546 53.3955319538546 53.3955319538546 53.3955319538546 53.3955319538546 53.3955319538546 53.3955319538546 53.3955319538546 53.3955319538546 53.3955319538546 53.3955319538546 53.3955319538546 53.3955319538546 53.3955319538546 53.3955319538546 53.3955319538546 53.3955319538546 53.364768357443694 53.33400476103277 53.33400476103277 53.303241164621866 53.303241164621866 53.27247756821095 53.24171397180004 53.21095037538912 53.18018677897821 53.118659586156376 53.08789598974546 53.057132393334555 53.026368796923634 52.99560520051273 52.96484160410181 52.96484160410181 52.96484160410181 52.9340780076909 52.9340780076909 52.96484160410181 52.96484160410181 52.96484160410181 52.96484160410181 52.96484160410181 52.96484160410181 52.96484160410181 52.96484160410181 52.96484160410181 52.96484160410181 52.96484160410181 52.96484160410181 52.96484160410181 52.96484160410181 52.96484160410181 52.96484160410181 52.9340780076909 52.96484160410181 52.96484160410181 52.9340780076909 52.96484160410181 52.96484160410181 52.96484160410181 52.96484160410181 52.96484160410181 52.9340780076909 52.96484160410181 52.9340780076909 52.96484160410181 52.96484160410181 52.96484160410181 52.96484160410181 52.96484160410181 52.96484160410181 52.96484160410181 52.96484160410181 52.96484160410181 52.96484160410181 52.96484160410181 52.96484160410181 52.96484160410181 52.96484160410181 52.96484160410181 52.96484160410181 52.96484160410181 52.96484160410181 52.96484160410181 52.96484160410181 52.96484160410181 52.96484160410181 52.96484160410181 52.96484160410181 52.9340780076909 52.96484160410181 52.96484160410181 52.96484160410181 52.96484160410181 52.96484160410181 52.96484160410181 52.9340780076909 52.9340780076909 52.96484160410181 52.96484160410181 52.96484160410181 52.96484160410181 52.96484160410181 52.96484160410181 52.9340780076909 52.9340780076909 52.96484160410181 52.96484160410181 52.96484160410181 52.96484160410181 52.9340780076909 52.9340780076909 52.9340780076909 52.9340780076909 52.903314411279986 52.9340780076909 52.903314411279986 52.903314411279986 52.903314411279986 52.903314411279986 52.903314411279986 52.903314411279986 52.903314411279986 52.903314411279986 52.903314411279986 52.903314411279986 52.903314411279986 52.903314411279986 52.903314411279986 52.903314411279986 52.903314411279986 52.903314411279986 52.87255081486907 52.84178721845816 52.811023622047244 52.78026002563632 52.74949642922542 52.718732832814496 52.68796923640359 52.65720563999267 52.65720563999267 52.62644204358176 52.59567844717085 52.56491485075993 52.53415125434902 52.503387657938106 52.47262406152719 52.44186046511628 52.411096868705364 52.411096868705364 52.38033327229445 52.38033327229445 52.34956967588353 52.34956967588353 52.31880607947262 52.288042483061716 52.288042483061716 52.288042483061716 52.288042483061716 52.288042483061716 52.288042483061716 52.288042483061716 52.288042483061716 52.288042483061716 52.31880607947262 52.288042483061716 52.288042483061716 52.31880607947262 52.31880607947262 52.31880607947262 52.31880607947262 52.31880607947262 52.31880607947262 52.31880607947262 52.31880607947262 52.31880607947262 52.31880607947262 52.31880607947262 52.31880607947262 52.31880607947262 52.31880607947262 52.31880607947262 52.31880607947262 52.31880607947262 52.31880607947262 52.31880607947262 52.31880607947262 52.31880607947262 52.31880607947262 52.31880607947262 52.31880607947262 52.31880607947262 52.31880607947262 52.31880607947262 52.31880607947262 52.34956967588353 52.31880607947262 52.34956967588353 52.34956967588353 52.34956967588353 52.38033327229445 52.34956967588353 52.34956967588353 52.34956967588353 52.34956967588353 52.34956967588353 52.34956967588353 52.34956967588353 52.34956967588353 52.34956967588353 52.34956967588353 52.34956967588353 52.34956967588353 52.34956967588353 52.34956967588353 52.34956967588353 52.34956967588353 52.34956967588353 52.34956967588353 52.34956967588353 52.34956967588353 52.34956967588353 52.34956967588353 52.34956967588353 52.34956967588353 52.34956967588353 52.34956967588353 52.31880607947262 52.34956967588353 52.34956967588353 52.31880607947262 52.34956967588353 52.34956967588353 52.34956967588353 52.34956967588353 52.34956967588353 52.34956967588353 52.34956967588353 52.34956967588353 52.31880607947262 52.31880607947262 52.31880607947262 52.31880607947262 52.31880607947262 52.31880607947262 52.31880607947262 52.31880607947262 52.31880607947262 52.31880607947262 52.31880607947262 52.31880607947262 52.31880607947262 52.31880607947262 52.31880607947262 52.288042483061716 52.19575169382897 52.13422450100714 52.0419337117744 51.79582494048709 51.61124336202161 51.39589818714521 51.211316608679724 50.96520783739241 50.78062625892693 50.50375389122871 50.288408716352315 50.10382713788683 49.91924555942135 49.70390038454495 49.51931880607947 49.27321003479216 48.93481047427211 48.780992492217536 48.53488372093023 48.319538546053835 48.104193371177445 47.82732100347921 47.61197582860282 47.27357626808276 46.965940303973625 46.71983153268632 46.38143197216627 46.0122688152353 45.76616004394799 45.3354696941952 45.02783373008606 44.535616187511444 44.04339864493682 43.67423548800586 43.028199963376665 42.62827321003479 42.28987364951474 41.85918329976195 41.55154733565281 41.05932979307819 40.50558505768174 40.16718549716169 39.674967954587075 39.30580479765611 38.99816883354697 38.53671488738326 38.29060611609595 37.9522065555759 37.67533418787768 37.4907526094122 37.21388024171397 36.96777147042666 36.78318989196118 36.47555392785204 36.13715436733199 35.86028199963376 35.61417322834646 35.491118842702804 35.30653726423732 35.183482878593665 35.12195568577184 34.937374107306354 34.75279252884087 34.5989745467863 34.41439296832082 34.26057498626625 34.10675700421168 33.95293902215711 33.860648232924376 33.7068302508698 33.58377586522615 33.460721479582496 33.30690349752793 33.18384911188427 33.0300311298297 32.968503937007874 32.84544955136422 32.72239516572056 32.63010437648782 32.47628639443325 32.29170481596777 32.1378868339132 31.984068851858634 31.86101446621498 31.737960080571323 31.64566929133858 31.461087712873102 31.399560520051274 31.307269730818533 31.245742537996705 31.153451748763963 31.091924555942136 31.030397363120308 30.938106573887566 30.87657938106574 30.784288591832997 30.753524995422083 30.691997802600255 30.630470609778428 30.5689434169566 30.538179820545686 30.507416224134772 30.47665262772386 30.445889031312948 30.415125434902034 30.353598242080206 30.322834645669293 30.29207104925838 30.261307452847465 30.199780260025637 30.169016663614723 30.13825306720381 30.107489470792896 30.07672587438198 30.045962277971068 30.045962277971068 30.045962277971068 30.015198681560154 29.98443508514924 29.98443508514924 29.98443508514924 29.98443508514924 29.98443508514924 29.98443508514924 29.953671488738326 29.953671488738326 29.953671488738326 29.922907892327412 29.8921442959165 29.8921442959165 29.861380699505585 29.861380699505585 29.83061710309467 29.799853506683757 29.799853506683757 29.769089910272843 29.73832631386193 29.707562717451015 29.6767991210401 29.646035524629188 29.615271928218274 29.58450833180736 29.58450833180736 29.553744735396446 29.522981138985532 29.49221754257462 29.49221754257462 29.49221754257462 29.49221754257462 29.49221754257462 29.49221754257462 29.461453946163708 29.461453946163708 29.461453946163708 29.461453946163708 29.49221754257462 29.461453946163708 29.461453946163708 29.461453946163708 29.461453946163708 29.461453946163708 29.461453946163708 29.461453946163708 29.461453946163708 29.461453946163708 29.461453946163708 29.461453946163708 29.430690349752794 29.461453946163708 29.430690349752794 29.430690349752794 29.430690349752794 29.430690349752794 29.461453946163708 29.430690349752794 29.430690349752794 29.430690349752794 29.430690349752794 29.430690349752794 29.461453946163708 29.430690349752794 29.430690349752794 29.430690349752794 29.430690349752794 29.430690349752794 29.430690349752794 29.430690349752794 29.430690349752794 29.430690349752794 29.430690349752794 29.430690349752794 29.430690349752794 29.430690349752794 29.430690349752794 29.430690349752794 29.430690349752794 29.430690349752794 29.430690349752794 29.430690349752794 29.430690349752794 29.430690349752794 29.430690349752794 29.430690349752794 29.430690349752794 29.430690349752794 29.430690349752794 29.430690349752794 29.430690349752794 29.430690349752794 29.430690349752794 29.430690349752794 29.430690349752794 29.430690349752794 29.430690349752794 29.430690349752794 29.430690349752794 29.430690349752794 29.430690349752794 29.430690349752794 29.430690349752794 29.430690349752794 29.430690349752794 29.430690349752794 29.430690349752794 29.430690349752794 29.430690349752794 29.430690349752794 29.430690349752794 29.430690349752794 29.430690349752794 29.430690349752794 29.430690349752794 29.430690349752794 29.430690349752794 29.430690349752794 29.430690349752794 29.430690349752794 29.430690349752794 29.430690349752794 29.430690349752794 29.430690349752794 29.430690349752794 29.430690349752794 29.430690349752794 29.430690349752794 29.430690349752794 29.430690349752794 29.430690349752794 29.430690349752794 29.430690349752794 29.430690349752794 29.430690349752794 29.430690349752794 29.430690349752794 29.430690349752794 29.430690349752794 29.430690349752794 29.430690349752794 29.430690349752794 29.430690349752794 29.39992675334188 29.39992675334188 29.430690349752794 29.430690349752794 29.430690349752794 29.430690349752794 29.430690349752794 29.39992675334188 29.430690349752794 29.430690349752794 29.430690349752794 29.430690349752794 29.39992675334188 29.39992675334188 29.39992675334188 29.430690349752794 29.39992675334188 29.39992675334188 29.39992675334188 29.39992675334188 29.39992675334188 29.39992675334188 29.39992675334188 29.39992675334188 29.39992675334188 29.39992675334188 29.39992675334188 29.39992675334188 29.39992675334188 29.39992675334188 29.39992675334188 29.39992675334188 29.39992675334188 29.39992675334188 29.39992675334188 29.39992675334188 29.39992675334188 29.39992675334188 29.430690349752794 29.39992675334188 29.39992675334188 29.39992675334188 29.39992675334188 29.39992675334188 29.39992675334188 29.39992675334188 29.39992675334188 29.39992675334188 29.39992675334188 29.39992675334188 29.39992675334188 29.39992675334188 29.39992675334188 29.39992675334188 29.39992675334188 29.39992675334188 29.39992675334188 29.39992675334188 29.39992675334188 29.39992675334188 29.39992675334188 29.39992675334188 29.39992675334188 29.39992675334188 29.39992675334188 29.39992675334188 29.39992675334188 29.39992675334188 29.39992675334188 29.39992675334188 29.39992675334188 29.39992675334188 29.39992675334188 29.39992675334188 29.39992675334188 29.39992675334188 29.39992675334188 29.39992675334188 29.39992675334188 29.39992675334188 29.39992675334188 29.39992675334188 29.430690349752794 29.39992675334188 29.39992675334188 29.430690349752794 29.430690349752794 29.39992675334188 29.39992675334188 29.430690349752794 29.39992675334188 29.39992675334188 29.430690349752794 29.430690349752794 29.430690349752794 29.430690349752794 29.430690349752794 29.430690349752794 29.430690349752794 29.430690349752794 29.430690349752794 29.430690349752794 29.430690349752794 29.430690349752794 29.430690349752794 29.430690349752794 29.461453946163708 29.461453946163708 29.49221754257462 29.49221754257462 29.522981138985532 29.522981138985532 29.553744735396446 29.553744735396446 29.615271928218274 29.646035524629188 29.6767991210401 29.707562717451015 29.73832631386193 29.73832631386193 29.769089910272843 29.83061710309467 29.83061710309467 29.861380699505585 29.8921442959165 29.922907892327412 29.953671488738326 30.015198681560154 30.045962277971068 30.107489470792896 30.199780260025637 30.261307452847465 30.353598242080206 30.415125434902034 30.445889031312948 30.538179820545686 30.5689434169566 30.66123420618934 30.753524995422083 30.784288591832997 30.87657938106574 30.907342977476652 30.96887017029848 31.06116095953122 31.153451748763963 31.245742537996705 31.307269730818533 31.338033327229446 31.430324116462188 31.430324116462188 31.55337850210584 31.70719648416041 31.79948727339315 31.95330525544772 32.1378868339132 32.29170481596777 32.47628639443325 32.59934078007691 32.84544955136422 33.0300311298297 33.15308551547336 33.42995788317158 33.58377586522615 33.73759384728072 33.922175425746204 34.075993407800766 34.19904779344442 34.44515656473173 34.66050173960813 34.90661051089544 35.36806445705915 35.61417322834646 36.01409998168833 36.26020875297564 36.506317524262954 36.93700787401575 37.18311664530306 37.459989013001284 37.767624977110415 37.98297015198681 38.25984251968504 38.44442409815052 38.75206006225966 39.028932429957884 39.24427760483428 39.582677165354326 39.890313129463465 40.136421900750776 40.50558505768174 40.87474821461271 41.12085698590002 41.490020142830986 41.797656106940124 42.28987364951474 42.566746017212964 42.966672770554844 43.305072331074896 43.48965390954038 43.79728987364952 44.074162241347736 44.25874381981322 44.56637978392236 44.781724958798755 45.12012451931881 45.427760483427946 45.67386925471526 45.98150521882439 46.25837758652261 46.442959164988096 46.78135872550815 46.996703900384546 47.48892144295917 47.765793810657385 48.04266617835561 48.53488372093023 48.96557407068302 49.427028016846734 49.888481963010435 50.19611792711957 50.596044680461446 51.02673503021424 51.27284380150155 51.51895257278886 51.91887932613075 52.13422450100714 52.411096868705364 52.59567844717085 52.811023622047244 53.057132393334555 53.21095037538912 53.303241164621866 53.42629555026552 53.518586339498256 53.610877128731005 53.67240432155283 53.70316791796374 53.70316791796374 53.67240432155283 53.70316791796374 53.70316791796374 53.70316791796374 53.67240432155283 53.67240432155283 53.67240432155283 53.67240432155283 53.67240432155283 53.67240432155283 53.67240432155283 53.67240432155283 53.67240432155283 53.67240432155283 53.67240432155283 53.67240432155283 53.67240432155283 53.67240432155283 53.67240432155283 53.67240432155283 53.67240432155283 53.67240432155283 53.67240432155283 53.67240432155283 53.67240432155283 53.67240432155283 53.67240432155283 53.67240432155283 53.67240432155283 53.67240432155283 53.67240432155283 53.67240432155283 53.67240432155283 53.67240432155283 53.67240432155283 53.64164072514191 53.610877128731005 53.580113532320084 53.54934993590917 53.54934993590917 53.54934993590917 53.54934993590917 53.54934993590917 53.54934993590917 53.54934993590917 53.54934993590917 53.54934993590917 53.54934993590917 53.54934993590917 53.54934993590917 53.54934993590917 53.54934993590917 53.54934993590917 53.518586339498256 53.518586339498256 53.518586339498256 53.518586339498256 53.518586339498256 53.518586339498256 53.518586339498256 53.518586339498256 53.54934993590917 53.518586339498256 53.518586339498256 53.518586339498256 53.518586339498256 53.518586339498256 53.518586339498256 53.518586339498256 53.518586339498256 53.518586339498256 53.518586339498256 53.48782274308734 53.45705914667643 53.42629555026552 53.3955319538546 53.364768357443694 53.33400476103277 53.303241164621866 53.27247756821095 53.24171397180004 53.18018677897821 53.14942318256729 53.118659586156376 53.118659586156376 53.08789598974546 53.08789598974546 53.057132393334555 53.057132393334555 53.026368796923634 53.026368796923634 53.026368796923634 53.026368796923634 53.026368796923634 52.99560520051273 52.99560520051273 53.026368796923634 53.026368796923634 53.026368796923634 53.026368796923634 53.026368796923634 52.99560520051273 53.026368796923634 53.026368796923634 52.99560520051273 53.026368796923634 53.026368796923634 53.026368796923634 53.026368796923634 53.026368796923634 53.026368796923634 52.99560520051273 53.026368796923634 53.026368796923634 53.026368796923634 53.026368796923634 52.99560520051273 53.026368796923634 53.026368796923634 53.026368796923634 53.026368796923634 53.026368796923634 53.026368796923634 53.026368796923634 53.026368796923634 53.026368796923634 53.026368796923634 52.99560520051273 53.026368796923634 53.026368796923634 53.026368796923634 53.026368796923634 53.026368796923634 53.026368796923634 53.026368796923634 53.026368796923634 53.026368796923634 53.026368796923634 53.026368796923634 53.026368796923634 53.026368796923634 53.026368796923634 53.026368796923634 53.026368796923634 53.026368796923634 53.026368796923634 53.026368796923634 53.026368796923634 53.026368796923634 53.026368796923634 53.026368796923634 53.026368796923634 53.026368796923634 53.026368796923634 53.026368796923634 53.026368796923634 53.026368796923634 53.026368796923634 53.026368796923634 53.026368796923634 53.026368796923634 53.026368796923634 53.026368796923634 53.026368796923634 53.026368796923634 53.026368796923634 53.026368796923634 53.026368796923634 53.026368796923634 53.026368796923634 53.026368796923634 53.026368796923634 53.026368796923634 52.99560520051273 53.026368796923634 53.026368796923634 53.026368796923634 53.026368796923634 52.99560520051273 53.026368796923634 53.026368796923634 53.026368796923634 53.026368796923634 53.026368796923634 53.026368796923634 53.026368796923634 53.026368796923634 53.026368796923634 53.026368796923634 53.026368796923634 52.99560520051273 53.026368796923634 53.026368796923634 53.026368796923634 53.026368796923634 53.026368796923634 53.026368796923634 53.026368796923634 53.026368796923634 53.026368796923634 53.026368796923634 53.026368796923634 52.96484160410181 52.9340780076909 52.903314411279986 52.87255081486907 52.84178721845816 52.78026002563632 52.68796923640359 52.65720563999267 52.59567844717085 52.56491485075993 52.53415125434902 52.47262406152719 52.411096868705364 52.38033327229445 52.34956967588353 52.34956967588353 52.31880607947262 52.31880607947262 52.31880607947262 52.31880607947262 52.31880607947262 52.31880607947262 52.31880607947262 52.31880607947262 52.31880607947262 52.31880607947262 52.31880607947262 52.31880607947262 52.31880607947262 52.31880607947262 52.31880607947262 52.31880607947262 52.31880607947262 52.31880607947262 52.31880607947262 52.31880607947262 52.31880607947262 52.34956967588353 52.31880607947262 52.31880607947262 52.31880607947262 52.31880607947262 52.31880607947262 52.34956967588353 52.31880607947262 52.31880607947262 52.31880607947262 52.31880607947262 52.31880607947262 52.31880607947262 52.31880607947262 52.31880607947262 52.31880607947262 52.31880607947262 52.34956967588353 52.31880607947262 52.34956967588353 52.34956967588353 52.31880607947262 52.31880607947262 52.31880607947262 52.31880607947262 52.31880607947262 52.31880607947262 52.31880607947262 52.34956967588353 52.31880607947262 52.31880607947262 52.31880607947262 52.34956967588353 52.31880607947262 52.288042483061716 52.19575169382897 52.07269730818531 51.91887932613075 51.703534151254345 51.54971616919978 51.3651345907343 51.02673503021424 50.81138985533785 50.56528108405054 50.288408716352315 50.07306354147592 49.76542757736678 49.51931880607947 49.1501556491485 48.81175608862846 48.53488372093023 48.165720563999265 47.64273942501373 47.304339864493684 46.996703900384546 46.71983153268632 46.31990477934444 45.85845083318073 45.36623329060612 44.90477934444241 44.4433253982787 44.074162241347736 43.612708295184035 43.274308734663975 42.99743636696576 42.28987364951474 41.85918329976195 41.39772935359824 40.843984618201794 40.444057864859914 39.644204358176154 39.30580479765611 39.0596960263688 38.629005676616 38.321369712506865 37.82915216993224 37.42922541659037 37.02929866324849 36.66013550631752 36.41402673503021 36.198681560153815 35.86028199963376 35.61417322834646 35.15271928218275 34.8143197216627 34.5989745467863 34.41439296832082 34.29133858267716 34.16828419703351 33.95293902215711 33.829884636513455 33.7068302508698 33.58377586522615 33.42995788317158 33.2453763047061 33.060794726240616 32.87621314777513 32.72239516572056 32.63010437648782 32.44552279802234 32.3532320087896 32.19941402673503 32.04559604468046 31.984068851858634 31.891778062625892 31.79948727339315 31.70719648416041 31.584142098516754 31.491851309284012 31.399560520051274 31.338033327229446 31.307269730818533 31.245742537996705 31.12268815235305 30.999633766709394 30.907342977476652 30.81505218824391 30.72276139901117 30.630470609778428 30.5689434169566 30.538179820545686 30.47665262772386 30.445889031312948 30.353598242080206 30.322834645669293 30.261307452847465 30.23054385643655 30.23054385643655 30.199780260025637 30.199780260025637 30.169016663614723 30.107489470792896 30.07672587438198 30.045962277971068 30.015198681560154 30.015198681560154 29.98443508514924 29.98443508514924 29.98443508514924 29.98443508514924 29.953671488738326 29.953671488738326 29.953671488738326 29.953671488738326 29.953671488738326 29.953671488738326 29.953671488738326 29.953671488738326 29.953671488738326 29.953671488738326 29.953671488738326 29.953671488738326 29.953671488738326 29.953671488738326 29.953671488738326 29.922907892327412 29.922907892327412 29.922907892327412 29.922907892327412 29.922907892327412 29.922907892327412 29.8921442959165 29.922907892327412 29.8921442959165 29.8921442959165 29.8921442959165 29.8921442959165 29.8921442959165 29.8921442959165 29.8921442959165 29.8921442959165 29.8921442959165 29.8921442959165 29.8921442959165 29.8921442959165 29.8921442959165 29.8921442959165 29.861380699505585 29.861380699505585 29.861380699505585 29.861380699505585 29.83061710309467 29.83061710309467 29.83061710309467 29.799853506683757 29.799853506683757 29.799853506683757 29.769089910272843 29.769089910272843 29.769089910272843 29.73832631386193 29.769089910272843 29.73832631386193 29.73832631386193 29.73832631386193 29.73832631386193 29.73832631386193 29.73832631386193 29.707562717451015 29.707562717451015 29.707562717451015 29.707562717451015 29.6767991210401 29.646035524629188 29.6767991210401 29.6767991210401 29.646035524629188 29.646035524629188 29.646035524629188 29.646035524629188 29.646035524629188 29.646035524629188 29.6767991210401 29.646035524629188 29.646035524629188 29.646035524629188 29.646035524629188 29.646035524629188 29.646035524629188 29.615271928218274 29.615271928218274 29.646035524629188 29.615271928218274 29.615271928218274 29.646035524629188 29.615271928218274 29.615271928218274 29.615271928218274 29.615271928218274 29.58450833180736 29.58450833180736 29.58450833180736 29.58450833180736 29.58450833180736 29.58450833180736 29.58450833180736 29.58450833180736 29.58450833180736 29.58450833180736 29.58450833180736 29.553744735396446 29.553744735396446 29.553744735396446 29.553744735396446 29.522981138985532 29.522981138985532 29.522981138985532 29.522981138985532 29.522981138985532 29.522981138985532 29.522981138985532 29.522981138985532 29.522981138985532 29.522981138985532 29.522981138985532 29.522981138985532 29.522981138985532 29.522981138985532 29.522981138985532 29.522981138985532 29.522981138985532 29.522981138985532 29.522981138985532 29.522981138985532 29.49221754257462 29.49221754257462 29.49221754257462 29.49221754257462 29.49221754257462 29.461453946163708 29.461453946163708 29.461453946163708 29.461453946163708 29.461453946163708 29.461453946163708 29.461453946163708 29.461453946163708 29.461453946163708 29.461453946163708 29.461453946163708 29.461453946163708 29.461453946163708 29.461453946163708 29.461453946163708 29.461453946163708 29.461453946163708 29.430690349752794 29.461453946163708 29.461453946163708 29.461453946163708 29.461453946163708 29.461453946163708 29.461453946163708 29.461453946163708 29.461453946163708 29.461453946163708 29.461453946163708 29.461453946163708 29.461453946163708 29.461453946163708 29.461453946163708 29.461453946163708 29.461453946163708 29.461453946163708 29.461453946163708 29.461453946163708 29.461453946163708 29.461453946163708 29.461453946163708 29.461453946163708 29.461453946163708 29.461453946163708 29.461453946163708 29.461453946163708 29.461453946163708 29.461453946163708 29.461453946163708 29.461453946163708 29.461453946163708 29.461453946163708 29.461453946163708 29.461453946163708 29.461453946163708 29.461453946163708 29.461453946163708 29.461453946163708 29.430690349752794 29.461453946163708 29.461453946163708 29.461453946163708 29.461453946163708 29.461453946163708 29.461453946163708 29.461453946163708 29.461453946163708 29.461453946163708 29.430690349752794 29.461453946163708 29.461453946163708 29.461453946163708 29.461453946163708 29.461453946163708 29.461453946163708 29.430690349752794 29.461453946163708 29.461453946163708 29.461453946163708 29.461453946163708 29.461453946163708 29.461453946163708 29.430690349752794 29.461453946163708 29.461453946163708 29.461453946163708 29.461453946163708 29.461453946163708 29.461453946163708 29.461453946163708 29.461453946163708 29.461453946163708 29.461453946163708 29.461453946163708 29.461453946163708 29.461453946163708 29.461453946163708 29.461453946163708 29.461453946163708 29.461453946163708 29.461453946163708 29.461453946163708 29.461453946163708 29.461453946163708 29.461453946163708 29.461453946163708 29.461453946163708 29.461453946163708 29.461453946163708 29.461453946163708 29.461453946163708 29.461453946163708 29.461453946163708 29.461453946163708 29.461453946163708 29.461453946163708 29.461453946163708 29.461453946163708 29.461453946163708 29.461453946163708 29.461453946163708 29.461453946163708 29.461453946163708 29.461453946163708 29.461453946163708 29.461453946163708 29.461453946163708 29.461453946163708 29.461453946163708 29.461453946163708 29.461453946163708 29.461453946163708 29.461453946163708 29.461453946163708 29.461453946163708 29.461453946163708 29.461453946163708 29.461453946163708 29.461453946163708 29.461453946163708 29.461453946163708 29.461453946163708 29.461453946163708 29.461453946163708 29.461453946163708 29.461453946163708 29.461453946163708 29.461453946163708 29.461453946163708 29.461453946163708 29.461453946163708 29.461453946163708 29.461453946163708 29.461453946163708 29.49221754257462 29.461453946163708 29.49221754257462 29.49221754257462 29.49221754257462 29.522981138985532 29.553744735396446 29.553744735396446 29.58450833180736 29.615271928218274 29.615271928218274 29.646035524629188 29.707562717451015 29.73832631386193 29.799853506683757 29.861380699505585 29.953671488738326 30.015198681560154 30.07672587438198 30.169016663614723 30.261307452847465 30.29207104925838 30.38436183849112 30.445889031312948 30.538179820545686 30.630470609778428 30.753524995422083 30.87657938106574 30.999633766709394 31.091924555942136 31.21497894158579 31.307269730818533 31.399560520051274 31.491851309284012 31.55337850210584 31.64566929133858 31.737960080571323 31.79948727339315 31.922541659036806 31.984068851858634 32.04559604468046 32.1378868339132 32.260941219556855 32.414759201611425 32.59934078007691 32.84544955136422 33.060794726240616 33.27613990111701 33.368430690349754 33.58377586522615 33.829884636513455 34.075993407800766 34.229811389855335 34.537447353964474 34.87584691448453 35.12195568577184 35.52188243911371 35.89104559604468 36.1679179637429 36.598608313495696 36.93700787401575 37.2754074345358 37.859915766343164 38.13678813404138 38.44442409815052 38.8443508514924 39.15198681560154 39.61344076176525 39.982603918696206 40.597875846914484 41.090093389489105 41.459256546420065 41.85918329976195 42.16681926387108 42.47445522798022 43.12049075260941 43.45889031312946 43.92034425929317 44.35103460904596 44.72019776597693 45.05859732649698 45.45852407983885 45.735396447537084 46.104559604468044 46.350668375755355 46.68906793627541 47.02746749679545 47.24281267167186 47.61197582860282 47.88884819630104 48.13495696758835 48.473356528108404 48.6887017029848 48.96557407068302 49.365500824024906 49.580845998901296 49.82695477018861 49.91924555942135 50.134590734297745 50.442226698406884 50.62680827687237 50.842153451748764 51.08826222303607 51.42666178355613 51.67277055484343 51.91887932613075 52.257278886650795 52.56491485075993 52.78026002563632 53.026368796923634 53.21095037538912 53.33400476103277 53.518586339498256 53.64164072514191 53.79545870719648 53.980040285661964 54.072331074894706 54.2876762497711 54.379967039003844 54.47225782823658 54.56454861746933 54.626075810291155 54.65683940670207 54.65683940670207 54.65683940670207 54.65683940670207 54.65683940670207 54.68760300311298 54.65683940670207 54.65683940670207 54.65683940670207 54.65683940670207 54.65683940670207 54.65683940670207 54.65683940670207 54.65683940670207 54.65683940670207 54.65683940670207 54.65683940670207 54.65683940670207 54.65683940670207 54.65683940670207 54.65683940670207 54.65683940670207 54.65683940670207 54.65683940670207 54.65683940670207 54.65683940670207 54.65683940670207 54.65683940670207 54.65683940670207 54.65683940670207 54.65683940670207 54.65683940670207 54.65683940670207 54.65683940670207 54.65683940670207 54.65683940670207 54.65683940670207 54.65683940670207 54.65683940670207 54.65683940670207 54.65683940670207 54.626075810291155 54.626075810291155 54.626075810291155 54.59531221388024 54.626075810291155 54.59531221388024 54.59531221388024 54.59531221388024 54.59531221388024 54.626075810291155 54.626075810291155 54.626075810291155 54.626075810291155 54.626075810291155 54.626075810291155 54.65683940670207 54.68760300311298 54.7183665995239 54.7183665995239 54.7183665995239 54.74913019593481 54.74913019593481 54.74913019593481 54.74913019593481 54.74913019593481 54.74913019593481 54.74913019593481 54.74913019593481 54.74913019593481 54.74913019593481 54.7183665995239 54.7183665995239 54.7183665995239 54.7183665995239 54.74913019593481 54.7183665995239 54.7183665995239 54.7183665995239 54.7183665995239 54.7183665995239 54.7183665995239 54.7183665995239 54.7183665995239 54.7183665995239 54.7183665995239 54.7183665995239 54.7183665995239 54.7183665995239 54.7183665995239 54.7183665995239 54.7183665995239 54.7183665995239 54.7183665995239 54.7183665995239 54.7183665995239 54.7183665995239 54.7183665995239 54.7183665995239 54.7183665995239 54.7183665995239 54.7183665995239 54.7183665995239 54.7183665995239 54.7183665995239 54.7183665995239 54.7183665995239 54.65683940670207 54.626075810291155 54.626075810291155 54.626075810291155 54.626075810291155 54.626075810291155 54.626075810291155 54.626075810291155 54.626075810291155 54.626075810291155 54.626075810291155 54.626075810291155 54.626075810291155 54.626075810291155 54.626075810291155 54.626075810291155 54.626075810291155 54.626075810291155 54.626075810291155 54.626075810291155 54.626075810291155 54.626075810291155 54.626075810291155 54.626075810291155 54.626075810291155 54.626075810291155 54.626075810291155 54.626075810291155 54.626075810291155 54.626075810291155 54.626075810291155 54.626075810291155 54.626075810291155 54.626075810291155 54.626075810291155 54.626075810291155 54.626075810291155 54.626075810291155 54.626075810291155 54.65683940670207 54.626075810291155 54.626075810291155 54.626075810291155 54.626075810291155 54.626075810291155 54.626075810291155 54.626075810291155 54.626075810291155 54.626075810291155 54.626075810291155 54.626075810291155 54.626075810291155 54.626075810291155 54.626075810291155 54.626075810291155 54.626075810291155 54.626075810291155 54.626075810291155 54.626075810291155 54.626075810291155 54.626075810291155 54.65683940670207 54.626075810291155 54.626075810291155 54.626075810291155 54.626075810291155 54.626075810291155 54.626075810291155 54.626075810291155 54.626075810291155 54.626075810291155 54.626075810291155 54.626075810291155 54.626075810291155 54.626075810291155 54.626075810291155 54.626075810291155 54.626075810291155 54.626075810291155 54.626075810291155 54.626075810291155 54.59531221388024 54.56454861746933 54.53378502105841 54.5030214246475 54.44149423182567 54.41073063541476 54.34920344259293 54.31843984618202 54.2876762497711 54.226149056949275 54.16462186412745 54.072331074894706 53.980040285661964 53.85698590001831 53.73393151437466 53.64164072514191 53.518586339498256 53.364768357443694 53.24171397180004 53.08789598974546 52.9340780076909 52.78026002563632 52.62644204358176 52.44186046511628 52.31880607947262 52.103460904596226 51.949642922541656 51.73429774766526 51.42666178355613 51.27284380150155 51.08826222303607 50.903680644570585 50.62680827687237 50.380699505585056 50.134590734297745 49.888481963010435 49.642373191723124 49.45779161325764 49.1501556491485 49.027101263504846 48.565647317341146 48.22724775682109 47.98113898553378 47.64273942501373 47.304339864493684 47.05823109320637 46.658304339864486 46.504486357809924 46.196850393700785 45.85845083318073 45.61234206189343 45.27394250137337 44.781724958798755 44.50485259110053 44.16645303058048 43.92034425929317 43.67423548800586 43.305072331074896 43.028199963376665 42.59750961362388 42.259110053103825 42.013001281816514 41.67460172129647 41.42849295000916 41.21314777513276 40.690166636147225 40.444057864859914 40.07489470792895 39.7364951474089 39.45962277971067 39.18275041201245 38.875114447903314 38.65976927302692 38.35213330891778 38.13678813404138 37.82915216993224 37.521516205823104 37.306171030946714 36.87548068119392 36.66013550631752 36.41402673503021 36.044863578099246 35.79875480681194 35.491118842702804 34.90661051089544 34.72202893242996 34.56821095037539 34.44515656473173 34.32210217908808 34.137520600622594 34.04522981138985 33.89141182933528 33.79912104010255 33.67606665445889 33.55301226881524 33.49148507599341 33.39919428676067 33.27613990111701 33.15308551547336 33.0300311298297 32.93774034059696 32.814685954953305 32.69163156930965 32.507049990844166 32.38399560520051 32.23017762314594 32.107123237502286 31.922541659036806 31.830250869804065 31.64566929133858 31.491851309284012 31.399560520051274 31.27650613440762 31.184215345174877 31.12268815235305 31.06116095953122 30.999633766709394 30.907342977476652 30.81505218824391 30.753524995422083 30.691997802600255 30.66123420618934 30.630470609778428 30.5689434169566 30.507416224134772 30.38436183849112 30.353598242080206 30.353598242080206 30.322834645669293 30.29207104925838 30.261307452847465 30.23054385643655 30.199780260025637 30.199780260025637 30.13825306720381 30.13825306720381 30.107489470792896 30.107489470792896 30.107489470792896 30.07672587438198 30.045962277971068 30.015198681560154 29.98443508514924 29.98443508514924 29.98443508514924 29.953671488738326 29.953671488738326 29.922907892327412 29.922907892327412 29.922907892327412 29.922907892327412 29.8921442959165 29.8921442959165 29.861380699505585 29.861380699505585 29.83061710309467 29.83061710309467 29.83061710309467 29.799853506683757 29.769089910272843 29.769089910272843 29.769089910272843 29.73832631386193 29.73832631386193 29.73832631386193 29.707562717451015 29.707562717451015 29.707562717451015 29.707562717451015 29.6767991210401 29.707562717451015 29.6767991210401 29.6767991210401 29.707562717451015 29.6767991210401 29.6767991210401 29.6767991210401 29.6767991210401 29.6767991210401 29.6767991210401 29.646035524629188 29.646035524629188 29.646035524629188 29.646035524629188 29.646035524629188 29.646035524629188 29.615271928218274 29.58450833180736 29.58450833180736 29.553744735396446 29.522981138985532 29.522981138985532 29.49221754257462 29.461453946163708 29.430690349752794 29.369163156930966 29.338399560520052 29.338399560520052 29.338399560520052 29.338399560520052 29.30763596410914 29.30763596410914 29.30763596410914 29.30763596410914 29.30763596410914 29.30763596410914 29.30763596410914 29.30763596410914 29.30763596410914 29.30763596410914 29.30763596410914 29.30763596410914 29.30763596410914 29.30763596410914 29.276872367698225 29.276872367698225 29.276872367698225 29.276872367698225 29.276872367698225 29.30763596410914 29.276872367698225 29.30763596410914 29.276872367698225 29.276872367698225 29.276872367698225 29.276872367698225 29.276872367698225 29.276872367698225 29.276872367698225 29.276872367698225 29.276872367698225 29.276872367698225 29.276872367698225 29.24610877128731 29.276872367698225 29.276872367698225 29.276872367698225 29.276872367698225 29.276872367698225 29.276872367698225 29.276872367698225 29.276872367698225 29.276872367698225 29.276872367698225 29.276872367698225 29.276872367698225 29.276872367698225 29.276872367698225 29.276872367698225 29.276872367698225 29.276872367698225 29.276872367698225 29.276872367698225 29.276872367698225 29.276872367698225 29.276872367698225 29.276872367698225 29.276872367698225 29.276872367698225 29.276872367698225 29.276872367698225 29.276872367698225 29.276872367698225 29.276872367698225 29.276872367698225 29.276872367698225 29.276872367698225 29.276872367698225 29.276872367698225 29.276872367698225 29.276872367698225 29.276872367698225 29.276872367698225 29.276872367698225 29.276872367698225 29.276872367698225 29.24610877128731 29.276872367698225 29.276872367698225 29.24610877128731 29.276872367698225 29.276872367698225 29.276872367698225 29.24610877128731 29.276872367698225 29.276872367698225 29.276872367698225 29.276872367698225 29.276872367698225 29.24610877128731 29.276872367698225 29.276872367698225 29.276872367698225 29.276872367698225 29.276872367698225 29.24610877128731 29.24610877128731 29.276872367698225 29.276872367698225 29.276872367698225 29.276872367698225 29.276872367698225 29.24610877128731 29.24610877128731 29.24610877128731 29.276872367698225 29.276872367698225 29.276872367698225 29.24610877128731 29.24610877128731 29.24610877128731 29.276872367698225 29.276872367698225 29.24610877128731 29.24610877128731 29.276872367698225 29.276872367698225 29.24610877128731 29.24610877128731 29.24610877128731 29.24610877128731 29.276872367698225 29.24610877128731 29.24610877128731 29.276872367698225 29.276872367698225 29.276872367698225 29.276872367698225 29.276872367698225 29.24610877128731 29.24610877128731 29.24610877128731 29.276872367698225 29.24610877128731 29.24610877128731 29.276872367698225 29.276872367698225 29.24610877128731 29.24610877128731 29.24610877128731 29.24610877128731 29.24610877128731 29.24610877128731 29.24610877128731 29.24610877128731 29.276872367698225 29.24610877128731 29.24610877128731 29.24610877128731 29.276872367698225 29.24610877128731 29.24610877128731 29.24610877128731 29.276872367698225 29.24610877128731 29.24610877128731 29.24610877128731 29.24610877128731 29.24610877128731 29.24610877128731 29.24610877128731 29.24610877128731 29.24610877128731 29.24610877128731 29.24610877128731 29.24610877128731 29.276872367698225 29.24610877128731 29.24610877128731 29.24610877128731 29.24610877128731 29.24610877128731 29.24610877128731 29.24610877128731 29.24610877128731 29.24610877128731 29.24610877128731 29.276872367698225 29.276872367698225 29.24610877128731 29.24610877128731 29.24610877128731 29.24610877128731 29.24610877128731 29.24610877128731 29.24610877128731 29.24610877128731 29.24610877128731 29.24610877128731 29.24610877128731 29.24610877128731 29.24610877128731 29.24610877128731 29.24610877128731 29.24610877128731 29.24610877128731 29.276872367698225 29.24610877128731 29.24610877128731 29.24610877128731 29.276872367698225 29.24610877128731 29.24610877128731 29.24610877128731 29.24610877128731 29.24610877128731 29.24610877128731 29.24610877128731 29.276872367698225 29.24610877128731 29.24610877128731 29.276872367698225 29.24610877128731 29.276872367698225 29.24610877128731 29.276872367698225 29.276872367698225 29.24610877128731 29.276872367698225 29.276872367698225 29.276872367698225 29.276872367698225 