25.0 25.0 25.0 25.0 25.0 25.0 25.0 25.0 25.0 25.0 25.0 25.0 25.0 25.0 25.021973997436366 25.0 25.0 25.0 25.0 25.0 25.0 25.0 25.0 25.0 25.0 25.0 25.0 25.0 25.0 25.0 25.0 25.0 25.021973997436366 25.0 25.0 25.021973997436366 25.0 25.0 25.021973997436366 25.021973997436366 25.021973997436366 25.021973997436366 25.021973997436366 25.021973997436366 25.0 25.0 25.021973997436366 25.0 25.021973997436366 25.021973997436366 25.021973997436366 25.0 25.0 25.021973997436366 25.0 25.0 25.0 25.021973997436366 25.021973997436366 25.0 25.021973997436366 25.021973997436366 25.021973997436366 25.0 25.0 25.0 25.021973997436366 25.021973997436366 25.0 25.0 25.021973997436366 25.021973997436366 25.0 25.0 25.0 25.021973997436366 25.021973997436366 25.0 25.021973997436366 25.0 25.0 25.021973997436366 25.021973997436366 25.0 25.021973997436366 25.021973997436366 25.0 25.021973997436366 25.0 25.021973997436366 25.021973997436366 25.021973997436366 25.021973997436366 25.021973997436366 25.021973997436366 25.021973997436366 25.021973997436366 25.0 25.021973997436366 25.0 25.021973997436366 25.021973997436366 25.021973997436366 25.021973997436366 25.021973997436366 25.021973997436366 25.021973997436366 25.0 25.0 25.021973997436366 25.021973997436366 25.021973997436366 25.021973997436366 25.021973997436366 25.021973997436366 25.021973997436366 25.021973997436366 25.021973997436366 25.021973997436366 25.021973997436366 25.021973997436366 25.021973997436366 25.021973997436366 25.0 25.021973997436366 25.021973997436366 25.021973997436366 25.021973997436366 25.021973997436366 25.021973997436366 25.021973997436366 25.021973997436366 25.0 25.021973997436366 25.021973997436366 25.021973997436366 25.021973997436366 25.021973997436366 25.021973997436366 25.021973997436366 25.021973997436366 25.0 25.021973997436366 25.021973997436366 25.021973997436366 25.0 25.021973997436366 25.021973997436366 25.021973997436366 25.0 25.0 25.021973997436366 25.0 25.021973997436366 25.021973997436366 25.021973997436366 25.021973997436366 25.0 25.021973997436366 25.021973997436366 25.021973997436366 25.021973997436366 25.021973997436366 25.021973997436366 25.021973997436366 25.021973997436366 25.021973997436366 25.0 25.021973997436366 25.021973997436366 25.021973997436366 25.021973997436366 25.0 25.021973997436366 25.021973997436366 25.021973997436366 25.021973997436366 25.021973997436366 25.021973997436366 25.021973997436366 25.021973997436366 25.0 25.021973997436366 25.021973997436366 25.021973997436366 25.0 25.021973997436366 25.021973997436366 25.021973997436366 25.021973997436366 25.021973997436366 25.021973997436366 25.021973997436366 25.021973997436366 25.021973997436366 25.021973997436366 25.021973997436366 25.021973997436366 25.021973997436366 25.021973997436366 25.021973997436366 25.021973997436366 25.021973997436366 25.0 25.021973997436366 25.0 25.021973997436366 25.021973997436366 25.021973997436366 25.021973997436366 25.021973997436366 25.021973997436366 25.021973997436366 25.021973997436366 25.021973997436366 25.021973997436366 25.021973997436366 25.021973997436366 25.0 25.021973997436366 25.021973997436366 25.021973997436366 25.021973997436366 25.021973997436366 25.0 25.021973997436366 25.021973997436366 25.021973997436366 25.021973997436366 25.021973997436366 25.0 25.021973997436366 25.021973997436366 25.0 25.0 25.0 25.0 25.0 25.0 25.0 25.0 25.0 25.0 25.021973997436366 25.021973997436366 25.021973997436366 25.0 25.021973997436366 25.021973997436366 25.021973997436366 25.021973997436366 25.021973997436366 25.021973997436366 25.021973997436366 25.021973997436366 25.021973997436366 25.021973997436366 25.021973997436366 25.021973997436366 25.021973997436366 25.021973997436366 25.021973997436366 25.021973997436366 25.043947994872735 25.021973997436366 25.021973997436366 25.021973997436366 25.021973997436366 25.021973997436366 25.021973997436366 25.021973997436366 25.021973997436366 25.021973997436366 25.021973997436366 25.021973997436366 25.021973997436366 25.021973997436366 25.021973997436366 25.021973997436366 25.021973997436366 25.021973997436366 25.0 25.021973997436366 25.0 25.021973997436366 25.0 25.0 25.021973997436366 25.021973997436366 25.021973997436366 25.021973997436366 25.021973997436366 25.021973997436366 25.021973997436366 25.0 25.021973997436366 25.021973997436366 25.021973997436366 25.021973997436366 25.021973997436366 25.021973997436366 25.021973997436366 25.021973997436366 25.021973997436366 25.021973997436366 25.021973997436366 25.021973997436366 25.021973997436366 25.021973997436366 25.021973997436366 25.043947994872735 25.021973997436366 25.021973997436366 25.021973997436366 25.021973997436366 25.021973997436366 25.021973997436366 25.021973997436366 25.021973997436366 25.021973997436366 25.021973997436366 25.021973997436366 25.021973997436366 25.021973997436366 25.021973997436366 25.0 25.0 25.0 25.0 25.0 25.0 25.0 25.0 25.021973997436366 25.021973997436366 25.021973997436366 25.0 25.0 25.021973997436366 25.0 25.0 25.021973997436366 25.0 25.021973997436366 25.021973997436366 25.021973997436366 25.0 25.021973997436366 25.021973997436366 25.021973997436366 25.021973997436366 25.021973997436366 25.043947994872735 25.021973997436366 25.021973997436366 25.021973997436366 25.021973997436366 25.021973997436366 25.021973997436366 25.021973997436366 25.021973997436366 25.021973997436366 25.021973997436366 25.021973997436366 25.021973997436366 25.021973997436366 25.021973997436366 25.021973997436366 25.021973997436366 25.0 25.0 25.0 25.0 25.0 25.0 25.0 25.0 25.0 25.0 25.0 25.0 25.0 24.978026002563634 25.0 25.0 25.0 25.0 25.0 25.0 25.0 25.0 25.0 25.0 25.0 25.0 25.0 25.0 25.0 25.0 25.0 25.0 25.0 25.0 25.0 25.0 25.0 25.0 24.978026002563634 25.0 25.0 25.0 25.0 25.0 25.0 25.0 25.0 25.0 25.0 25.0 25.0 25.0 25.0 25.0 25.0 24.978026002563634 25.0 25.0 25.0 25.0 25.0 25.0 25.0 25.0 25.0 25.0 25.0 25.0 25.0 25.0 25.0 25.0 25.0 25.0 25.0 25.0 25.0 24.978026002563634 25.0 24.978026002563634 25.0 24.978026002563634 25.0 24.978026002563634 24.978026002563634 25.0 25.0 25.0 25.0 25.0 25.0 25.0 25.0 25.0 25.0 25.0 25.0 25.0 25.0 25.0 25.0 25.0 25.0 25.0 25.0 25.0 25.0 25.0 25.0 25.0 25.0 25.0 25.0 25.0 25.0 25.0 25.0 25.0 25.0 25.0 25.0 25.0 25.0 25.0 25.0 25.0 25.0 25.0 24.978026002563634 25.0 25.0 24.978026002563634 24.978026002563634 24.978026002563634 25.0 24.978026002563634 24.978026002563634 24.978026002563634 24.978026002563634 24.978026002563634 24.978026002563634 25.0 25.0 24.978026002563634 25.0 25.0 25.0 25.0 24.978026002563634 25.0 25.0 25.0 25.0 25.0 25.0 25.0 25.0 25.0 25.0 24.978026002563634 25.0 25.0 25.0 25.0 25.0 24.978026002563634 24.978026002563634 25.0 25.0 24.978026002563634 25.0 25.0 25.0 25.0 25.0 25.0 25.0 25.0 25.0 24.978026002563634 24.978026002563634 25.0 25.0 25.0 25.0 25.0 25.0 25.0 25.0 25.0 25.0 25.0 25.0 25.0 25.0 25.0 25.0 25.0 25.0 25.0 25.0 25.0 25.0 25.0 25.0 25.0 25.0 25.0 25.0 25.0 25.0 25.0 25.0 25.0 25.0 25.0 25.0 25.0 25.0 25.0 25.0 25.0 25.0 25.0 25.0 25.0 25.0 25.0 25.0 25.0 25.0 25.0 25.0 25.0 25.0 25.0 25.0 25.0 25.0 25.0 25.0 25.0 25.0 25.0 25.0 25.0 25.0 25.0 25.0 25.0 25.021973997436366 25.021973997436366 25.021973997436366 25.021973997436366 25.021973997436366 25.021973997436366 25.021973997436366 25.021973997436366 25.021973997436366 25.021973997436366 25.021973997436366 25.021973997436366 25.043947994872735 25.043947994872735 25.0659219923091 25.08789598974547 25.109869987181835 25.1318439846182 25.15381798205457 25.197765976927304 25.263687969236404 25.37355795641824 25.483427943600073 25.615271928218274 25.791063907709212 25.988829884636512 26.23054385643655 26.538179820545686 26.911737776963925 27.373191723127633 27.944515656473172 28.49386559238235 28.999267533418788 29.592565464200696 30.185863394982604 30.801135323200878 31.262589269364586 31.68009522065556 32.07562717451016 32.33931514374657 32.69089910272844 33.020509064273945 33.372093023255815 33.701702984801315 34.03131294634682 34.33894891045596 34.60263687969236 34.9102728438015 35.21790880791064 35.48159677714705 35.72331074894708 35.986998718183486 36.22871268998352 36.492400659219925 36.712140633583594 36.975828602819995 37.2395165720564 37.5032045412928 37.81084050540194 38.11847646951108 38.47006042849295 38.79967039003846 39.15125434902033 39.5687603003113 40.052188243911374 40.535616187511444 40.99707013367515 41.61234206189343 42.0957700054935 42.60117194652994 43.216443874748215 43.765793810657385 44.44698773118476 45.12818165171214 45.83134956967588 46.622413477385095 47.259659403039734 48.07269730818531 48.88573521333089 49.50100714154917 50.314045046694744 50.88536898004028 51.65445889031313 52.37960080571324 52.88500274674968 53.80791063907709 54.29133858267717 54.77476652627723 55.52188243911371 56.00531038271379 56.444790331441126 57.36769822376854 57.80717817249588 58.46639809558689 59.08167002380517 59.521149972532506 60.158395898187145 60.597875846914484 61.23512177256912 61.89434169566014 62.35579564182384 63.058963559787585 63.74015748031496 64.46529939571508 64.88280534700604 65.34425929316976 65.9815052188244 66.6407251419154 67.10217908807911 68.04706097784288 68.72825489837027 69.21168284197034 69.8928767624977 70.33235671122506 70.74986266251602 71.56290056766161 71.98040651895258 72.52975645486175 72.92528840871636 73.47463834462553 74.00201428309833 74.35359824208021 74.81505218824393 75.29848013184399 75.62809009338949 76.0895440395532 76.44112799853508 77.05639992675334 77.53982787035342 77.9573338216444 78.26496978575352 78.63852774217176 78.96813770371728 79.45156564731734 80.00091558322652 80.46236952939023 80.92382347555393 81.2754074345358 81.60501739608131 81.97857535249955 82.41805530122689 82.79161325764511 83.12122321919063 83.38491118842703 83.69254715253618 83.8683391320271 84.08807910639078 84.2638710858817 84.3957150704999 84.43966306537266 84.46163706280902 84.48361106024538 84.48361106024538 84.48361106024538 84.48361106024538 84.46163706280902 84.3957150704999 84.28584508331807 84.1979490935726 84.0661051089544 83.9342611243362 83.84636513459074 83.69254715253618 83.49478117560886 83.29701519868156 82.98937923457243 82.65976927302691 82.28621131660869 81.84673136788135 81.51712140633583 81.03369346273576 80.46236952939023 80.02288958066288 79.34169566013551 78.85826771653544 78.1550997985717 77.45193188060796 76.9465299395715 75.957700054935 75.38637612158945 74.92492217542575 73.8262223036074 73.2329243728255 72.46383446255265 71.71671854971618 71.18934261124336 70.44222669840688 69.93682475737045 69.05786485991577 68.20087895989745 67.40981505218824 66.61875114447903 65.65189525727888 64.99267533418788 64.04779344442409 63.278703534151255 62.37776963926021 61.41091375206006 60.729719831532684 59.4552279802234 58.57626808276872 57.98297015198681 57.169932246841235 56.64255630836843 56.15912836476836 55.23622047244095 54.77476652627723 54.22541659036806 53.67606665445889 53.324482695477016 52.906976744186046 52.62131477751328 52.2697308185314 51.91814685954954 51.6105108954404 51.28090093389489 50.88536898004028 50.40194103644021 49.874565097967405 49.676799121040105 49.171397180003666 48.57809924922175 48.16059329793078 47.325581395348834 46.73228346456693 46.292803515839594 45.67753158762132 45.23805163889398 44.79857169016664 43.96355978758469 43.502105841420985 42.88683391320271 42.293535982420806 41.89800402856619 41.34865409265702 40.99707013367515 40.579564182384175 40.030214246475005 39.7006042849295 39.41494231825673 39.15125434902033 38.84361838491119 38.44808643105658 38.25032045412928 38.07452847463834 37.7668925105292 37.54715253616554 37.1735945797473 36.80003662332906 36.404504669474456 36.00897271561985 35.67936275407435 35.32777879509247 34.75645486174693 34.42684490020143 34.03131294634682 33.723676982237684 33.32814502838308 32.95458707196484 32.712873100164806 32.3832631386193 32.07562717451016 31.78996520783739 31.52627723860099 31.30653726423732 30.932979307819082 30.58139534883721 30.251785387291704 30.032045412928035 29.746383446255265 29.526643471891596 29.087163523164257 28.933345541109688 28.603735579564184 28.076359641091376 27.96648965390954 27.658853689800402 27.439113715436733 27.373191723127633 27.329243728254898 27.307269730818533 27.307269730818533 27.307269730818533 27.307269730818533 27.285295733382164 27.285295733382164 27.263321735945798 27.219373741073063 27.197399743636698 27.131477751327594 27.10950375389123 27.04358176158213 26.95568577183666 26.88976377952756 26.845815784654825 26.73594579747299 26.67002380516389 26.560153817982055 26.494231825672955 26.42830983336385 26.38436183849112 26.340413843618386 26.29646584874565 26.29646584874565 26.274491851309286 26.274491851309286 26.274491851309286 26.274491851309286 26.252517853872916 26.252517853872916 26.252517853872916 26.252517853872916 26.252517853872916 26.252517853872916 26.23054385643655 26.23054385643655 26.23054385643655 26.208569859000182 26.208569859000182 26.186595861563816 26.14264786669108 26.120673869254716 26.07672587438198 26.054751876945616 25.988829884636512 25.966855887200147 25.922907892327412 25.856985900018312 25.835011902581943 25.813037905145578 25.791063907709212 25.769089910272843 25.769089910272843 25.769089910272843 25.769089910272843 25.769089910272843 25.747115912836477 25.769089910272843 25.747115912836477 25.769089910272843 25.747115912836477 25.747115912836477 25.747115912836477 25.747115912836477 25.747115912836477 25.747115912836477 25.747115912836477 25.747115912836477 25.747115912836477 25.747115912836477 25.747115912836477 25.747115912836477 25.747115912836477 25.747115912836477 25.747115912836477 25.747115912836477 25.72514191540011 25.72514191540011 25.72514191540011 25.747115912836477 25.72514191540011 25.72514191540011 25.72514191540011 25.72514191540011 25.72514191540011 25.72514191540011 25.72514191540011 25.72514191540011 25.72514191540011 25.72514191540011 25.72514191540011 25.703167917963743 25.703167917963743 25.703167917963743 25.681193920527377 25.681193920527377 25.65921992309101 25.65921992309101 25.637245925654643 25.637245925654643 25.615271928218274 25.615271928218274 25.593297930781908 25.593297930781908 25.571323933345543 25.571323933345543 25.571323933345543 25.549349935909174 25.549349935909174 25.549349935909174 25.549349935909174 25.549349935909174 25.549349935909174 25.571323933345543 25.549349935909174 25.549349935909174 25.549349935909174 25.549349935909174 25.549349935909174 25.549349935909174 25.549349935909174 25.549349935909174 25.549349935909174 25.549349935909174 25.549349935909174 25.549349935909174 25.549349935909174 25.549349935909174 25.571323933345543 25.549349935909174 25.549349935909174 25.549349935909174 25.549349935909174 25.549349935909174 25.549349935909174 25.549349935909174 25.549349935909174 25.549349935909174 25.549349935909174 25.549349935909174 25.549349935909174 25.549349935909174 25.549349935909174 25.549349935909174 25.549349935909174 25.549349935909174 25.549349935909174 25.549349935909174 25.549349935909174 25.549349935909174 25.549349935909174 25.549349935909174 25.549349935909174 25.549349935909174 25.549349935909174 25.549349935909174 25.549349935909174 25.549349935909174 25.549349935909174 25.549349935909174 25.549349935909174 25.549349935909174 25.549349935909174 25.549349935909174 25.549349935909174 25.549349935909174 25.549349935909174 25.549349935909174 25.549349935909174 25.549349935909174 25.549349935909174 25.549349935909174 25.549349935909174 25.549349935909174 25.549349935909174 25.549349935909174 25.549349935909174 25.549349935909174 25.549349935909174 25.549349935909174 25.549349935909174 25.549349935909174 25.549349935909174 25.549349935909174 25.549349935909174 25.549349935909174 25.549349935909174 25.549349935909174 25.549349935909174 25.549349935909174 25.549349935909174 25.549349935909174 25.549349935909174 25.549349935909174 25.549349935909174 25.549349935909174 25.549349935909174 25.527375938472808 25.527375938472808 25.549349935909174 25.549349935909174 25.549349935909174 25.549349935909174 25.549349935909174 25.549349935909174 25.549349935909174 25.549349935909174 25.549349935909174 25.549349935909174 25.549349935909174 25.549349935909174 25.549349935909174 25.549349935909174 25.549349935909174 25.571323933345543 25.571323933345543 25.593297930781908 25.593297930781908 25.615271928218274 25.65921992309101 25.703167917963743 25.813037905145578 25.900933894891047 25.944881889763778 26.01080388207288 26.23054385643655 26.42830983336385 26.845815784654825 27.197399743636698 27.74674967954587 28.27412561801868 28.669657571873284 29.219007507782457 29.790331441127996 30.185863394982604 30.713239333455412 31.08679728987365 31.78996520783739 32.29536714887384 32.62497711041934 32.95458707196484 33.459989013001284 34.009338948910454 34.53671488738326 34.88829884636513 35.39370078740157 35.87712873100165 36.250686687419886 36.80003662332906 37.34938655923823 37.74491851309284 38.31624244643838 38.71177440029299 39.239150338765796 39.810474272111335 40.381798205456874 40.953122138802414 41.34865409265702 41.74418604651163 42.293535982420806 42.71104193371177 43.282365867057315 44.09540377220289 44.51290972349386 45.12818165171214 45.54568760300312 45.94121955685772 46.71030946713056 47.10584142098517 47.65519135689434 48.18256729536715 48.55612525178539 49.06152719282183 49.479033144112805 49.852591100531036 50.314045046694744 50.62168101080388 51.03918696209485 51.50064090825856 51.8082768723677 52.48947079289508 52.75315876213148 53.214612708295185 53.785936641640724 54.203442592931694 55.03845449551364 55.69767441860465 56.15912836476836 56.818348287859365 57.30177623145944 57.78520417505951 58.64219007507782 59.10364402124153 59.784837941768906 60.444057864859914 60.90551181102362 61.586705731551 62.15802966489654 62.79527559055118 63.542391503387655 64.04779344442409 64.70701336751512 65.38820728804248 65.8496612342062 66.5088811572972 67.23402307269731 67.91521699322467 68.33272294451567 68.79417689067935 69.65116279069767 70.04669474455227 70.46420069584326 71.21131660867974 71.6288225599707 72.0243545138253 72.77147042666178 73.21095037538913 73.73832631386193 74.28767624977111 74.70518220106207 75.25453213697125 75.6940120856986 76.19941402673503 76.7487639626442 77.12232191906244 77.62772386009888 78.00128181651712 78.6165537447354 78.99011170115364 79.29774766526278 79.671305621681 80.08881157297199 80.35249954220839 80.83592748580847 81.0776414576085 81.42922541659037 81.71488738326315 81.91265336019043 82.15436733199049 82.54989928584509 82.79161325764511 83.01135323200879 83.16517121406336 83.36293719099066 83.51675517304523 83.62662516022706 83.67057315509979 83.71452114997254 83.71452114997254 83.71452114997254 83.71452114997254 83.71452114997254 83.67057315509979 83.62662516022706 83.51675517304523 83.3409631935543 83.16517121406336 82.76963926020875 82.54989928584509 82.15436733199049 81.73686138069951 81.42922541659037 80.98974546786303 80.70408350119027 80.19868156015382 79.73722761399011 79.4076176524446 78.85826771653544 78.2869437831899 77.80351583958982 77.10034792162608 76.616919978026 76.2213880241714 75.80388207288043 75.43032411646219 74.85900018311665 74.06793627540745 73.67240432155283 73.12305438564366 72.70554843435269 72.26606848562534 71.67277055484342 71.21131660867974 70.46420069584326 69.87090276506135 69.431422816334 68.79417689067935 68.53048892144295 67.71745101629739 67.12415308551547 66.70664713422451 66.13532320087896 65.52005127266068 65.05859732649698 64.46529939571508 63.95989745467863 63.344625526460355 62.72935359824208 62.31184764695111 61.63065372642373 60.94945980589635 60.246291887932614 59.56509796740524 59.27943600073247 58.62021607764146 57.67533418787768 57.21388024171397 56.532686321186596 55.89544039553195 55.45596044680461 54.81871452114997 54.42318256729537 53.895806628822555 53.324482695477016 52.95092473905878 52.44552279802234 51.89617286211316 51.50064090825856 50.90734297747665 50.48983702618568 49.874565097967405 49.303241164621866 48.88573521333089 48.00677531587621 47.3475553927852 46.995971433803334 46.248855520966856 45.83134956967588 45.45779161325764 44.71067570042116 44.33711774400293 43.787767808093754 43.260391869620946 42.88683391320271 42.38143197216627 42.07379600805713 41.61234206189343 41.10694012085699 40.77733015931148 40.315876213147774 39.854422266984066 39.370994323384 38.88756637978392 38.51400842336568 38.22834645669291 37.89873649514741 37.61307452847464 36.975828602819995 36.624244643838125 36.272660684856255 35.87712873100165 35.59146676432888 35.34975279252884 34.88829884636513 34.66855887200147 34.38289690532869 34.11920893609229 33.96539095403772 33.767624977110415 33.591832997619484 33.39406702069218 33.196301043764876 33.130379051455776 32.88866507965574 32.69089910272844 32.40523713605567 32.00970518220106 31.702069218091925 31.46035524629189 31.196667277055482 30.932979307819082 30.603369346273574 30.29573338216444 29.9880974180553 29.724409448818896 29.570591466764327 29.438747482146127 29.240981505218826 29.131111518036988 28.97729353598242 28.867423548800588 28.75755356161875 28.62570957700055 28.515839589818714 28.296099615455045 28.16425563083684 28.05438564365501 27.856619666727706 27.790697674418606 27.724775682109502 27.68082768723677 27.658853689800402 27.636879692364037 27.636879692364037 27.614905694927668 27.570957700054933 27.548983702618568 27.505035707745833 27.483061710309467 27.461087712873102 27.417139718000367 27.373191723127633 27.351217725691264 27.307269730818533 27.263321735945798 27.219373741073063 27.17542574620033 27.153451748763963 27.131477751327594 27.087529756454863 27.065555759018494 27.04358176158213 27.02160776414576 26.97765976927303 26.933711774400294 26.911737776963925 26.867789782091194 26.867789782091194 26.845815784654825 26.82384178721846 26.779893792345725 26.779893792345725 26.757919794909355 26.73594579747299 26.713971800036624 26.691997802600255 26.67002380516389 26.626075810291155 26.58212781541842 26.51620582310932 26.472257828236586 26.42830983336385 26.36238784105475 26.318439846182017 26.274491851309286 26.23054385643655 26.208569859000182 26.164621864127447 26.120673869254716 26.098699871818347 26.07672587438198 26.054751876945616 26.054751876945616 26.032777879509247 26.032777879509247 26.01080388207288 26.01080388207288 26.01080388207288 26.032777879509247 26.01080388207288 26.01080388207288 26.01080388207288 26.01080388207288 26.01080388207288 26.01080388207288 25.988829884636512 26.01080388207288 25.988829884636512 25.988829884636512 25.988829884636512 25.988829884636512 25.966855887200147 25.966855887200147 25.966855887200147 25.966855887200147 25.966855887200147 25.944881889763778 25.944881889763778 25.944881889763778 25.944881889763778 25.922907892327412 25.922907892327412 25.922907892327412 25.922907892327412 25.922907892327412 25.922907892327412 25.922907892327412 25.922907892327412 25.922907892327412 25.922907892327412 25.922907892327412 25.922907892327412 25.922907892327412 25.922907892327412 25.922907892327412 25.922907892327412 25.922907892327412 25.900933894891047 25.900933894891047 25.900933894891047 25.900933894891047 25.900933894891047 25.900933894891047 25.900933894891047 25.900933894891047 25.900933894891047 25.900933894891047 25.900933894891047 25.900933894891047 25.878959897454678 25.900933894891047 25.878959897454678 25.878959897454678 25.900933894891047 25.878959897454678 25.878959897454678 25.900933894891047 25.878959897454678 25.878959897454678 25.878959897454678 25.878959897454678 25.878959897454678 25.878959897454678 25.878959897454678 25.878959897454678 25.900933894891047 25.878959897454678 25.878959897454678 25.900933894891047 25.878959897454678 25.878959897454678 25.878959897454678 25.878959897454678 25.878959897454678 25.878959897454678 25.878959897454678 25.878959897454678 25.878959897454678 25.878959897454678 25.878959897454678 25.878959897454678 25.878959897454678 25.878959897454678 25.878959897454678 25.878959897454678 25.878959897454678 25.878959897454678 25.878959897454678 25.878959897454678 25.878959897454678 25.878959897454678 25.878959897454678 25.878959897454678 25.878959897454678 25.878959897454678 25.878959897454678 25.878959897454678 25.878959897454678 25.878959897454678 25.878959897454678 25.878959897454678 25.878959897454678 25.878959897454678 25.878959897454678 25.878959897454678 25.878959897454678 25.878959897454678 25.856985900018312 25.878959897454678 25.878959897454678 25.878959897454678 25.878959897454678 25.878959897454678 25.878959897454678 25.856985900018312 25.878959897454678 25.856985900018312 25.856985900018312 25.856985900018312 25.856985900018312 25.856985900018312 25.856985900018312 25.878959897454678 25.856985900018312 25.856985900018312 25.856985900018312 25.856985900018312 25.856985900018312 25.856985900018312 25.856985900018312 25.856985900018312 25.856985900018312 25.856985900018312 25.856985900018312 25.856985900018312 25.856985900018312 25.856985900018312 25.856985900018312 25.856985900018312 25.856985900018312 25.856985900018312 25.856985900018312 25.856985900018312 25.856985900018312 25.856985900018312 25.856985900018312 25.856985900018312 25.856985900018312 25.856985900018312 25.856985900018312 25.856985900018312 25.856985900018312 25.856985900018312 25.878959897454678 25.878959897454678 25.878959897454678 25.878959897454678 25.878959897454678 25.878959897454678 25.878959897454678 25.900933894891047 25.900933894891047 25.900933894891047 25.900933894891047 25.922907892327412 25.966855887200147 26.01080388207288 26.120673869254716 26.318439846182017 26.538179820545686 26.933711774400294 27.373191723127633 27.74674967954587 28.71360556674602 29.19703351034609 29.966123420618935 30.779161325764512 31.46035524629189 32.20747115912837 32.998535066837576 33.591832997619484 34.33894891045596 34.88829884636513 35.54751876945615 36.184764695110786 36.624244643838125 37.195568577183664 37.72294451565647 38.09650247207471 38.62387841054752 39.12928035158396 39.810474272111335 40.447720197765975 40.88720014649331 41.32668009522065 41.94195202343893 42.38143197216627 43.260391869620946 43.765793810657385 44.46896172862113 45.17212964658488 45.76542757736678 46.358725508148694 46.842153451748764 47.47939937740341 48.18256729536715 48.66599523896723 49.303241164621866 49.984435085149244 50.68760300311298 51.36879692364036 51.63248489287676 52.2697308185314 52.95092473905878 53.500274674967955 54.35726057498627 55.08240249038637 55.56583043398645 56.22505035707746 56.532686321186596 57.169932246841235 57.85112616736861 58.53232008789599 59.21351400842337 59.850759934078006 60.46603186229628 60.99340780076909 61.47683574436916 62.0481596777147 62.66343160593298 63.124885552096686 63.67423548800586 64.2455594213514 64.66306537264236 65.38820728804248 65.78373924189708 66.13532320087896 66.68467313678813 67.19007507782457 67.71745101629739 68.53048892144295 68.94799487273393 69.5632668009522 70.00274674967955 70.37630470609778 71.167368613807 71.56290056766161 72.20014649331624 72.81541842153452 73.4966123420619 73.8921442959165 74.30965024720747 74.90294817798939 75.49624610877129 75.91375206006227 76.66086797289874 77.12232191906244 77.53982787035342 78.00128181651712 78.59457974729904 78.92418970884452 79.42959164988098 79.86907159860831 80.50631752426295 80.74803149606299 81.20948544222671 81.86870536531771 82.19831532686322 82.52792528840871 83.18714521149973 83.49478117560886 83.97820911920894 84.28584508331807 84.70335103460906 85.09888298846366 85.3405969602637 85.64823292437282 85.91192089360922 86.10968687053654 86.43929683208204 86.63706280900934 86.98864676799121 87.16443874748215 87.36220472440945 87.60391869620949 87.82365867057317 87.99945065006409 88.21919062442777 88.32906061160959 88.4609045962278 88.52682658853689 88.54880058597325 88.57077458340964 88.592748580846 88.57077458340964 88.54880058597325 88.54880058597325 88.4609045962278 88.30708661417323 88.15326863211865 87.95550265519137 87.71378868339133 87.58194469877311 87.38417872184581 87.23036073979125 86.90075077824574 86.6590368064457 86.43929683208204 86.28547885002747 86.06573887566381 85.88994689617286 85.58231093206373 85.42849295000916 85.14283098333638 84.85716901666362 84.65940303973632 84.35176707562718 84.04413111151804 83.82439113715438 83.49478117560886 83.27504120124519 82.9454312396997 82.61582127815419 82.39608130379051 81.93462735762681 81.75883537813587 81.45119941402675 81.0776414576085 80.79197949093573 80.37447353964475 79.78117560886285 79.47353964475371 79.05603369346274 78.70444973448086 78.39681377037172 77.97930781908076 77.49587987548068 76.9465299395715 76.37520600622597 75.957700054935 75.34242812671673 74.88097418055301 74.39754623695293 73.7603003112983 73.25489837026186 72.52975645486175 71.80461453946164 71.25526460355246 70.22248672404322 69.67313678813403 69.14576084966123 68.33272294451567 67.78337300860647 66.99230910089727 65.89360922907892 65.36623329060612 64.641091375206 64.13568943416956 63.564365500824024 62.59750961362388 62.09210767258744 61.27906976744186 60.509979857169014 59.916681926387106 59.0596960263688 58.37850210584142 57.609412195568574 56.840322285295734 56.29097234938656 55.52188243911371 54.77476652627723 54.29133858267717 53.61014466214979 53.126716718549716 52.46749679545871 51.76432887749496 51.30287493133126 50.40194103644021 49.654825123603736 49.4131111518037 48.46822926203992 48.00677531587621 47.523347372276135 46.73228346456693 46.314777513275956 45.72147958249405 45.34792162607581 44.820545687603 44.33711774400293 43.96355978758469 43.633949826039185 43.238417872184584 42.97472990294818 42.64511994140267 42.40340596960264 41.9639260208753 41.67826405420253 41.43655008240249 41.15088811572972 40.82127815418421 40.513642190075075 40.052188243911374 39.810474272111335 39.4369163156931 39.107306354147596 38.82164438747482 38.55795641823842 38.09650247207471 37.85478850027467 37.5032045412928 37.28346456692913 36.909906610510895 36.492400659219925 36.07489470792895 35.78923274125618 35.45962277971068 35.17396081303791 34.80040285661967 34.51474088994689 34.09723493865592 33.789598974546784 33.54788500274675 33.240249038637614 33.04248306171031 32.84471708478301 32.47115912836477 32.29536714887384 32.00970518220106 31.767991210401025 31.57022523347372 31.28456326680095 30.976927302691813 30.757187328328143 30.42757736678264 30.20783739241897 29.9221754257462 29.592565464200696 29.372825489837027 29.021241530855153 28.77952755905512 28.62570957700055 28.515839589818714 28.38399560520051 28.230177623145945 28.010437648782275 27.87859366416407 27.74674967954587 27.68082768723677 27.527009705182202 27.351217725691264 27.197399743636698 27.153451748763963 27.10950375389123 27.10950375389123 27.087529756454863 27.10950375389123 27.087529756454863 27.087529756454863 27.087529756454863 27.065555759018494 27.065555759018494 27.04358176158213 27.04358176158213 27.02160776414576 27.02160776414576 27.02160776414576 26.999633766709394 26.97765976927303 26.95568577183666 26.911737776963925 26.779893792345725 26.713971800036624 26.67002380516389 26.560153817982055 26.51620582310932 26.472257828236586 26.42830983336385 26.406335835927486 26.406335835927486 26.38436183849112 26.38436183849112 26.38436183849112 26.38436183849112 26.36238784105475 26.36238784105475 26.36238784105475 26.36238784105475 26.36238784105475 26.340413843618386 26.340413843618386 26.340413843618386 26.340413843618386 26.318439846182017 26.318439846182017 26.318439846182017 26.29646584874565 26.29646584874565 26.274491851309286 26.274491851309286 26.252517853872916 26.23054385643655 26.208569859000182 26.164621864127447 26.14264786669108 26.098699871818347 26.054751876945616 26.054751876945616 26.01080388207288 26.01080388207288 25.988829884636512 25.966855887200147 25.966855887200147 25.988829884636512 25.966855887200147 25.966855887200147 25.966855887200147 25.966855887200147 25.966855887200147 25.966855887200147 25.966855887200147 25.966855887200147 25.944881889763778 25.944881889763778 25.944881889763778 25.944881889763778 25.944881889763778 25.944881889763778 25.944881889763778 25.944881889763778 25.944881889763778 25.944881889763778 25.944881889763778 25.944881889763778 25.944881889763778 25.944881889763778 25.944881889763778 25.944881889763778 25.944881889763778 25.922907892327412 25.944881889763778 25.944881889763778 25.944881889763778 25.944881889763778 25.944881889763778 25.922907892327412 25.944881889763778 25.944881889763778 25.944881889763778 25.922907892327412 25.944881889763778 25.944881889763778 25.944881889763778 25.922907892327412 25.944881889763778 25.944881889763778 25.922907892327412 25.922907892327412 25.944881889763778 25.922907892327412 25.922907892327412 25.922907892327412 25.922907892327412 25.922907892327412 25.944881889763778 25.922907892327412 25.922907892327412 25.922907892327412 25.922907892327412 25.922907892327412 25.922907892327412 25.922907892327412 25.922907892327412 25.922907892327412 25.922907892327412 25.922907892327412 25.922907892327412 25.922907892327412 25.922907892327412 25.922907892327412 25.922907892327412 25.922907892327412 25.922907892327412 25.922907892327412 25.900933894891047 25.900933894891047 25.900933894891047 25.900933894891047 25.900933894891047 25.900933894891047 25.900933894891047 25.922907892327412 25.900933894891047 25.900933894891047 25.900933894891047 25.922907892327412 25.900933894891047 25.900933894891047 25.900933894891047 25.900933894891047 25.900933894891047 25.900933894891047 25.922907892327412 25.900933894891047 25.922907892327412 25.900933894891047 25.900933894891047 25.900933894891047 25.900933894891047 25.900933894891047 25.900933894891047 25.900933894891047 25.900933894891047 25.900933894891047 25.900933894891047 25.900933894891047 25.900933894891047 25.900933894891047 25.900933894891047 25.900933894891047 25.900933894891047 25.900933894891047 25.900933894891047 25.900933894891047 25.900933894891047 25.900933894891047 25.900933894891047 25.900933894891047 25.900933894891047 25.900933894891047 25.900933894891047 25.900933894891047 25.900933894891047 25.900933894891047 25.900933894891047 25.900933894891047 25.900933894891047 25.900933894891047 25.900933894891047 25.900933894891047 25.900933894891047 25.900933894891047 25.900933894891047 25.922907892327412 25.900933894891047 25.900933894891047 25.922907892327412 25.900933894891047 25.922907892327412 25.922907892327412 25.922907892327412 25.922907892327412 25.922907892327412 25.922907892327412 25.944881889763778 25.944881889763778 25.988829884636512 26.01080388207288 26.07672587438198 26.14264786669108 26.318439846182017 26.45028383080022 26.691997802600255 26.88976377952756 27.197399743636698 27.548983702618568 27.790697674418606 28.16425563083684 28.55978758469145 28.933345541109688 29.262955502655192 29.570591466764327 30.032045412928035 30.44955136421901 30.823109320637247 31.43838124885552 31.78996520783739 32.185497161692 32.97656106940121 33.372093023255815 33.767624977110415 34.51474088994689 34.88829884636513 35.41567478483794 35.87712873100165 36.20673869254715 36.602270646401756 36.887932613074526 37.3054385643655 37.81084050540194 38.20637245925654 38.77769639260209 39.173228346456696 39.7665262772386 40.315876213147774 40.71140816700238 41.48049807727523 42.05182201062077 42.293535982420806 42.930781908075446 43.150521882439115 43.787767808093754 44.2931697491302 44.66672770554844 45.26002563633034 45.83134956967588 46.22688152353049 46.820179454312395 47.23768540560337 47.80900933894891 48.40230726973082 48.81981322102179 49.39113715436733 49.940487090276505 50.48983702618568 50.99523896722212 51.36879692364036 51.76432887749496 52.24775682109504 52.62131477751328 53.302508698040654 53.80791063907709 54.15949459805896 54.64292254165903 55.01648049807727 55.36806445705915 56.09320637245926 56.488738326313864 57.060062259659404 57.609412195568574 58.02691814685955 58.64219007507782 59.2574620032961 59.674967954587075 60.290239882805345 60.77366782640542 61.41091375206006 62.09210767258744 62.59750961362388 63.564365500824024 64.09174143929684 64.59714338033328 65.21241530855156 65.73979124702436 66.42098516755172 67.34389305987915 67.80534700604285 68.44259293169749 68.90404687786119 69.2995788317158 70.11261673686138 70.53012268815235 71.12342061893426 71.58487456509798 72.04632851126168 72.61765244460722 72.99121040102546 73.4966123420619 74.0239882805347 74.37557223951657 74.92492217542575 75.27650613440761 75.8258560703168 76.5509979857169 76.96850393700788 77.38600988829884 77.84746383446256 78.2210217908808 79.01208569859 79.4076176524446 80.02288958066288 80.57223951657207 81.0776414576085 81.42922541659037 82.08844533968139 82.48397729353599 83.01135323200879 83.42885918329976 83.91228712689984 84.3957150704999 84.72532503204542 85.16480498077274 85.56033693462736 85.8020509064274 86.08771287310017 86.2635048525911 86.48324482695477 86.63706280900934 86.72495879875481 86.83482878593665 86.87877678080937 86.87877678080937 86.87877678080937 86.85680278337301 86.85680278337301 86.85680278337301 86.85680278337301 86.83482878593665 86.76890679362754 86.68101080388207 86.54916681926387 86.3953488372093 86.17560886284564 85.91192089360922 85.71415491668193 85.4724409448819 85.16480498077274 84.96703900384546 84.63742904229994 84.3957150704999 83.8683391320271 83.40688518586339 83.05530122688153 82.72569126533602 82.37410730635415 82.02252334737227 81.40725141915401 81.0776414576085 80.57223951657207 80.11078557040835 79.69327961911739 79.25379967039004 78.85826771653544 78.2869437831899 77.67167185497162 77.18824391137156 76.50704999084417 75.78190807544406 74.99084416773485 74.19978026002565 73.8921442959165 73.07910639077092 72.26606848562534 71.69474455227981 70.59604468046146 69.78300677531587 69.21168284197034 68.48654092657023 67.95916498809743 67.47573704449735 66.72862113166087 66.02545321369712 65.32228529573338 64.68503937007874 64.1796374290423 63.586339498260394 63.124885552096686 62.44369163156931 61.7185497161692 61.16919978026002 60.46603186229628 59.674967954587075 59.10364402124153 58.00494414942318 57.43362021607764 56.57663431605933 55.85149240065922 55.30214246475005 54.5330525544772 53.434352682658854 52.863028749313315 52.02801684673137 51.50064090825856 50.97326496978575 49.962461087712875 49.45705914667643 48.70994323383995 48.05072331074895 47.523347372276135 46.995971433803334 46.57846548251236 46.00714154916682 45.52371360556674 45.12818165171214 44.64475370811206 44.271195751693824 43.568027833730085 43.01867789782091 42.62314594396631 42.27156198498443 41.72221204907526 41.19483611060245 40.55759018494781 40.140084233656836 39.612708295184035 39.107306354147596 38.75572239516572 38.40413843618385 37.89873649514741 37.635048525911 37.3054385643655 37.08569859000183 36.778062625892694 36.51437465665629 36.316608679728986 35.96502472074712 35.76725874381981 35.54751876945615 35.26185680278337 35.06409082585607 34.60263687969236 34.33894891045596 34.09723493865592 33.701702984801315 33.306171030946714 32.95458707196484 32.581029115546606 32.22944515656473 31.855887200146494 31.50430324116462 31.28456326680095 30.954953305255447 30.625343343709943 30.383629371909905 29.9880974180553 29.724409448818896 29.350851492400658 28.999267533418788 28.62570957700055 28.40596960263688 28.09833363852774 27.87859366416407 27.658853689800402 27.527009705182202 27.351217725691264 27.329243728254898 27.351217725691264 27.351217725691264 27.351217725691264 27.351217725691264 27.329243728254898 27.307269730818533 27.285295733382164 27.263321735945798 27.241347738509432 27.197399743636698 27.17542574620033 27.153451748763963 27.131477751327594 27.10950375389123 27.10950375389123 27.087529756454863 27.065555759018494 27.04358176158213 27.04358176158213 27.04358176158213 27.02160776414576 26.999633766709394 26.97765976927303 26.95568577183666 26.933711774400294 26.911737776963925 26.911737776963925 26.88976377952756 26.867789782091194 26.867789782091194 26.845815784654825 26.867789782091194 26.845815784654825 26.82384178721846 26.82384178721846 26.80186778978209 26.80186778978209 26.779893792345725 26.779893792345725 26.779893792345725 26.779893792345725 26.757919794909355 26.757919794909355 26.757919794909355 26.757919794909355 26.757919794909355 26.73594579747299 26.713971800036624 26.713971800036624 26.691997802600255 26.691997802600255 26.67002380516389 26.648049807727524 26.626075810291155 26.60410181285479 26.58212781541842 26.560153817982055 26.538179820545686 26.51620582310932 26.494231825672955 26.472257828236586 26.472257828236586 26.472257828236586 26.472257828236586 26.45028383080022 26.45028383080022 26.45028383080022 26.45028383080022 26.42830983336385 26.42830983336385 26.406335835927486 26.42830983336385 26.406335835927486 26.406335835927486 26.406335835927486 26.406335835927486 26.406335835927486 26.406335835927486 26.406335835927486 26.406335835927486 26.406335835927486 26.406335835927486 26.406335835927486 26.38436183849112 26.38436183849112 26.38436183849112 26.38436183849112 26.38436183849112 26.36238784105475 26.36238784105475 26.36238784105475 26.36238784105475 26.36238784105475 26.36238784105475 26.340413843618386 26.340413843618386 26.318439846182017 26.318439846182017 26.318439846182017 26.29646584874565 26.29646584874565 26.29646584874565 26.29646584874565 26.29646584874565 26.29646584874565 26.29646584874565 26.29646584874565 26.29646584874565 26.29646584874565 26.29646584874565 26.29646584874565 26.29646584874565 26.29646584874565 26.274491851309286 26.29646584874565 26.29646584874565 26.29646584874565 26.29646584874565 26.29646584874565 26.274491851309286 26.29646584874565 26.29646584874565 26.29646584874565 26.29646584874565 26.29646584874565 26.274491851309286 26.274491851309286 26.274491851309286 26.274491851309286 26.29646584874565 26.274491851309286 26.274491851309286 26.274491851309286 26.274491851309286 26.274491851309286 26.274491851309286 26.274491851309286 26.274491851309286 26.274491851309286 26.252517853872916 26.274491851309286 26.274491851309286 26.274491851309286 26.274491851309286 26.274491851309286 26.274491851309286 26.274491851309286 26.274491851309286 26.274491851309286 26.274491851309286 26.274491851309286 26.274491851309286 26.274491851309286 26.274491851309286 26.274491851309286 26.274491851309286 26.274491851309286 26.274491851309286 26.274491851309286 26.274491851309286 26.274491851309286 26.274491851309286 26.274491851309286 26.274491851309286 26.274491851309286 26.274491851309286 26.274491851309286 26.274491851309286 26.274491851309286 26.274491851309286 26.274491851309286 26.274491851309286 26.274491851309286 26.274491851309286 26.274491851309286 26.274491851309286 26.274491851309286 26.274491851309286 26.274491851309286 26.274491851309286 26.274491851309286 26.274491851309286 26.274491851309286 26.274491851309286 26.274491851309286 26.274491851309286 26.274491851309286 26.274491851309286 26.274491851309286 26.274491851309286 26.274491851309286 26.29646584874565 26.274491851309286 26.274491851309286 26.274491851309286 26.29646584874565 26.274491851309286 26.274491851309286 26.274491851309286 26.29646584874565 26.29646584874565 26.274491851309286 26.29646584874565 26.29646584874565 26.29646584874565 26.274491851309286 26.29646584874565 26.29646584874565 26.29646584874565 26.29646584874565 26.29646584874565 26.29646584874565 26.274491851309286 26.29646584874565 26.29646584874565 26.29646584874565 26.29646584874565 26.29646584874565 26.29646584874565 26.29646584874565 26.29646584874565 26.29646584874565 26.29646584874565 26.29646584874565 26.29646584874565 26.29646584874565 26.29646584874565 26.318439846182017 26.318439846182017 26.29646584874565 26.29646584874565 26.29646584874565 26.29646584874565 26.29646584874565 26.318439846182017 26.318439846182017 26.29646584874565 26.318439846182017 26.318439846182017 26.318439846182017 26.318439846182017 26.318439846182017 26.318439846182017 26.340413843618386 26.340413843618386 26.38436183849112 26.406335835927486 26.494231825672955 26.67002380516389 26.845815784654825 27.131477751327594 27.461087712873102 27.87859366416407 28.31807361289141 28.69163156930965 29.065189525727888 29.812305438564366 30.251785387291704 30.691265336019043 31.15271928218275 31.482329243728255 31.855887200146494 32.1195751693829 32.4491851309284 32.734847097601175 32.95458707196484 33.218275041201245 33.525911005310384 33.855520966855885 34.141182933528654 34.38289690532869 34.69053286943783 35.0421168284197 35.28383080021974 35.72331074894708 36.03094671305622 36.16279069767442 36.602270646401756 36.843984618201794 37.1076725874382 37.635048525911 37.96465848745651 38.36019044131112 38.75572239516572 39.107306354147596 39.5028383080022 39.8324482695477 40.249954220838674 40.68943416956601 41.019044131111514 41.52444607214796 42.18366599523897 42.51327595678447 42.864859915766345 43.238417872184584 43.61197582860282 44.11737776963926 44.57883171580296 45.04028566196667 45.50173960813038 45.89727156198498 46.314777513275956 46.66636147225783 46.93004944149423 47.523347372276135 47.89690532869437 48.22651529023988 48.62204724409449 48.86376121589453 49.2153451748764 49.63285112616737 49.808643105658305 50.35799304156748 50.665629005676614 51.10510895440396 51.43471891594946 52.02801684673137 52.48947079289508 52.797106757004215 53.08276872367698 53.52224867240432 53.851858633949824 54.31331258011353 54.81871452114997 55.28016846731368 55.85149240065922 56.247024354513826 56.64255630836843 57.34572422633217 57.82915216993224 58.31258011353232 58.70811206738693 59.301409998168836 59.850759934078006 60.290239882805345 60.83958981871452 61.34499175975096 61.7844717084783 62.31184764695111 62.707379600805716 63.278703534151255 64.04779344442409 64.4433253982787 64.9047793444424 65.47610327778796 65.89360922907892 66.5748031496063 66.99230910089727 67.82732100347921 68.44259293169749 68.86009888298847 69.431422816334 70.02472074711591 70.42025270097052 70.94762863944334 71.32118659586156 71.82658853689802 72.2880424830617 72.63962644204358 73.07910639077092 73.4966123420619 73.80424830617103 74.19978026002565 74.46346822926205 74.85900018311665 75.21058414209853 75.49624610877129 75.93572605749863 76.15546603186229 76.3532320087896 76.77073796008057 76.96850393700788 77.23219190624428 77.49587987548068 77.67167185497162 77.89141182933528 78.04522981138985 78.24299578831716 78.44076176524446 78.57260574986266 78.77037172678996 78.94616370628091 79.07800769089911 79.2757736678264 79.4076176524446 79.62735762680828 79.84709760117195 80.00091558322652 80.26460355246292 80.46236952939023 80.59421351400843 80.77000549349935 80.83592748580847 81.05566746017213 81.36330342428127 81.51712140633583 81.71488738326315 81.91265336019043 82.04449734480863 82.22028932429959 82.30818531404505 82.46200329609962 82.63779527559055 82.74766526277239 82.92345724226331 83.0772752243179 83.25306720380883 83.38491118842703 83.4728071781725 83.53872917048159 83.58267716535434 83.62662516022706 83.69254715253618 83.7364951474089 83.7364951474089 83.75846914484526 83.75846914484526 83.7364951474089 83.7364951474089 83.62662516022706 83.42885918329976 83.12122321919063 82.85753524995422 82.39608130379051 82.04449734480863 81.49514740889947 80.87987548068119 80.41842153451748 79.75920161142648 79.07800769089911 78.57260574986266 77.51785387291704 76.83665995238968 76.26533601904413 75.54019410364401 74.92492217542575 74.04596227797106 73.12305438564366 72.26606848562534 71.34316059329794 70.70591466764328 70.06866874198866 68.75022889580663 68.02508698040651 66.9044131111518 66.00347921626076 64.79490935726056 64.1796374290423 63.498443508514924 62.59750961362388 61.74052371360557 61.14722578282366 60.33418787767808 59.82878593664164 59.14759201611427 58.31258011353232 57.82915216993224 57.389672221204904 56.9282182750412 56.532686321186596 55.80754440578649 55.43398644936825 54.92858450833181 54.44515656473173 54.11554660318623 53.763962644204355 53.126716718549716 52.797106757004215 52.31367881340414 51.8741988646768 51.39077092107672 50.84142098516755 50.46786302874931 49.91851309284014 49.39113715436733 49.01757919794909 48.44625526460355 48.07269730818531 47.36952939022157 46.995971433803334 46.556491485075995 45.69950558505768 45.30397363120308 44.86449368247574 43.96355978758469 43.48013184398462 42.88683391320271 42.31550997985717 41.87603003112983 41.39260208752975 40.86522614905695 40.513642190075075 40.008240249038636 39.612708295184035 39.173228346456696 38.66782640542025 38.18439846182018 37.87676249771104 37.54715253616554 37.21754257462003 36.80003662332906 36.536348654092656 36.07489470792895 35.74528474638345 35.48159677714705 35.15198681560154 34.99816883354697 34.69053286943783 34.25105292071049 34.009338948910454 33.67972898736495 33.350119025819446 33.020509064273945 32.60300311298297 32.42721113349204 32.0536531770738 31.614173228346456 31.28456326680095 30.823109320637247 30.42757736678264 30.010071415491666 29.658487456509796 29.41677348470976 29.19703351034609 28.867423548800588 28.669657571873284 28.38399560520051 28.03241164621864 27.856619666727706 27.702801684673137 27.658853689800402 27.636879692364037 27.570957700054933 27.548983702618568 27.527009705182202 27.505035707745833 27.483061710309467 27.483061710309467 27.461087712873102 27.417139718000367 27.395165720564 27.373191723127633 27.351217725691264 27.307269730818533 27.307269730818533 27.285295733382164 27.263321735945798 27.263321735945798 27.241347738509432 27.219373741073063 27.219373741073063 27.197399743636698 27.17542574620033 27.197399743636698 27.197399743636698 27.197399743636698 27.17542574620033 27.17542574620033 27.153451748763963 27.153451748763963 27.131477751327594 27.10950375389123 27.10950375389123 27.087529756454863 27.065555759018494 27.065555759018494 27.04358176158213 27.04358176158213 26.999633766709394 26.999633766709394 26.97765976927303 26.95568577183666 26.95568577183666 26.933711774400294 26.933711774400294 26.911737776963925 26.911737776963925 26.911737776963925 26.911737776963925 26.911737776963925 26.88976377952756 26.911737776963925 26.911737776963925 26.911737776963925 26.88976377952756 26.88976377952756 26.88976377952756 26.88976377952756 26.88976377952756 26.911737776963925 26.88976377952756 26.88976377952756 26.88976377952756 26.88976377952756 26.911737776963925 26.911737776963925 26.911737776963925 26.911737776963925 26.911737776963925 26.911737776963925 26.911737776963925 26.911737776963925 26.911737776963925 26.88976377952756 26.911737776963925 26.911737776963925 26.88976377952756 26.911737776963925 26.911737776963925 26.911737776963925 26.911737776963925 26.911737776963925 26.911737776963925 26.911737776963925 26.911737776963925 26.911737776963925 26.911737776963925 26.911737776963925 26.911737776963925 26.911737776963925 26.911737776963925 26.911737776963925 26.911737776963925 26.911737776963925 26.933711774400294 26.911737776963925 26.911737776963925 26.911737776963925 26.911737776963925 26.911737776963925 26.911737776963925 26.911737776963925 26.911737776963925 26.88976377952756 26.911737776963925 26.911737776963925 26.911737776963925 26.911737776963925 26.911737776963925 26.88976377952756 26.911737776963925 26.911737776963925 26.911737776963925 26.911737776963925 26.911737776963925 26.911737776963925 26.911737776963925 26.911737776963925 26.911737776963925 26.911737776963925 26.911737776963925 26.911737776963925 26.88976377952756 26.911737776963925 26.88976377952756 26.88976377952756 26.88976377952756 26.88976377952756 26.88976377952756 26.911737776963925 26.911737776963925 26.88976377952756 26.911737776963925 26.911737776963925 26.911737776963925 26.911737776963925 26.911737776963925 26.88976377952756 26.911737776963925 26.88976377952756 26.88976377952756 26.911737776963925 26.911737776963925 26.911737776963925 26.911737776963925 26.911737776963925 26.88976377952756 26.911737776963925 26.88976377952756 26.88976377952756 26.88976377952756 26.88976377952756 26.88976377952756 26.88976377952756 26.88976377952756 26.88976377952756 26.88976377952756 26.88976377952756 26.88976377952756 26.88976377952756 26.88976377952756 26.88976377952756 26.88976377952756 26.88976377952756 26.88976377952756 26.88976377952756 26.88976377952756 26.88976377952756 26.88976377952756 26.88976377952756 26.88976377952756 26.88976377952756 26.88976377952756 26.88976377952756 26.88976377952756 26.88976377952756 26.88976377952756 26.88976377952756 26.88976377952756 26.88976377952756 26.88976377952756 26.88976377952756 26.867789782091194 26.88976377952756 26.88976377952756 26.88976377952756 26.88976377952756 26.88976377952756 26.88976377952756 26.867789782091194 26.867789782091194 26.867789782091194 26.88976377952756 26.88976377952756 26.867789782091194 26.88976377952756 26.88976377952756 26.88976377952756 26.867789782091194 26.88976377952756 26.88976377952756 26.88976377952756 26.88976377952756 26.88976377952756 26.88976377952756 26.88976377952756 26.88976377952756 26.88976377952756 26.88976377952756 26.88976377952756 26.88976377952756 26.88976377952756 26.88976377952756 26.88976377952756 26.911737776963925 26.933711774400294 26.95568577183666 26.95568577183666 26.999633766709394 27.10950375389123 27.17542574620033 27.373191723127633 27.636879692364037 27.856619666727706 28.18622962827321 28.71360556674602 29.021241530855153 29.504669474455227 29.70243545138253 30.163889397546235 30.801135323200878 31.130745284746382 31.482329243728255 31.94378318989196 32.22944515656473 32.53708112067387 32.75682109503754 33.108405054019414 33.438015015564915 33.701702984801315 34.075260941219554 34.44881889763779 34.8443508514924 35.26185680278337 35.78923274125618 36.14081670023805 36.668192638710856 37.1076725874382 37.7668925105292 38.14045046694744 38.88756637978392 39.21717634132943 39.546786302874935 39.898370261856805 40.447720197765975 40.71140816700238 41.084966123420614 41.48049807727523 41.74418604651163 42.11774400292987 42.38143197216627 42.733015931148145 43.08459989013001 43.326313861930046 43.721845815784654 44.22724775682109 44.53488372093023 44.79857169016664 45.06225965940304 45.45779161325764 45.853323567112255 46.16095953122139 46.71030946713056 46.995971433803334 47.4134773850943 47.91887932613075 48.27046328511261 48.60007324665812 49.3471891594946 49.742721113349205 50.511811023622045 50.88536898004028 51.32484892876762 51.85222486724043 52.44552279802234 52.841054751876946 53.302508698040654 53.698040651895255 54.22541659036806 54.5989745467863 55.28016846731368 55.80754440578649 56.15912836476836 56.57663431605933 57.125984251968504 57.58743819813221 58.37850210584142 58.9278520417506 59.47720197765977 60.202343893059876 60.70774583409632 61.21314777513276 61.93828969053287 62.64145760849661 63.388573521333086 63.915949459805894 64.70701336751512 65.45412928035158 66.00347921626076 67.01428309833364 67.47573704449735 67.98113898553379 68.68430690349753 69.12378685222487 69.7610327778795 70.59604468046146 70.9696026368797 71.51895257278886 71.84856253433438 72.22212049075262 72.70554843435269 73.16700238051638 73.60648232924373 74.04596227797106 74.35359824208021 74.79307819080753 75.23255813953489 75.51822010620765 75.91375206006227 76.19941402673503 76.616919978026 77.0124519318806 77.276139901117 77.84746383446256 78.0891778062626 78.39681377037172 78.94616370628091 79.23182567295368 79.51748763962644 79.84709760117195 80.19868156015382 80.50631752426295 80.72605749862663 80.9457974729903 81.31935542940855 81.58304339864495 81.82475737044497 82.11041933711775 82.28621131660869 82.54989928584509 82.72569126533602 82.96740523713606 83.2091192089361 83.40688518586339 83.64859915766343 83.84636513459074 83.97820911920894 84.15400109869987 84.28584508331807 84.41768906793627 84.54953305255447 84.59348104742722 84.74729902948178 84.81322102179088 84.83519501922726 84.81322102179088 84.81322102179088 84.76927302691814 84.5275590551181 84.28584508331807 83.95623512177258 83.62662516022706 83.36293719099066 82.92345724226331 82.57187328328145 82.08844533968139 81.56106940120857 81.1435634499176 80.50631752426295 79.60538362937191 79.05603369346274 78.39681377037172 77.97930781908076 77.34206189342612 76.52902398828054 75.957700054935 74.83702618568029 74.00201428309833 73.40871635231643 72.59567844717085 72.0243545138253 71.45303058047976 70.50814869071598 69.84892876762498 69.2336568394067 68.72825489837027 67.98113898553379 67.32191906244277 66.6407251419154 66.1792711957517 65.54202527009704 65.08057132393334 64.42135140084233 63.95989745467863 63.256729536714886 62.28987364951474 61.76249771104193 61.21314777513276 60.509979857169014 59.960629921259844 59.16956601355063 58.35652810840505 57.65336019044131 56.884270280168465 56.356894341695664 55.87346639809559 54.97253250320454 54.4671305621681 53.763962644204355 53.346456692913385 52.66526277238601 52.02801684673137 51.50064090825856 50.92931697491302 50.40194103644021 50.006409082585606 49.479033144112805 49.105475187694566 48.57809924922175 47.89690532869437 47.54532136971251 46.995971433803334 46.622413477385095 46.182933528657756 45.32594762863944 45.06225965940304 44.24922175425746 43.568027833730085 43.106573887566384 42.51327595678447 41.94195202343893 41.48049807727523 40.99707013367515 40.579564182384175 40.074162241347736 39.546786302874935 39.173228346456696 38.62387841054752 38.09650247207471 37.7668925105292 37.261490569492764 36.997802600256364 36.404504669474456 36.052920710492586 35.67936275407435 35.26185680278337 35.08606482329244 34.7125068668742 34.18513092840139 33.96539095403772 33.635780992492215 33.284197033510345 33.064457059146676 32.800769089910276 32.62497711041934 32.36128914118294 32.09760117194653 31.921809192455594 31.614173228346456 31.196667277055482 30.954953305255447 30.713239333455412 30.471525361655374 30.07599340780077 29.680461453946165 29.394799487273392 28.867423548800588 28.49386559238235 28.25215162058231 28.010437648782275 27.724775682109502 27.505035707745833 27.461087712873102 27.439113715436733 27.439113715436733 27.461087712873102 27.483061710309467 27.461087712873102 27.439113715436733 27.439113715436733 27.417139718000367 27.395165720564 27.373191723127633 27.351217725691264 27.351217725691264 27.329243728254898 27.307269730818533 27.285295733382164 27.241347738509432 27.219373741073063 27.17542574620033 27.153451748763963 27.131477751327594 27.10950375389123 27.10950375389123 27.10950375389123 27.087529756454863 27.087529756454863 27.087529756454863 27.087529756454863 27.087529756454863 27.087529756454863 27.087529756454863 27.087529756454863 27.087529756454863 27.087529756454863 27.087529756454863 27.087529756454863 27.087529756454863 27.065555759018494 27.065555759018494 27.065555759018494 27.04358176158213 27.04358176158213 27.02160776414576 27.02160776414576 27.02160776414576 26.999633766709394 26.999633766709394 26.97765976927303 26.97765976927303 26.95568577183666 26.933711774400294 26.911737776963925 26.911737776963925 26.911737776963925 26.88976377952756 26.88976377952756 26.867789782091194 26.867789782091194 26.845815784654825 26.845815784654825 26.845815784654825 26.82384178721846 26.82384178721846 26.80186778978209 26.80186778978209 26.80186778978209 26.779893792345725 26.779893792345725 26.80186778978209 26.779893792345725 26.80186778978209 26.80186778978209 26.779893792345725 26.80186778978209 26.779893792345725 26.779893792345725 26.80186778978209 26.80186778978209 26.80186778978209 26.80186778978209 26.779893792345725 26.80186778978209 26.80186778978209 26.80186778978209 26.80186778978209 26.779893792345725 26.779893792345725 26.80186778978209 26.80186778978209 26.779893792345725 26.80186778978209 26.779893792345725 26.80186778978209 26.779893792345725 26.779893792345725 26.80186778978209 26.779893792345725 26.779893792345725 26.779893792345725 26.779893792345725 26.779893792345725 26.779893792345725 26.779893792345725 26.779893792345725 26.757919794909355 26.757919794909355 26.757919794909355 26.757919794909355 26.757919794909355 26.757919794909355 26.779893792345725 26.757919794909355 26.757919794909355 26.757919794909355 26.757919794909355 26.757919794909355 26.757919794909355 26.757919794909355 26.757919794909355 26.757919794909355 26.757919794909355 26.757919794909355 26.757919794909355 26.757919794909355 26.757919794909355 26.757919794909355 26.757919794909355 26.757919794909355 26.757919794909355 26.757919794909355 26.73594579747299 26.757919794909355 26.757919794909355 26.757919794909355 26.757919794909355 26.757919794909355 26.757919794909355 26.757919794909355 26.73594579747299 26.73594579747299 26.757919794909355 26.757919794909355 26.757919794909355 26.757919794909355 26.73594579747299 26.73594579747299 26.73594579747299 26.73594579747299 26.73594579747299 26.73594579747299 26.73594579747299 26.73594579747299 26.73594579747299 26.73594579747299 26.73594579747299 26.73594579747299 26.757919794909355 26.73594579747299 26.73594579747299 26.757919794909355 26.73594579747299 26.73594579747299 26.757919794909355 26.73594579747299 26.73594579747299 26.73594579747299 26.757919794909355 26.757919794909355 26.757919794909355 26.73594579747299 26.757919794909355 26.757919794909355 26.73594579747299 26.757919794909355 26.757919794909355 26.757919794909355 26.757919794909355 26.757919794909355 26.757919794909355 26.757919794909355 26.757919794909355 26.73594579747299 26.757919794909355 26.757919794909355 26.757919794909355 26.757919794909355 26.757919794909355 26.757919794909355 26.757919794909355 26.73594579747299 26.757919794909355 26.757919794909355 26.757919794909355 26.757919794909355 26.757919794909355 26.757919794909355 26.757919794909355 26.757919794909355 26.757919794909355 26.757919794909355 26.757919794909355 26.757919794909355 26.757919794909355 26.757919794909355 26.757919794909355 26.757919794909355 26.757919794909355 26.757919794909355 26.757919794909355 26.757919794909355 26.757919794909355 26.73594579747299 26.757919794909355 26.73594579747299 26.757919794909355 26.757919794909355 26.757919794909355 26.757919794909355 26.73594579747299 26.757919794909355 26.757919794909355 26.73594579747299 26.757919794909355 26.757919794909355 26.757919794909355 26.779893792345725 26.80186778978209 26.80186778978209 26.88976377952756 26.95568577183666 27.065555759018494 27.219373741073063 27.395165720564 27.570957700054933 27.74674967954587 28.03241164621864 28.362021607764145 28.62570957700055 29.043215528291523 29.460721479582496 29.76835744369163 30.383629371909905 30.713239333455412 31.042849295000916 31.50430324116462 31.81193920527376 32.20747115912837 32.800769089910276 33.240249038637614 33.525911005310384 33.81157297198315 34.18513092840139 34.55868888481963 34.80040285661967 35.15198681560154 35.50357077458341 35.74528474638345 36.118842702801686 36.404504669474456 36.843984618201794 37.3054385643655 37.61307452847464 38.11847646951108 38.57993041567478 38.90954037722029 39.370994323384 39.854422266984066 40.140084233656836 40.62351217725691 40.93114814136605 41.50247207471159 41.83208203625709 42.27156198498443 42.733015931148145 43.062625892693646 43.52407983885735 43.98553378502106 44.31514374656656 44.77659769273027 45.10620765427578 45.61160959531222 46.09503753891229 46.424647500457795 46.952023438930595 47.47939937740341 47.85295733382164 48.40230726973082 48.81981322102179 49.69877311847647 50.006409082585606 50.379967039003844 50.79747299029482 51.23695293902216 51.56656290056766 52.11591283647684 52.40157480314961 52.75315876213148 53.126716718549716 53.434352682658854 53.80791063907709 54.269364585240794 54.64292254165903 55.10437648782275 55.43398644936825 55.983336385277426 56.7304522981139 57.14795824940487 57.52151620582311 58.11481413660502 58.51034609045962 59.08167002380517 59.54312396996887 60.246291887932614 60.795641823841784 61.23512177256912 61.7844717084783 62.18000366233291 62.57553561618751 63.344625526460355 63.74015748031496 64.3114814136605 64.9047793444424 65.34425929316976 65.8496612342062 66.42098516755172 66.79454312396996 67.36586705731551 67.76139901117011 68.33272294451567 68.86009888298847 69.45339681377037 70.00274674967955 70.37630470609778 70.77183665995238 71.34316059329794 71.82658853689802 72.55173045229812 73.12305438564366 73.562534334371 74.15583226515291 74.44149423182567 74.99084416773485 75.5621681010804 76.17744002929867 76.70481596777148 77.276139901117 77.67167185497162 78.17707379600806 78.5506317524263 79.07800769089911 79.5394616370628 79.86907159860831 80.35249954220839 80.79197949093573 81.0776414576085 81.67093938839041 82.02252334737227 82.24226332173595 82.65976927302691 82.96740523713606 83.29701519868156 83.58267716535434 83.89031312946346 84.1979490935726 84.41768906793627 84.57150704999086 84.81322102179088 84.92309100897272 84.98901300128182 85.03296099615454 85.03296099615454 85.03296099615454 85.03296099615454 85.01098699871818 84.87914301409998 84.76927302691814 84.54953305255447 84.21992309100898 83.97820911920894 83.7364951474089 83.62662516022706 83.31898919611793 82.85753524995422 82.48397729353599 81.73686138069951 81.12158945248123 80.70408350119027 80.13275956784472 79.5394616370628 79.07800769089911 78.06720380882624 77.56180186778978 76.85863394982604 76.15546603186229 75.58414209851676 74.92492217542575 74.37557223951657 73.6284563266801 72.88134041384362 72.31001648049809 71.51895257278886 70.77183665995238 70.04669474455227 69.3655008240249 69.1018128547885 68.42061893426111 67.73942501373375 67.23402307269731 66.35506317524263 65.87163523164256 65.19044131111518 64.5092473905878 64.04779344442409 63.586339498260394 62.72935359824208 62.28987364951474 61.67460172129647 61.21314777513276 60.61984984435085 60.004577916132575 59.34535799304157 58.81798205456876 58.40047610327779 58.00494414942318 57.41164621864127 56.9941402673503 56.26899835195019 55.74162241347739 55.36806445705915 54.95055850576817 54.401208569859 53.961728621131655 53.236586705731554 52.841054751876946 52.24775682109504 51.6105108954404 51.19300494414942 50.599707013367514 49.962461087712875 49.50100714154917 48.86376121589453 48.46822926203992 47.85295733382164 47.215711408167 46.886101446621495 46.248855520966856 45.94121955685772 45.65555759018495 45.23805163889398 44.97436366965757 44.6227797106757 44.18329976194836 43.91961179271196 43.590001831166454 43.326313861930046 43.062625892693646 42.55722395165721 42.40340596960264 41.67826405420253 41.39260208752975 41.06299212598425 40.62351217725691 40.249954220838674 39.854422266984066 39.41494231825673 39.08533235671123 38.64585240798389 38.22834645669291 37.92071049258378 37.45925654642007 37.261490569492764 36.931880607947264 36.602270646401756 36.38253067203809 35.96502472074712 35.76725874381981 35.43764878227431 35.15198681560154 34.93224684123787 34.7784288591833 34.38289690532869 34.11920893609229 33.89946896172862 33.635780992492215 33.39406702069218 33.108405054019414 32.82274308734664 32.53708112067387 32.2514191540011 32.0536531770738 31.767991210401025 31.35048525911005 31.108771287310017 30.911005310382713 30.735213330891778 30.537447353964474 30.251785387291704 29.9880974180553 29.70243545138253 29.41677348470976 29.219007507782457 28.933345541109688 28.75755356161875 28.55978758469145 28.25215162058231 28.076359641091376 27.922541659036806 27.81267167185497 27.768723676982237 27.74674967954587 27.724775682109502 27.724775682109502 27.702801684673137 27.68082768723677 27.636879692364037 27.592931697491302 27.527009705182202 27.483061710309467 27.461087712873102 27.417139718000367 27.373191723127633 27.351217725691264 27.285295733382164 27.241347738509432 27.17542574620033 27.10950375389123 27.065555759018494 27.02160776414576 26.911737776963925 26.867789782091194 26.80186778978209 26.757919794909355 26.713971800036624 26.691997802600255 26.67002380516389 26.648049807727524 26.648049807727524 26.626075810291155 26.648049807727524 26.626075810291155 26.648049807727524 26.626075810291155 26.626075810291155 26.626075810291155 26.60410181285479 26.60410181285479 26.60410181285479 26.60410181285479 26.58212781541842 26.58212781541842 26.58212781541842 26.58212781541842 26.58212781541842 26.560153817982055 26.560153817982055 26.560153817982055 26.560153817982055 26.560153817982055 26.538179820545686 26.538179820545686 26.538179820545686 26.538179820545686 26.538179820545686 26.538179820545686 26.51620582310932 26.51620582310932 26.51620582310932 26.51620582310932 26.51620582310932 26.51620582310932 26.51620582310932 26.51620582310932 26.494231825672955 26.51620582310932 26.51620582310932 26.494231825672955 26.51620582310932 26.494231825672955 26.494231825672955 26.51620582310932 26.494231825672955 26.494231825672955 26.494231825672955 26.494231825672955 26.494231825672955 26.494231825672955 26.494231825672955 26.494231825672955 26.494231825672955 26.494231825672955 26.494231825672955 26.494231825672955 26.494231825672955 26.494231825672955 26.494231825672955 26.494231825672955 26.494231825672955 26.494231825672955 26.494231825672955 26.494231825672955 26.494231825672955 26.494231825672955 26.494231825672955 26.494231825672955 26.494231825672955 26.494231825672955 26.494231825672955 26.494231825672955 26.494231825672955 26.494231825672955 26.494231825672955 26.494231825672955 26.494231825672955 26.494231825672955 26.494231825672955 26.494231825672955 26.494231825672955 26.472257828236586 26.494231825672955 26.472257828236586 26.494231825672955 26.494231825672955 26.494231825672955 26.494231825672955 26.494231825672955 26.494231825672955 26.494231825672955 26.494231825672955 26.494231825672955 26.494231825672955 26.494231825672955 26.494231825672955 26.494231825672955 26.472257828236586 26.494231825672955 26.494231825672955 26.494231825672955 26.494231825672955 26.494231825672955 26.494231825672955 26.494231825672955 26.494231825672955 26.494231825672955 26.494231825672955 26.494231825672955 26.494231825672955 26.494231825672955 26.494231825672955 26.494231825672955 26.494231825672955 26.494231825672955 26.494231825672955 26.494231825672955 26.494231825672955 26.494231825672955 26.494231825672955 26.494231825672955 26.494231825672955 26.494231825672955 26.472257828236586 26.494231825672955 26.494231825672955 26.494231825672955 26.494231825672955 26.494231825672955 26.494231825672955 26.494231825672955 26.494231825672955 26.494231825672955 26.494231825672955 26.472257828236586 26.494231825672955 26.472257828236586 26.494231825672955 26.472257828236586 26.494231825672955 26.494231825672955 26.472257828236586 26.472257828236586 26.472257828236586 26.494231825672955 26.494231825672955 26.472257828236586 26.494231825672955 26.494231825672955 26.494231825672955 26.494231825672955 26.494231825672955 26.494231825672955 26.494231825672955 26.472257828236586 26.472257828236586 26.494231825672955 26.494231825672955 26.494231825672955 26.494231825672955 26.494231825672955 26.494231825672955 26.494231825672955 26.472257828236586 26.494231825672955 26.494231825672955 26.472257828236586 26.494231825672955 26.472257828236586 26.494231825672955 26.494231825672955 26.494231825672955 26.472257828236586 26.494231825672955 26.472257828236586 26.494231825672955 26.494231825672955 26.472257828236586 26.494231825672955 26.472257828236586 26.494231825672955 26.494231825672955 26.494231825672955 26.494231825672955 26.494231825672955 26.494231825672955 26.494231825672955 26.494231825672955 26.494231825672955 26.494231825672955 26.494231825672955 26.494231825672955 26.494231825672955 26.494231825672955 26.494231825672955 26.494231825672955 26.51620582310932 26.494231825672955 26.51620582310932 26.51620582310932 26.51620582310932 26.494231825672955 26.51620582310932 26.51620582310932 26.51620582310932 26.51620582310932 26.51620582310932 26.51620582310932 26.538179820545686 26.538179820545686 26.560153817982055 26.560153817982055 26.626075810291155 26.648049807727524 26.757919794909355 26.95568577183666 27.10950375389123 27.329243728254898 27.483061710309467 27.922541659036806 28.12030763596411 28.40596960263688 28.77952755905512 29.219007507782457 29.54861746932796 30.054019410364404 30.44955136421901 30.976927302691813 31.57022523347372 32.20747115912837 32.62497711041934 33.020509064273945 33.61380699505585 34.40487090276506 34.80040285661967 35.17396081303791 35.76725874381981 36.16279069767442 36.887932613074526 37.08569859000183 37.72294451565647 38.18439846182018 38.51400842336568 38.90954037722029 39.370994323384 39.7006042849295 40.140084233656836 40.49166819263871 40.953122138802414 41.37062809009339 41.65629005676616 42.05182201062077 42.38143197216627 42.667093938839045 42.996703900384546 43.238417872184584 43.699871818348285 43.941585790148324 44.16132576451199 44.46896172862113 44.73264969785754 44.9523896722212 45.36989562351218 45.61160959531222 45.985167551730456 46.380699505585056 46.688335469694195 47.127815418421534 47.61124336202161 47.98480131843985 48.53415125434902 48.95165720563999 49.56692913385827 50.35799304156748 50.77549899285845 51.12708295184032 51.63248489287676 52.04999084416774 52.46749679545871 52.81908075444058 53.456326680095216 53.961728621131655 54.31331258011353 54.68687053653177 55.23622047244095 55.63175242629555 56.400842336568395 56.818348287859365 57.34572422633217 57.87310016480498 58.22468412378685 58.8619300494415 59.191540010987 59.521149972532506 60.026551913568944 60.378135872550814 60.92748580845999 61.43288774949643 62.00421168284197 62.53158762131478 62.905145577733016 63.322651529023986 63.828053470060425 64.22358542391504 65.1684673136788 65.56399926753342 66.00347921626076 66.66269913935176 67.21204907526095 67.71745101629739 68.20087895989745 68.90404687786119 69.5632668009522 70.24446072147958 70.68394067020692 71.27723860098882 71.65079655740706 72.24409448818898 72.77147042666178 73.12305438564366 73.60648232924373 74.04596227797106 74.35359824208021 74.96887017029849 75.29848013184399 75.5621681010804 75.957700054935 76.2213880241714 76.57297198315328 77.05639992675334 77.276139901117 77.60574986266252 77.86943783189892 78.06720380882624 78.4187877678081 78.6165537447354 78.8802417139718 79.1439296832082 79.31972166269914 79.56143563449919 79.73722761399011 79.97894158579015 80.19868156015382 80.35249954220839 80.55026551913569 80.68210950375389 80.74803149606299 80.87987548068119 80.96777147042667 81.0117194652994 81.0776414576085 81.12158945248123 81.12158945248123 81.12158945248123 81.12158945248123 81.0776414576085 80.96777147042667 80.81395348837209 80.57223951657207 80.44039553195387 80.22065555759019 80.04486357809925 79.78117560886285 79.47353964475371 79.23182567295368 78.85826771653544 78.4847097601172 78.19904779344444 77.78154184215344 77.42995788317158 76.8146859549533 76.30928401391687 75.91375206006227 75.51822010620765 75.01281816517121 74.59531221388025 73.80424830617103 73.34279436000733 72.70554843435269 72.00238051638894 71.47500457791614 70.77183665995238 69.98077275224318 69.40944881889763 68.59641091375207 67.93719099066105 67.23402307269731 66.20124519318806 65.62992125984252 65.14649331624244 64.46529939571508 63.981871452114994 63.278703534151255 62.75132759567845 61.89434169566014 61.23512177256912 60.77366782640542 60.114447903314414 59.718915949459806 59.27943600073247 58.42245010071415 57.98297015198681 57.389672221204904 56.796374290423 56.26899835195019 55.71964841604102 55.10437648782275 54.6648965390954 54.09357260574986 53.632118659586155 53.08276872367698 52.51144479033144 51.89617286211316 51.32484892876762 51.06116095953122 50.55575901849478 49.984435085149244 49.52298113898553 48.79783922358543 48.22651529023988 47.80900933894891 47.215711408167 46.995971433803334 46.44662149789416 45.69950558505768 45.34792162607581 44.8864676799121 44.38106573887566 43.98553378502106 43.61197582860282 43.304339864493684 42.88683391320271 42.51327595678447 42.18366599523897 41.81010803882073 41.43655008240249 41.12891411829335 40.62351217725691 40.33785021058414 40.096136238784105 39.722578282365866 39.370994323384 39.107306354147596 38.77769639260209 38.42611243362022 38.03058047976561 37.7668925105292 37.5032045412928 36.997802600256364 36.73411463101996 36.404504669474456 36.03094671305622 35.74528474638345 35.41567478483794 35.17396081303791 34.75645486174693 34.38289690532869 34.11920893609229 33.74565097967405 33.284197033510345 33.130379051455776 32.866691082219376 32.62497711041934 32.49313312580114 32.33931514374657 32.20747115912837 32.09760117194653 32.0536531770738 32.00970518220106 31.96575718732833 31.87786119758286 31.81193920527376 31.68009522065556 31.548251236037355 31.328511261673686 31.15271928218275 30.823109320637247 30.339681377037174 30.20783739241897 29.790331441127996 29.372825489837027 29.065189525727888 28.69163156930965 28.31807361289141 28.010437648782275 27.790697674418606 27.68082768723677 27.658853689800402 27.636879692364037 27.636879692364037 27.636879692364037 27.636879692364037 27.636879692364037 27.614905694927668 27.592931697491302 27.570957700054933 27.570957700054933 27.548983702618568 27.527009705182202 27.505035707745833 27.483061710309467 27.483061710309467 27.461087712873102 27.461087712873102 27.439113715436733 27.439113715436733 27.439113715436733 27.439113715436733 27.439113715436733 27.417139718000367 27.417139718000367 27.417139718000367 27.395165720564 27.373191723127633 27.373191723127633 27.351217725691264 27.329243728254898 27.307269730818533 27.307269730818533 27.285295733382164 27.263321735945798 27.263321735945798 27.263321735945798 27.263321735945798 27.263321735945798 27.241347738509432 27.263321735945798 27.263321735945798 27.263321735945798 27.241347738509432 27.241347738509432 27.241347738509432 27.241347738509432 27.241347738509432 27.241347738509432 27.241347738509432 27.219373741073063 27.219373741073063 27.219373741073063 27.219373741073063 27.197399743636698 27.197399743636698 27.17542574620033 27.17542574620033 27.17542574620033 27.153451748763963 27.153451748763963 27.153451748763963 27.131477751327594 27.131477751327594 27.131477751327594 27.131477751327594 27.10950375389123 27.10950375389123 27.10950375389123 27.131477751327594 27.10950375389123 27.10950375389123 27.10950375389123 27.10950375389123 27.10950375389123 27.10950375389123 27.10950375389123 27.10950375389123 27.10950375389123 27.10950375389123 27.10950375389123 27.10950375389123 27.10950375389123 27.087529756454863 27.087529756454863 27.10950375389123 27.087529756454863 27.087529756454863 27.087529756454863 27.087529756454863 27.10950375389123 27.087529756454863 27.10950375389123 27.10950375389123 27.10950375389123 27.087529756454863 27.10950375389123 27.087529756454863 27.087529756454863 27.087529756454863 27.087529756454863 27.087529756454863 27.087529756454863 27.087529756454863 27.087529756454863 27.087529756454863 27.087529756454863 27.087529756454863 27.087529756454863 27.087529756454863 27.087529756454863 27.087529756454863 27.087529756454863 27.087529756454863 27.087529756454863 27.087529756454863 27.087529756454863 27.087529756454863 27.087529756454863 27.087529756454863 27.087529756454863 27.087529756454863 27.087529756454863 27.087529756454863 27.087529756454863 27.087529756454863 27.087529756454863 27.087529756454863 27.087529756454863 27.087529756454863 27.087529756454863 27.087529756454863 27.087529756454863 27.087529756454863 27.10950375389123 27.087529756454863 27.087529756454863 27.087529756454863 27.087529756454863 27.087529756454863 27.087529756454863 27.087529756454863 27.087529756454863 27.087529756454863 27.087529756454863 27.087529756454863 27.087529756454863 27.087529756454863 27.087529756454863 27.087529756454863 27.087529756454863 27.087529756454863 27.087529756454863 27.087529756454863 27.087529756454863 27.087529756454863 27.087529756454863 27.087529756454863 27.087529756454863 27.087529756454863 27.065555759018494 27.065555759018494 27.065555759018494 27.065555759018494 27.04358176158213 27.065555759018494 27.04358176158213 27.04358176158213 27.04358176158213 27.04358176158213 27.04358176158213 27.04358176158213 27.04358176158213 27.02160776414576 27.04358176158213 27.02160776414576 27.04358176158213 27.02160776414576 27.02160776414576 27.04358176158213 27.02160776414576 27.02160776414576 27.04358176158213 27.04358176158213 27.04358176158213 27.04358176158213 27.04358176158213 27.04358176158213 27.02160776414576 27.04358176158213 27.04358176158213 27.02160776414576 27.04358176158213 27.04358176158213 27.04358176158213 27.04358176158213 27.04358176158213 27.04358176158213 27.04358176158213 27.04358176158213 27.04358176158213 27.04358176158213 27.04358176158213 27.04358176158213 27.04358176158213 27.04358176158213 27.04358176158213 27.04358176158213 27.04358176158213 27.04358176158213 27.04358176158213 27.04358176158213 27.04358176158213 27.065555759018494 27.087529756454863 27.10950375389123 27.131477751327594 27.197399743636698 27.263321735945798 27.461087712873102 27.505035707745833 27.614905694927668 27.74674967954587 27.87859366416407 28.05438564365501 28.25215162058231 28.49386559238235 28.735579564182384 28.933345541109688 29.109137520600623 29.306903497527927 29.504669474455227 29.900201428309835 30.097967405237135 30.42757736678264 30.801135323200878 31.020875297564547 31.262589269364586 31.767991210401025 32.0536531770738 32.49313312580114 32.84471708478301 33.350119025819446 33.855520966855885 34.27302691814686 34.93224684123787 35.52554477201978 35.986998718183486 36.624244643838125 37.1076725874382 37.74491851309284 38.60190441311115 39.107306354147596 39.5028383080022 39.920344259293174 40.447720197765975 40.86522614905695 41.15088811572972 41.50247207471159 41.87603003112983 42.13971800036623 42.42537996703901 42.864859915766345 43.128547885002746 43.54605383629372 43.91961179271196 44.271195751693824 44.77659769273027 45.12818165171214 45.65555759018495 46.22688152353049 46.600439479948726 47.1497894158579 47.56729536714887 48.33638527742171 48.75389122871269 49.4131111518037 50.006409082585606 50.336019044131106 50.88536898004028 51.41274491851309 51.85222486724043 52.37960080571324 52.95092473905878 53.346456692913385 53.91778062625893 54.48910455960447 54.92858450833181 55.54385643655009 56.115180369895626 56.64255630836843 57.45559421351401 57.87310016480498 58.29060611609595 58.66416407251419 59.23548800585973 59.806811939205275 60.180369895623514 60.97143380333272 61.586705731551 62.07013367515107 62.55356161875115 62.971067570042116 63.67423548800586 64.3114814136605 64.81688335469694 65.47610327778796 66.15729719831532 66.6407251419154 67.54165903680644 67.69547701886101 68.39864493682475 69.05786485991577 69.60721479582494 70.13459073429775 70.92565464200696 71.34316059329794 71.8925105292071 72.24409448818898 72.59567844717085 73.07910639077092 73.38674235488006 73.98004028566197 74.35359824208021 74.70518220106207 74.96887017029849 75.23255813953489 75.6940120856986 75.91375206006227 76.15546603186229 76.50704999084417 76.85863394982604 77.12232191906244 77.49587987548068 77.91338582677164 78.17707379600806 78.57260574986266 78.92418970884452 79.2757736678264 79.71525361655375 80.02288958066288 80.59421351400843 80.87987548068119 81.1435634499176 81.51712140633583 81.78080937557223 82.15436733199049 82.59384728071782 82.85753524995422 83.12122321919063 83.31898919611793 83.49478117560886 83.82439113715438 84.0001831166453 84.1979490935726 84.35176707562718 84.5275590551181 84.68137703717268 84.79124702435452 84.90111701153634 84.98901300128182 85.05493499359092 85.09888298846366 85.12085698590002 85.14283098333638 85.14283098333638 85.16480498077274 85.16480498077274 85.14283098333638 85.14283098333638 85.05493499359092 84.94506500640908 84.70335103460906 84.43966306537266 84.28584508331807 84.08807910639078 83.7364951474089 83.49478117560886 83.18714521149973 82.9454312396997 82.57187328328145 82.19831532686322 81.93462735762681 81.49514740889947 81.05566746017213 80.68210950375389 80.24262955502655 79.73722761399011 79.25379967039004 78.8802417139718 78.37483977293536 77.82548983702618 77.32008789598976 76.8806079472624 76.26533601904413 75.84783006775316 75.23255813953489 74.63926020875297 74.19978026002565 73.54056033693463 72.90331441127998 72.44186046511629 71.7606665445889 71.2992125984252 70.59604468046146 69.71708478300678 69.2336568394067 68.77220289324299 68.00311298297015 67.29994506500641 66.81651712140633 66.04742721113348 65.38820728804248 64.72898736495148 64.2455594213514 63.564365500824024 62.94909357260575 62.39974363669658 61.7185497161692 61.21314777513276 60.509979857169014 59.850759934078006 59.367331990477936 58.44442409815052 57.96099615455045 57.43362021607764 56.7304522981139 56.181102362204726 55.36806445705915 54.269364585240794 53.67606665445889 52.841054751876946 52.291704815967776 51.58853689800403 50.75352499542208 50.160227064640175 49.08350119025819 48.35835927485809 47.87493133125801 47.259659403039734 46.776231459439664 46.33675151071232 45.985167551730456 45.54568760300312 45.12818165171214 44.71067570042116 44.4250137337484 44.02948177989379 43.74381981322102 43.348287859366415 42.930781908075446 42.62314594396631 42.1616919978026 41.70023805163889 41.39260208752975 40.73338216443875 40.35982420802051 39.942318256729536 39.5028383080022 38.99743636696576 38.64585240798389 38.05255447720198 37.72294451565647 37.34938655923823 37.041750595129095 36.756088628456325 36.44845266434719 36.250686687419886 36.03094671305622 35.83318073612892 35.67936275407435 35.48159677714705 35.32777879509247 35.13001281816517 34.9102728438015 34.7784288591833 34.53671488738326 34.29500091558323 34.11920893609229 33.83354696941952 33.48196301043765 33.218275041201245 32.91063907709211 32.5151071232375 32.14154916681926 31.855887200146494 31.482329243728255 31.15271928218275 30.911005310382713 30.669291338582678 30.405603369346274 30.273759384728073 30.07599340780077 29.944149423182566 29.790331441127996 29.61453946163706 29.504669474455227 29.328877494964292 29.175059512909723 29.065189525727888 28.933345541109688 28.801501556491484 28.603735579564184 28.427943600073245 28.31807361289141 28.18622962827321 28.010437648782275 27.790697674418606 27.702801684673137 27.636879692364037 27.570957700054933 27.505035707745833 27.483061710309467 27.439113715436733 27.417139718000367 27.373191723127633 27.351217725691264 27.329243728254898 27.285295733382164 27.241347738509432 27.219373741073063 27.197399743636698 27.17542574620033 27.153451748763963 27.131477751327594 27.10950375389123 27.087529756454863 27.065555759018494 27.04358176158213 27.04358176158213 27.02160776414576 27.02160776414576 27.02160776414576 26.999633766709394 26.999633766709394 26.999633766709394 26.97765976927303 26.97765976927303 26.97765976927303 26.97765976927303 26.97765976927303 26.97765976927303 26.97765976927303 26.97765976927303 26.97765976927303 26.95568577183666 26.97765976927303 26.95568577183666 26.95568577183666 26.95568577183666 26.95568577183666 26.933711774400294 26.911737776963925 26.911737776963925 26.911737776963925 26.88976377952756 26.867789782091194 26.867789782091194 26.845815784654825 26.82384178721846 26.82384178721846 26.80186778978209 26.80186778978209 26.779893792345725 26.779893792345725 26.757919794909355 26.757919794909355 26.757919794909355 26.757919794909355 26.73594579747299 26.73594579747299 26.73594579747299 26.73594579747299 26.73594579747299 26.713971800036624 26.713971800036624 26.691997802600255 26.691997802600255 26.67002380516389 26.67002380516389 26.648049807727524 26.648049807727524 26.648049807727524 26.648049807727524 26.648049807727524 26.648049807727524 26.648049807727524 26.648049807727524 26.626075810291155 26.626075810291155 26.626075810291155 26.626075810291155 26.626075810291155 26.626075810291155 26.60410181285479 26.626075810291155 26.60410181285479 26.60410181285479 26.60410181285479 26.60410181285479 26.60410181285479 26.60410181285479 26.60410181285479 26.60410181285479 26.58212781541842 26.58212781541842 26.60410181285479 26.58212781541842 26.60410181285479 26.58212781541842 26.58212781541842 26.58212781541842 26.58212781541842 26.60410181285479 26.58212781541842 26.58212781541842 26.58212781541842 26.58212781541842 26.58212781541842 26.58212781541842 26.60410181285479 26.58212781541842 26.60410181285479 26.58212781541842 26.58212781541842 26.60410181285479 26.60410181285479 26.60410181285479 26.60410181285479 26.58212781541842 26.60410181285479 26.60410181285479 26.60410181285479 26.60410181285479 26.60410181285479 26.60410181285479 26.60410181285479 26.60410181285479 26.60410181285479 26.58212781541842 26.60410181285479 26.58212781541842 26.58212781541842 26.60410181285479 26.58212781541842 26.58212781541842 26.58212781541842 26.560153817982055 26.560153817982055 26.560153817982055 26.560153817982055 26.560153817982055 26.560153817982055 26.560153817982055 26.560153817982055 26.560153817982055 26.560153817982055 26.560153817982055 26.560153817982055 26.560153817982055 26.560153817982055 26.560153817982055 26.560153817982055 26.560153817982055 26.560153817982055 26.560153817982055 26.560153817982055 26.560153817982055 26.560153817982055 26.560153817982055 26.560153817982055 26.560153817982055 26.560153817982055 26.560153817982055 26.560153817982055 26.58212781541842 26.560153817982055 26.560153817982055 26.560153817982055 26.560153817982055 26.560153817982055 26.560153817982055 26.560153817982055 26.560153817982055 26.58212781541842 26.560153817982055 26.58212781541842 26.58212781541842 26.58212781541842 26.58212781541842 26.58212781541842 26.58212781541842 26.58212781541842 26.60410181285479 26.60410181285479 26.626075810291155 26.626075810291155 26.648049807727524 26.648049807727524 26.67002380516389 26.713971800036624 26.757919794909355 26.80186778978209 26.845815784654825 26.911737776963925 26.999633766709394 27.04358176158213 27.087529756454863 27.131477751327594 27.17542574620033 27.241347738509432 27.285295733382164 27.417139718000367 27.505035707745833 27.570957700054933 27.702801684673137 27.790697674418606 27.988463651345906 28.18622962827321 28.38399560520051 28.62570957700055 28.84544955136422 29.153085515473357 29.61453946163706 29.900201428309835 30.317707379600805 30.603369346273574 30.932979307819082 31.394433253982786 31.78996520783739 32.4491851309284 32.998535066837576 33.39406702069218 33.767624977110415 34.29500091558323 34.6465848745651 35.28383080021974 35.65738875663798 36.14081670023805 36.624244643838125 36.953854605383626 37.3054385643655 37.8328145028383 38.18439846182018 38.49203442592932 38.75572239516572 39.15125434902033 39.546786302874935 39.876396264420436 40.249954220838674 40.601538179820544 40.88720014649331 41.43655008240249 41.54642006958433 41.9639260208753 42.46932796191174 42.75498992858451 43.128547885002746 43.414209851675515 43.831715802966485 44.24922175425746 44.5568577183666 45.0183116645303 45.50173960813038 45.853323567112255 46.380699505585056 46.908075444057864 47.36952939022157 47.83098333638527 48.18256729536715 48.77586522614906 49.369163156930966 49.76469511078557 50.55575901849478 50.90734297747665 51.23695293902216 51.6764328877495 52.11591283647684 52.46749679545871 53.01684673136788 53.302508698040654 53.74198864676799 53.91778062625893 54.48910455960447 54.92858450833181 55.23622047244095 55.71964841604102 56.181102362204726 56.466764328877495 56.972166269913934 57.30177623145944 57.78520417505951 58.26863211865959 58.57626808276872 59.03772202893243 59.652993957150706 59.806811939205275 60.26826588536898 60.575901849478115 61.03735579564182 61.49880974180553 61.96026368796924 62.42171763413294 62.905145577733016 63.256729536714886 63.762131477751325 64.1137154367332 64.641091375206 65.21241530855156 65.56399926753342 66.1133492034426 66.68467313678813 67.10217908807911 67.84929500091559 68.24482695477019 68.61838491118843 69.14576084966123 69.4973448086431 70.02472074711591 70.68394067020692 71.01355063175242 71.47500457791614 71.7606665445889 72.04632851126168 72.44186046511629 72.70554843435269 73.18897637795277 73.562534334371 73.80424830617103 74.30965024720747 74.50741622413477 74.79307819080753 75.16663614722579 75.40835011902581 75.75993407800769 76.13349203442593 76.3532320087896 76.72678996520784 77.0783739241897 77.45193188060796 77.69364585240798 77.9573338216444 78.30891778062626 78.57260574986266 79.18787767808094 79.45156564731734 79.69327961911739 79.89104559604468 80.08881157297199 80.24262955502655 80.41842153451748 80.52829152169933 80.59421351400843 80.66013550631753 80.70408350119027 80.74803149606299 80.81395348837209 80.85790148324483 80.9457974729903 81.03369346273576 81.1435634499176 81.29738143197216 81.40725141915401 81.58304339864495 81.73686138069951 81.82475737044497 81.91265336019043 81.93462735762681 81.93462735762681 81.86870536531771 81.62699139351767 81.40725141915401 81.1435634499176 80.70408350119027 80.26460355246292 79.91301959348105 79.4076176524446 78.83629371909907 78.4187877678081 77.78154184215344 77.16626991393517 76.72678996520784 76.11151803698957 75.65006409082585 74.99084416773485 74.30965024720747 73.8262223036074 73.07910639077092 72.31001648049809 71.7606665445889 70.99157663431606 70.15656473173412 69.3655008240249 68.86009888298847 68.02508698040651 66.92638710858817 66.68467313678813 65.82768723676982 65.08057132393334 64.46529939571508 63.80607947262406 63.10291155466032 62.59750961362388 61.9163156930965 61.45486174693279 60.77366782640542 60.114447903314414 59.54312396996887 59.03772202893243 58.15876213147775 57.65336019044131 57.21388024171397 56.686504303241165 56.07123237502289 55.36806445705915 54.5989745467863 53.93975462369529 53.192638710858816 52.59934078007691 51.9401208569859 51.50064090825856 50.62168101080388 49.808643105658305 49.12744918513093 48.40230726973082 47.61124336202161 47.039919428676065 46.02911554660319 45.50173960813038 45.06225965940304 44.38106573887566 43.80974180553012 43.326313861930046 42.68906793627541 42.33748397729354 41.83208203625709 41.50247207471159 41.19483611060245 40.71140816700238 40.381798205456874 39.744552279802235 39.15125434902033 38.93151437465666 38.53598242080205 38.25032045412928 37.98663248489288 37.45925654642007 37.15162058231093 36.778062625892694 36.38253067203809 36.118842702801686 35.74528474638345 35.37172678996521 35.13001281816517 34.80040285661967 34.53671488738326 34.29500091558323 34.009338948910454 33.789598974546784 33.284197033510345 32.998535066837576 32.734847097601175 32.185497161692 31.921809192455594 31.65812122321919 31.30653726423732 30.998901300128182 30.735213330891778 30.559421351400843 30.42757736678264 30.20783739241897 30.119941402673504 30.010071415491666 29.944149423182566 29.878227430873466 29.812305438564366 29.790331441127996 29.746383446255265 29.70243545138253 29.61453946163706 29.526643471891596 29.394799487273392 29.306903497527927 29.087163523164257 28.955319538546053 28.823475553927853 28.62570957700055 28.40596960263688 28.230177623145945 28.09833363852774 27.922541659036806 27.790697674418606 27.724775682109502 27.702801684673137 27.68082768723677 27.68082768723677 27.68082768723677 27.702801684673137 27.68082768723677 27.68082768723677 27.68082768723677 27.658853689800402 27.658853689800402 27.658853689800402 27.658853689800402 27.636879692364037 27.614905694927668 27.614905694927668 27.592931697491302 27.570957700054933 27.548983702618568 27.548983702618568 27.527009705182202 27.527009705182202 27.505035707745833 27.505035707745833 27.505035707745833 27.505035707745833 27.483061710309467 27.483061710309467 27.483061710309467 27.461087712873102 27.461087712873102 27.439113715436733 27.439113715436733 27.439113715436733 27.417139718000367 27.417139718000367 27.417139718000367 27.395165720564 27.395165720564 27.395165720564 27.395165720564 27.395165720564 27.395165720564 27.395165720564 27.395165720564 27.373191723127633 27.373191723127633 27.373191723127633 27.373191723127633 27.373191723127633 27.373191723127633 27.373191723127633 27.373191723127633 27.373191723127633 27.373191723127633 27.373191723127633 27.373191723127633 27.373191723127633 27.373191723127633 27.373191723127633 27.373191723127633 27.373191723127633 27.373191723127633 27.373191723127633 27.351217725691264 27.351217725691264 27.351217725691264 27.329243728254898 27.329243728254898 27.329243728254898 27.329243728254898 27.329243728254898 27.307269730818533 27.307269730818533 27.307269730818533 27.307269730818533 27.307269730818533 27.285295733382164 27.285295733382164 27.285295733382164 27.285295733382164 27.285295733382164 27.285295733382164 27.285295733382164 27.285295733382164 27.307269730818533 27.285295733382164 27.285295733382164 27.307269730818533 27.285295733382164 27.285295733382164 27.307269730818533 27.307269730818533 27.307269730818533 27.307269730818533 27.307269730818533 27.285295733382164 27.285295733382164 27.307269730818533 27.285295733382164 27.307269730818533 27.307269730818533 27.285295733382164 27.307269730818533 27.285295733382164 27.307269730818533 27.307269730818533 27.285295733382164 27.307269730818533 27.307269730818533 27.285295733382164 27.307269730818533 27.307269730818533 27.307269730818533 27.285295733382164 27.307269730818533 27.307269730818533 27.307269730818533 27.307269730818533 27.285295733382164 27.307269730818533 27.285295733382164 27.285295733382164 27.285295733382164 27.285295733382164 27.285295733382164 27.285295733382164 27.285295733382164 27.285295733382164 27.285295733382164 27.285295733382164 27.285295733382164 27.285295733382164 27.263321735945798 27.263321735945798 27.241347738509432 27.241347738509432 27.219373741073063 27.219373741073063 27.219373741073063 27.219373741073063 27.219373741073063 27.219373741073063 27.197399743636698 27.197399743636698 27.197399743636698 27.197399743636698 27.197399743636698 27.197399743636698 27.197399743636698 27.197399743636698 27.197399743636698 27.197399743636698 27.197399743636698 27.17542574620033 27.197399743636698 27.17542574620033 27.197399743636698 27.17542574620033 27.17542574620033 27.17542574620033 27.197399743636698 27.17542574620033 27.17542574620033 27.17542574620033 27.17542574620033 27.17542574620033 27.17542574620033 27.17542574620033 27.17542574620033 27.197399743636698 27.17542574620033 27.17542574620033 27.17542574620033 27.17542574620033 27.17542574620033 27.153451748763963 27.153451748763963 27.153451748763963 27.153451748763963 27.153451748763963 27.17542574620033 27.17542574620033 27.17542574620033 27.17542574620033 27.153451748763963 27.153451748763963 27.153451748763963 27.153451748763963 27.153451748763963 27.153451748763963 27.153451748763963 27.153451748763963 27.153451748763963 27.17542574620033 27.17542574620033 27.153451748763963 27.17542574620033 27.153451748763963 27.17542574620033 27.17542574620033 27.17542574620033 27.17542574620033 27.17542574620033 27.17542574620033 27.17542574620033 27.17542574620033 27.17542574620033 27.17542574620033 27.17542574620033 27.17542574620033 27.17542574620033 27.17542574620033 27.17542574620033 27.17542574620033 27.17542574620033 27.17542574620033 27.17542574620033 27.17542574620033 27.17542574620033 27.17542574620033 27.17542574620033 27.17542574620033 27.17542574620033 27.197399743636698 27.197399743636698 27.197399743636698 27.219373741073063 27.219373741073063 27.241347738509432 27.329243728254898 27.483061710309467 27.636879692364037 27.768723676982237 27.87859366416407 28.16425563083684 28.427943600073245 28.581761582127815 28.801501556491484 28.999267533418788 29.284929500091557 29.526643471891596 29.9880974180553 30.317707379600805 30.603369346273574 30.86705731550998 31.196667277055482 31.482329243728255 31.94378318989196 32.22944515656473 32.66892510529207 33.086431056583045 33.39406702069218 33.855520966855885 34.33894891045596 34.7125068668742 35.23988280534701 35.65738875663798 36.20673869254715 36.80003662332906 37.393334554110965 38.00860648232924 38.44808643105658 38.84361838491119 39.4369163156931 39.810474272111335 40.381798205456874 41.10694012085699 41.45852407983885 41.91997802600257 42.293535982420806 42.733015931148145 43.08459989013001 43.52407983885735 43.98553378502106 44.44698773118476 44.77659769273027 45.21607764145761 45.58963559787585 45.96319355429409 46.358725508148694 46.622413477385095 47.017945431239696 47.4134773850943 47.67716535433071 48.20454129280351 48.44625526460355 48.75389122871269 49.14942318256729 49.588903131294636 49.940487090276505 50.577733015931145 51.01721296465848 51.65445889031313 52.15986083134957 52.66526277238601 53.500274674967955 54.00567661600439 54.73081853140451 55.43398644936825 55.96136238784105 56.686504303241165 57.30177623145944 57.89507416224135 58.59824208020509 59.0596960263688 59.718915949459806 60.597875846914484 60.86156381615089 61.54275773667826 62.24592565464201 62.64145760849661 63.498443508514924 63.915949459805894 64.35542940853324 64.97070133675152 65.38820728804248 66.00347921626076 66.6407251419154 67.03625709577 67.62955502655191 68.09100897271563 68.72825489837027 69.3655008240249 69.8269547701886 70.50814869071598 71.0355246291888 71.60684856253434 72.26606848562534 72.72752243178905 73.3647683574437 74.41952023438931 74.74913019593481 75.21058414209853 75.51822010620765 75.91375206006227 76.39718000366233 76.8806079472624 77.34206189342612 77.69364585240798 78.17707379600806 78.6165537447354 78.92418970884452 79.38564365500824 79.80314960629921 80.13275956784472 80.59421351400843 80.87987548068119 81.31935542940855 81.86870536531771 82.13239333455411 82.41805530122689 82.79161325764511 83.05530122688153 83.42885918329976 83.71452114997254 84.11005310382714 84.3957150704999 84.63742904229994 84.68137703717268 84.79124702435452 84.83519501922726 84.85716901666362 84.85716901666362 84.83519501922726 84.76927302691814 84.68137703717268 84.46163706280902 84.21992309100898 84.02215711408166 83.78044314228164 83.58267716535434 83.27504120124519 82.96740523713606 82.65976927302691 82.35213330891779 82.15436733199049 81.93462735762681 81.62699139351767 81.36330342428127 80.79197949093573 80.33052554477202 80.00091558322652 79.56143563449919 79.23182567295368 78.7483977293536 78.2869437831899 77.93535982420804 77.42995788317158 76.9465299395715 76.59494598058964 76.00164804980773 75.47427211133493 75.05676616004395 74.46346822926205 74.04596227797106 73.47463834462553 72.92528840871636 72.39791247024354 71.60684856253434 71.1014466214979 70.66196667277055 69.8928767624977 69.05786485991577 68.26680095220655 67.43178904962461 66.81651712140633 65.9815052188244 65.60794726240616 64.5092473905878 63.652261490569494 63.036989562351216 62.15802966489654 61.34499175975096 60.77366782640542 59.938655923823475 59.3893059879143 58.64219007507782 57.91704815967771 57.41164621864127 56.664530305804796 55.74162241347739 55.23622047244095 54.73081853140451 54.18146859549533 53.346456692913385 52.51144479033144 51.6764328877495 50.79747299029482 49.852591100531036 49.19337117744003 48.29243728254899 47.65519135689434 47.10584142098517 46.02911554660319 45.50173960813038 44.7546236952939 44.02948177989379 43.831715802966485 43.106573887566384 42.75498992858451 42.35945797472991 41.98590001831167 41.63431605932979 41.12891411829335 40.513642190075075 40.184032228529574 39.744552279802235 39.370994323384 39.06335835927486 38.73374839772936 38.47006042849295 37.94268449002014 37.5032045412928 37.2395165720564 36.887932613074526 36.646218641274494 36.404504669474456 35.986998718183486 35.76725874381981 35.45962277971068 35.23988280534701 34.9761948361106 34.7125068668742 34.44881889763779 34.27302691814686 34.03131294634682 33.83354696941952 33.54788500274675 33.32814502838308 32.866691082219376 32.49313312580114 32.20747115912837 31.89983519501923 31.614173228346456 31.262589269364586 30.932979307819082 30.713239333455412 30.493499359091743 30.29573338216444 30.185863394982604 30.054019410364404 29.944149423182566 29.878227430873466 29.790331441127996 29.724409448818896 29.61453946163706 29.460721479582496 29.306903497527927 29.153085515473357 28.999267533418788 28.84544955136422 28.669657571873284 28.47189159494598 28.38399560520051 28.208203625709576 28.09833363852774 28.05438564365501 28.03241164621864 28.010437648782275 28.010437648782275 28.010437648782275 28.010437648782275 27.988463651345906 27.988463651345906 27.96648965390954 27.944515656473172 27.944515656473172 27.922541659036806 27.922541659036806 27.87859366416407 27.856619666727706 27.81267167185497 27.768723676982237 27.724775682109502 27.702801684673137 27.702801684673137 27.658853689800402 27.636879692364037 27.614905694927668 27.592931697491302 27.592931697491302 27.570957700054933 27.548983702618568 27.527009705182202 27.505035707745833 27.483061710309467 27.461087712873102 27.439113715436733 27.417139718000367 27.395165720564 27.395165720564 27.373191723127633 27.373191723127633 27.373191723127633 27.373191723127633 27.373191723127633 27.351217725691264 27.351217725691264 27.329243728254898 27.329243728254898 27.329243728254898 27.329243728254898 27.329243728254898 27.329243728254898 27.329243728254898 27.329243728254898 27.307269730818533 27.307269730818533 27.329243728254898 27.307269730818533 27.307269730818533 27.307269730818533 27.307269730818533 27.307269730818533 27.307269730818533 27.307269730818533 27.307269730818533 27.285295733382164 27.263321735945798 27.241347738509432 27.219373741073063 27.219373741073063 27.197399743636698 27.197399743636698 27.17542574620033 27.17542574620033 27.153451748763963 27.153451748763963 27.153451748763963 27.153451748763963 27.153451748763963 27.153451748763963 27.153451748763963 27.153451748763963 27.131477751327594 27.131477751327594 27.131477751327594 27.131477751327594 27.131477751327594 27.10950375389123 27.10950375389123 27.10950375389123 27.10950375389123 27.10950375389123 27.10950375389123 27.10950375389123 27.10950375389123 27.10950375389123 27.10950375389123 27.10950375389123 27.10950375389123 27.10950375389123 27.10950375389123 27.10950375389123 27.10950375389123 27.10950375389123 27.10950375389123 27.087529756454863 27.087529756454863 27.087529756454863 27.087529756454863 27.065555759018494 27.065555759018494 27.065555759018494 27.065555759018494 27.065555759018494 27.04358176158213 27.04358176158213 27.04358176158213 27.04358176158213 27.02160776414576 27.02160776414576 27.02160776414576 27.02160776414576 27.02160776414576 27.02160776414576 27.02160776414576 27.02160776414576 27.02160776414576 27.02160776414576 27.02160776414576 27.02160776414576 27.02160776414576 27.02160776414576 27.02160776414576 27.02160776414576 27.02160776414576 27.02160776414576 27.02160776414576 27.02160776414576 27.02160776414576 27.02160776414576 27.02160776414576 27.02160776414576 27.02160776414576 27.02160776414576 27.02160776414576 27.02160776414576 27.02160776414576 27.02160776414576 27.02160776414576 27.02160776414576 27.04358176158213 27.02160776414576 27.02160776414576 27.02160776414576 27.02160776414576 27.02160776414576 27.02160776414576 27.02160776414576 27.04358176158213 27.02160776414576 27.02160776414576 27.02160776414576 27.02160776414576 27.02160776414576 27.02160776414576 27.02160776414576 27.02160776414576 27.02160776414576 27.02160776414576 27.02160776414576 27.02160776414576 27.02160776414576 27.02160776414576 27.02160776414576 27.02160776414576 27.02160776414576 27.02160776414576 27.02160776414576 26.999633766709394 27.02160776414576 26.999633766709394 26.999633766709394 26.999633766709394 26.999633766709394 26.999633766709394 26.999633766709394 26.999633766709394 26.999633766709394 26.999633766709394 26.999633766709394 26.999633766709394 26.999633766709394 26.999633766709394 26.999633766709394 26.999633766709394 26.999633766709394 26.999633766709394 26.999633766709394 26.999633766709394 26.999633766709394 26.999633766709394 26.999633766709394 26.999633766709394 26.999633766709394 26.999633766709394 26.999633766709394 26.999633766709394 26.999633766709394 26.999633766709394 26.999633766709394 26.999633766709394 26.999633766709394 26.999633766709394 26.999633766709394 26.999633766709394 26.999633766709394 26.999633766709394 26.999633766709394 26.999633766709394 26.999633766709394 26.999633766709394 26.999633766709394 26.999633766709394 26.999633766709394 26.999633766709394 27.02160776414576 26.999633766709394 27.02160776414576 27.02160776414576 27.02160776414576 27.02160776414576 27.04358176158213 27.065555759018494 27.065555759018494 27.131477751327594 27.219373741073063 27.285295733382164 27.417139718000367 27.614905694927668 27.790697674418606 28.09833363852774 28.449917597509614 28.69163156930965 29.087163523164257 29.438747482146127 29.812305438564366 30.471525361655374 30.845083318073613 31.15271928218275 31.636147225782825 31.987731184764694 32.4491851309284 32.97656106940121 33.459989013001284 33.98736495147409 34.38289690532869 34.9102728438015 35.30580479765611 35.74528474638345 36.602270646401756 37.063724592565464 37.78886650796557 38.49203442592932 38.97546236952939 39.964292254165905 40.42574620032961 40.90917414392968 41.59036806445706 42.0957700054935 42.667093938839045 43.282365867057315 43.87566379783922 44.44698773118476 44.6887017029848 45.19410364402124 45.67753158762132 46.00714154916682 46.622413477385095 47.061893426112434 47.391503387657934 47.78703534151254 48.02874931331258 48.57809924922175 49.08350119025819 49.479033144112805 50.006409082585606 50.511811023622045 50.86339498260392 51.34682292620399 51.6764328877495 52.1378868339132 52.64328877494964 53.060794726240616 53.566196667277055 54.09357260574986 54.48910455960447 55.21424647500458 55.58780443142282 55.983336385277426 56.598608313495696 57.257828236586704 57.65336019044131 58.51034609045962 58.97180003662333 59.56509796740524 59.982603918696206 60.575901849478115 61.16919978026002 61.60867972898736 62.24592565464201 62.839223585423916 63.366599523896724 63.80607947262406 64.20161142647866 64.75096136238784 65.34425929316976 65.82768723676982 66.377037172679 67.01428309833364 67.40981505218824 68.00311298297015 68.66233290606115 69.05786485991577 69.67313678813403 70.31038271378868 70.9036806445706 71.54092657022522 71.93645852407984 72.52975645486175 72.94726240615272 73.4966123420619 74.00201428309833 74.37557223951657 74.85900018311665 75.18861014466215 75.67203808826221 76.11151803698957 76.5509979857169 76.8146859549533 77.23219190624428 77.51785387291704 77.91338582677164 78.352865775499 78.7483977293536 79.16590368064458 79.31972166269914 79.73722761399011 80.11078557040835 80.50631752426295 80.90184947811755 81.16553744735396 81.56106940120857 81.89067936275407 82.15436733199049 82.48397729353599 82.76963926020875 82.98937923457243 83.29701519868156 83.49478117560886 83.75846914484526 84.15400109869987 84.35176707562718 84.54953305255447 84.81322102179088 85.01098699871818 85.25270097051822 85.4065189525728 85.6702069218092 85.8679728987365 85.97784288591834 86.15363486540927 86.28547885002747 86.35140084233657 86.54916681926387 86.6590368064457 86.81285478850029 86.94469877311849 87.07654275773669 87.25233473722761 87.38417872184581 87.47207471159129 87.60391869620949 87.71378868339133 87.77971067570043 87.82365867057317 87.86760666544589 87.91155466031863 87.95550265519137 87.97747665262773 87.99945065006409 88.02142464750045 88.02142464750045 88.04339864493683 88.02142464750045 88.04339864493683 88.02142464750045 88.04339864493683 88.04339864493683 88.02142464750045 88.02142464750045 88.02142464750045 88.02142464750045 87.95550265519137 87.86760666544589 87.66984068851858 87.40615271928218 87.16443874748215 86.81285478850029 86.43929683208204 86.15363486540927 85.6042849295001 85.31862296282733 85.03296099615454 84.57150704999086 84.02215711408166 83.53872917048159 82.98937923457243 82.59384728071782 82.04449734480863 81.56106940120857 81.0776414576085 80.52829152169933 80.15473356528108 79.58340963193555 78.99011170115364 78.52865775498992 77.89141182933528 77.25416590368064 76.7487639626442 76.04559604468047 75.54019410364401 74.83702618568029 73.8262223036074 73.27687236769822 72.74949642922542 71.91448452664348 71.38710858817066 70.63999267533418 69.7610327778795 69.01391686504303 68.24482695477019 67.71745101629739 67.01428309833364 66.42098516755172 65.78373924189708 65.10254532136972 64.61911737776964 63.850027467496794 63.10291155466032 62.53158762131478 61.41091375206006 60.94945980589635 60.312213880241714 59.521149972532506 58.9937740340597 58.26863211865959 57.54349020325947 56.9282182750412 56.312946346822926 55.87346639809559 55.47793444424098 54.92858450833181 54.335286577549894 53.785936641640724 53.368430690349754 52.75315876213148 52.18183482878594 51.72038088262223 51.17103094671306 50.62168101080388 50.204175059512906 49.588903131294636 49.2153451748764 48.62204724409449 47.80900933894891 47.43545138253067 47.017945431239696 46.44662149789416 46.02911554660319 45.45779161325764 44.9523896722212 44.2931697491302 43.787767808093754 43.436183849111885 43.08459989013001 42.62314594396631 42.0957700054935 41.65629005676616 41.34865409265702 40.79930415674785 40.315876213147774 39.986266251602274 39.5028383080022 39.06335835927486 38.75572239516572 38.33821644387475 38.07452847463834 37.72294451565647 37.415308551547334 37.129646584874564 36.778062625892694 36.58029664896539 36.338582677165356 35.986998718183486 35.70133675151071 35.37172678996521 34.8443508514924 34.60263687969236 34.27302691814686 34.05328694378319 33.701702984801315 33.306171030946714 33.218275041201245 32.97656106940121 32.734847097601175 32.581029115546606 32.33931514374657 32.20747115912837 31.96575718732833 31.74601721296466 31.548251236037355 31.30653726423732 30.998901300128182 30.735213330891778 30.339681377037174 30.185863394982604 29.834279436000735 29.460721479582496 29.065189525727888 28.75755356161875 28.449917597509614 28.25215162058231 27.988463651345906 27.922541659036806 27.87859366416407 27.81267167185497 27.790697674418606 27.74674967954587 27.702801684673137 27.68082768723677 27.636879692364037 27.614905694927668 27.548983702618568 27.483061710309467 27.439113715436733 27.373191723127633 27.285295733382164 27.241347738509432 27.17542574620033 27.131477751327594 27.04358176158213 26.97765976927303 26.88976377952756 26.80186778978209 26.73594579747299 26.67002380516389 26.626075810291155 26.560153817982055 26.51620582310932 26.45028383080022 26.406335835927486 26.340413843618386 26.274491851309286 26.252517853872916 26.186595861563816 26.164621864127447 26.164621864127447 26.120673869254716 26.120673869254716 26.120673869254716 26.120673869254716 26.120673869254716 26.120673869254716 26.098699871818347 26.098699871818347 26.07672587438198 26.07672587438198 26.07672587438198 26.07672587438198 26.054751876945616 26.032777879509247 26.032777879509247 26.01080388207288 25.988829884636512 25.988829884636512 25.988829884636512 25.966855887200147 25.944881889763778 25.922907892327412 25.878959897454678 25.856985900018312 25.835011902581943 25.791063907709212 25.747115912836477 25.72514191540011 25.703167917963743 25.703167917963743 25.681193920527377 25.703167917963743 25.703167917963743 25.681193920527377 25.681193920527377 25.681193920527377 25.65921992309101 25.65921992309101 25.65921992309101 25.65921992309101 25.65921992309101 25.65921992309101 25.65921992309101 25.637245925654643 25.637245925654643 25.65921992309101 25.637245925654643 25.637245925654643 25.637245925654643 25.637245925654643 25.637245925654643 25.637245925654643 25.615271928218274 25.615271928218274 25.615271928218274 25.593297930781908 25.571323933345543 25.571323933345543 25.549349935909174 25.549349935909174 25.549349935909174 25.549349935909174 25.549349935909174 25.549349935909174 25.549349935909174 25.549349935909174 25.527375938472808 25.549349935909174 25.549349935909174 25.527375938472808 25.549349935909174 25.549349935909174 25.527375938472808 25.527375938472808 25.527375938472808 25.549349935909174 25.549349935909174 25.527375938472808 25.549349935909174 25.549349935909174 25.527375938472808 25.549349935909174 25.527375938472808 25.527375938472808 25.527375938472808 25.527375938472808 25.527375938472808 25.527375938472808 25.527375938472808 25.527375938472808 25.527375938472808 25.527375938472808 25.527375938472808 25.527375938472808 25.527375938472808 25.527375938472808 25.50540194103644 25.50540194103644 25.527375938472808 25.50540194103644 25.50540194103644 25.527375938472808 25.50540194103644 25.527375938472808 25.527375938472808 25.527375938472808 25.527375938472808 25.527375938472808 25.50540194103644 25.50540194103644 25.527375938472808 25.527375938472808 25.527375938472808 25.527375938472808 25.527375938472808 25.50540194103644 25.50540194103644 25.50540194103644 25.527375938472808 25.527375938472808 25.50540194103644 25.50540194103644 25.50540194103644 25.50540194103644 25.50540194103644 25.50540194103644 25.50540194103644 25.50540194103644 25.50540194103644 25.50540194103644 25.50540194103644 25.50540194103644 25.50540194103644 25.50540194103644 25.50540194103644 25.50540194103644 25.483427943600073 25.483427943600073 25.483427943600073 25.483427943600073 25.483427943600073 25.483427943600073 25.483427943600073 25.483427943600073 25.483427943600073 25.483427943600073 25.483427943600073 25.483427943600073 25.483427943600073 25.483427943600073 25.483427943600073 25.483427943600073 25.483427943600073 25.483427943600073 25.483427943600073 25.483427943600073 25.483427943600073 25.483427943600073 25.483427943600073 25.483427943600073 25.483427943600073 25.483427943600073 25.483427943600073 25.483427943600073 25.483427943600073 25.483427943600073 25.483427943600073 25.483427943600073 25.483427943600073 25.483427943600073 25.483427943600073 25.483427943600073 25.483427943600073 25.483427943600073 25.483427943600073 25.483427943600073 25.483427943600073 25.461453946163708 25.483427943600073 25.483427943600073 25.461453946163708 25.461453946163708 25.461453946163708 25.461453946163708 25.483427943600073 25.483427943600073 25.483427943600073 25.483427943600073 25.461453946163708 25.461453946163708 25.461453946163708 25.461453946163708 25.461453946163708 25.483427943600073 25.461453946163708 25.483427943600073 25.461453946163708 25.461453946163708 25.461453946163708 25.461453946163708 25.461453946163708 25.483427943600073 25.461453946163708 25.483427943600073 25.461453946163708 25.461453946163708 25.461453946163708 25.461453946163708 25.461453946163708 25.461453946163708 25.461453946163708 25.461453946163708 25.43947994872734 25.43947994872734 25.43947994872734 25.461453946163708 25.43947994872734 25.43947994872734 25.43947994872734 25.461453946163708 25.43947994872734 25.43947994872734 25.43947994872734 25.43947994872734 25.43947994872734 25.43947994872734 25.461453946163708 25.461453946163708 25.461453946163708 25.461453946163708 25.461453946163708 25.461453946163708 25.461453946163708 25.461453946163708 25.461453946163708 25.43947994872734 25.461453946163708 25.43947994872734 25.43947994872734 25.43947994872734 25.43947994872734 25.43947994872734 25.461453946163708 25.43947994872734 25.43947994872734 25.461453946163708 25.43947994872734 25.43947994872734 25.43947994872734 25.43947994872734 25.43947994872734 25.461453946163708 25.461453946163708 25.43947994872734 25.43947994872734 25.43947994872734 25.43947994872734 25.43947994872734 25.43947994872734 25.43947994872734 25.43947994872734 25.43947994872734 25.43947994872734 25.43947994872734 25.43947994872734 25.43947994872734 25.43947994872734 25.43947994872734 25.43947994872734 25.43947994872734 25.43947994872734 25.43947994872734 25.43947994872734 25.43947994872734 25.43947994872734 25.43947994872734 25.43947994872734 25.43947994872734 25.43947994872734 25.43947994872734 25.43947994872734 25.43947994872734 25.43947994872734 25.43947994872734 25.43947994872734 25.43947994872734 25.43947994872734 25.43947994872734 25.43947994872734 25.43947994872734 25.43947994872734 25.43947994872734 25.43947994872734 25.43947994872734 25.43947994872734 25.43947994872734 25.43947994872734 25.43947994872734 25.43947994872734 25.43947994872734 25.43947994872734 25.43947994872734 