25.0 24.978026002563634 24.978026002563634 24.978026002563634 24.978026002563634 24.978026002563634 24.978026002563634 24.978026002563634 24.978026002563634 24.978026002563634 24.978026002563634 24.978026002563634 24.978026002563634 24.978026002563634 24.978026002563634 24.978026002563634 24.978026002563634 24.978026002563634 24.978026002563634 24.978026002563634 24.978026002563634 24.978026002563634 24.978026002563634 24.978026002563634 24.978026002563634 24.978026002563634 24.978026002563634 24.978026002563634 24.978026002563634 24.978026002563634 24.978026002563634 24.978026002563634 24.978026002563634 24.978026002563634 24.978026002563634 24.978026002563634 24.978026002563634 24.978026002563634 24.978026002563634 24.978026002563634 24.978026002563634 24.978026002563634 24.978026002563634 24.978026002563634 24.978026002563634 24.978026002563634 24.978026002563634 24.978026002563634 24.978026002563634 24.978026002563634 24.978026002563634 25.0 24.978026002563634 24.978026002563634 24.978026002563634 24.978026002563634 24.978026002563634 24.978026002563634 25.0 25.0 24.978026002563634 24.978026002563634 25.0 24.978026002563634 24.978026002563634 24.978026002563634 24.978026002563634 24.978026002563634 25.0 24.978026002563634 24.978026002563634 25.0 24.978026002563634 24.978026002563634 24.978026002563634 25.0 25.0 24.978026002563634 25.0 24.978026002563634 24.978026002563634 24.978026002563634 24.978026002563634 24.978026002563634 24.978026002563634 24.978026002563634 24.978026002563634 24.978026002563634 24.978026002563634 24.978026002563634 24.978026002563634 24.978026002563634 25.0 24.978026002563634 25.0 24.978026002563634 24.978026002563634 24.978026002563634 25.0 24.978026002563634 25.0 24.978026002563634 24.978026002563634 24.978026002563634 25.0 24.978026002563634 24.978026002563634 25.0 24.978026002563634 25.0 24.978026002563634 25.0 24.978026002563634 24.978026002563634 25.0 25.0 24.978026002563634 24.978026002563634 24.978026002563634 25.0 24.978026002563634 25.0 24.978026002563634 25.0 25.0 25.0 24.978026002563634 25.0 25.0 25.0 25.0 24.978026002563634 24.978026002563634 24.978026002563634 25.0 25.0 25.0 24.978026002563634 25.0 24.978026002563634 25.0 25.0 25.0 25.0 25.0 25.0 25.0 25.0 25.0 25.0 25.0 25.0 24.978026002563634 24.978026002563634 25.0 25.0 25.0 25.0 25.0 25.0 25.0 25.0 25.0 25.0 25.0 25.0 25.0 24.978026002563634 25.0 25.0 25.0 25.0 25.0 25.0 24.978026002563634 25.0 25.0 25.0 25.0 25.0 25.0 25.0 25.0 25.0 25.0 25.0 25.0 24.978026002563634 25.0 25.0 25.0 25.0 25.0 25.0 25.0 25.0 25.0 25.0 25.0 25.0 25.0 25.0 25.0 24.978026002563634 25.0 25.0 25.0 25.0 25.0 25.0 25.0 25.0 25.0 25.0 25.0 25.0 25.0 25.0 25.0 25.0 25.0 25.0 24.978026002563634 25.0 25.0 25.0 25.0 25.0 24.978026002563634 24.978026002563634 24.978026002563634 25.0 25.0 24.978026002563634 25.0 24.978026002563634 25.0 25.0 25.0 24.978026002563634 25.0 25.0 25.0 24.978026002563634 25.0 25.0 25.0 25.0 25.0 25.0 25.0 25.0 24.978026002563634 24.978026002563634 24.978026002563634 25.0 25.0 24.978026002563634 24.978026002563634 25.0 25.0 25.0 25.0 25.0 25.0 25.0 25.0 25.0 24.978026002563634 25.0 24.978026002563634 24.978026002563634 25.0 25.0 25.0 25.0 24.978026002563634 25.0 25.0 25.0 25.0 25.0 25.0 24.978026002563634 24.978026002563634 24.978026002563634 25.0 25.0 25.0 25.0 25.0 24.978026002563634 24.978026002563634 25.0 25.0 25.0 24.978026002563634 24.978026002563634 25.0 25.0 25.0 25.0 25.0 25.0 25.0 25.0 25.0 25.0 25.0 25.0 25.0 25.0 25.0 25.0 25.0 25.0 25.0 25.0 25.0 25.0 25.0 25.0 25.0 25.0 25.0 25.0 25.0 25.0 25.0 25.0 25.0 25.0 24.978026002563634 25.0 25.0 25.0 25.0 25.0 25.0 25.0 25.0 25.0 25.0 25.0 25.0 25.0 25.0 25.0 25.0 25.0 25.0 25.0 25.0 25.0 25.0 25.0 25.0 24.978026002563634 25.0 25.0 25.0 25.0 25.0 25.0 25.0 25.0 25.0 25.0 25.0 25.0 25.0 25.0 25.0 25.0 25.0 25.0 25.0 25.0 25.0 25.0 25.0 25.0 25.0 25.0 25.0 25.0 25.0 25.0 25.0 25.0 25.0 25.0 25.0 25.0 25.0 25.0 25.0 25.0 25.0 25.0 25.0 25.0 25.0 25.0 25.0 25.0 25.0 25.0 25.0 25.0 25.0 25.0 25.0 25.0 25.0 25.0 25.0 25.0 25.0 25.0 25.0 25.0 25.0 25.0 25.0 25.0 25.0 25.0 25.0 25.0 25.0 25.0 25.0 25.0 25.0 25.0 25.0 25.0 25.0 25.0 24.978026002563634 25.0 24.978026002563634 24.978026002563634 25.0 25.0 24.978026002563634 24.978026002563634 25.0 24.978026002563634 25.0 25.0 25.0 25.0 25.0 24.978026002563634 25.0 25.0 25.0 25.0 24.978026002563634 25.0 25.0 25.0 25.0 25.0 25.0 25.0 25.0 25.0 25.0 25.0 25.0 25.0 25.0 25.0 25.0 25.0 25.0 25.0 25.0 25.0 25.0 25.0 25.0 25.0 25.0 25.0 25.0 25.0 25.0 25.0 25.0 25.0 25.0 25.0 25.0 25.0 25.0 25.0 25.0 25.0 25.0 25.0 25.0 25.0 25.0 25.0 25.0 25.0 25.0 25.0 25.0 25.0 25.0 25.0 25.0 25.0 25.0 25.0 25.0 25.0 24.978026002563634 25.0 25.0 25.0 25.0 25.0 25.0 25.0 25.0 25.0 25.0 25.0 25.0 25.0 25.0 25.0 25.0 25.0 25.0 25.0 25.0 25.0 25.0 25.0 25.0 25.0 25.0 25.0 25.0 25.0 25.0 25.0 25.0 25.0 25.0 25.0 25.0 25.0 25.0 25.0 25.0 25.0 25.0 25.0 25.0 25.0 25.0 25.0 25.0 25.0 25.0 25.0 25.0 25.0 25.0 25.0 25.0 25.0 25.0 25.0 25.0 25.0 25.0 25.0 25.0 25.0 25.0 25.0 25.0 25.0 25.0 25.0 25.0 25.0 25.0 25.0 25.0 25.0 25.0 25.0 25.0 25.0 25.0 25.0 25.0 25.0 25.0 25.0 25.0 25.0 25.0 25.0 25.0 25.0 25.0 25.0 25.0 25.0 25.0 25.0 25.0 25.0 25.0 25.0 25.0 24.978026002563634 25.0 25.0 25.0 25.0 25.0 25.0 25.0 25.0 25.0 25.0 25.0 24.978026002563634 25.0 25.0 25.0 25.0 25.0 25.0 25.0 25.0 25.0 25.0 25.0 25.0 25.0 25.0 25.021973997436366 25.021973997436366 25.021973997436366 25.043947994872735 25.08789598974547 25.1318439846182 25.15381798205457 25.197765976927304 25.241713971800035 25.241713971800035 25.28566196667277 25.329609961545504 25.417505951290973 25.483427943600073 25.593297930781908 25.747115912836477 25.900933894891047 26.098699871818347 26.318439846182017 26.51620582310932 26.845815784654825 27.197399743636698 27.548983702618568 27.96648965390954 28.362021607764145 28.801501556491484 29.262955502655192 29.724409448818896 30.14191540010987 30.51547335652811 30.932979307819082 31.394433253982786 31.81193920527376 32.2514191540011 32.712873100164806 33.284197033510345 33.943416956601354 34.58066288225599 35.28383080021974 36.052920710492586 36.80003662332906 37.72294451565647 38.95348837209302 39.8324482695477 40.645486174693275 42.1616919978026 42.996703900384546 44.007507782457424 44.71067570042116 45.65555759018495 46.556491485075995 47.50137337483977 48.29243728254899 49.171397180003666 49.479033144112805 50.29207104925838 50.84142098516755 51.85222486724043 52.51144479033144 52.994872733931516 53.61014466214979 53.91778062625893 54.29133858267717 54.92858450833181 55.34609045962278 55.69767441860465 56.20307635964109 56.57663431605933 57.191906244277604 57.71928218275041 58.29060611609595 59.03772202893243 59.499175975096136 60.202343893059876 60.92748580845999 61.45486174693279 62.35579564182384 62.993041567478485 63.652261490569494 64.39937740340596 64.97070133675152 65.82768723676982 66.92638710858817 67.54165903680644 68.42061893426111 68.94799487273393 69.6291887932613 70.50814869071598 71.45303058047976 72.31001648049809 73.21095037538913 73.73832631386193 74.52939022157113 75.10071415491669 75.75993407800769 76.39718000366233 76.85863394982604 77.40798388573522 77.93535982420804 78.46273576268084 78.8802417139718 79.45156564731734 79.58340963193555 80.11078557040835 80.44039553195387 80.96777147042667 81.49514740889947 82.02252334737227 82.48397729353599 82.76963926020875 83.01135323200879 83.42885918329976 83.64859915766343 83.82439113715438 84.0001831166453 84.0661051089544 84.11005310382714 84.15400109869987 84.17597509613624 84.17597509613624 84.17597509613624 84.15400109869987 84.1320271012635 84.04413111151804 83.82439113715438 83.53872917048159 83.31898919611793 82.96740523713606 82.65976927302691 82.17634132942685 81.45119941402675 81.18751144479035 80.79197949093573 80.41842153451748 79.97894158579015 79.31972166269914 78.90221571140816 78.30891778062626 77.91338582677164 77.276139901117 76.7487639626442 76.30928401391687 75.75993407800769 75.18861014466215 74.74913019593481 74.11188427028017 73.65043032411646 72.70554843435269 71.78264054202528 71.67277055484342 71.05749862662516 70.33235671122506 69.80498077275224 68.88207288042483 68.44259293169749 67.84929500091559 67.23402307269731 66.81651712140633 66.20124519318806 65.5859732649698 65.14649331624244 64.53122138802416 64.09174143929684 63.498443508514924 62.86119758286028 62.24592565464201 61.69657571873283 61.05932979307819 60.53195385460538 59.784837941768906 59.23548800585973 58.20271012635048 57.41164621864127 56.818348287859365 55.93938839040469 55.36806445705915 54.75279252884087 53.87383263138619 52.3356528108405 51.91814685954954 50.92931697491302 50.665629005676614 49.89653909540377 48.92968320820363 48.60007324665812 48.02874931331258 47.58926936458524 46.952023438930595 46.33675151071232 45.919245559421356 45.17212964658488 44.66672770554844 44.271195751693824 43.787767808093754 43.348287859366415 42.75498992858451 42.1616919978026 41.52444607214796 40.90917414392968 40.667460172129644 39.920344259293174 39.34902032594763 38.75572239516572 38.38216443874748 37.81084050540194 37.3054385643655 36.975828602819995 36.602270646401756 36.09686870536532 35.59146676432888 35.23988280534701 34.69053286943783 34.25105292071049 33.92144295916499 33.525911005310384 33.218275041201245 32.84471708478301 32.49313312580114 32.2514191540011 31.855887200146494 31.57022523347372 31.43838124885552 31.108771287310017 30.932979307819082 30.779161325764512 30.44955136421901 30.20783739241897 29.966123420618935 29.746383446255265 29.658487456509796 29.41677348470976 29.19703351034609 28.889397546236953 28.53781358725508 28.31807361289141 27.96648965390954 27.702801684673137 27.351217725691264 27.197399743636698 27.065555759018494 27.02160776414576 26.999633766709394 26.999633766709394 26.999633766709394 26.999633766709394 26.999633766709394 26.95568577183666 26.933711774400294 26.911737776963925 26.88976377952756 26.88976377952756 26.845815784654825 26.82384178721846 26.779893792345725 26.73594579747299 26.713971800036624 26.67002380516389 26.60410181285479 26.560153817982055 26.51620582310932 26.472257828236586 26.42830983336385 26.38436183849112 26.340413843618386 26.318439846182017 26.29646584874565 26.274491851309286 26.274491851309286 26.274491851309286 26.274491851309286 26.274491851309286 26.252517853872916 26.252517853872916 26.252517853872916 26.274491851309286 26.274491851309286 26.274491851309286 26.274491851309286 26.252517853872916 26.252517853872916 26.252517853872916 26.252517853872916 26.274491851309286 26.274491851309286 26.252517853872916 26.252517853872916 26.274491851309286 26.252517853872916 26.252517853872916 26.274491851309286 26.252517853872916 26.252517853872916 26.252517853872916 26.274491851309286 26.252517853872916 26.252517853872916 26.252517853872916 26.252517853872916 26.252517853872916 26.252517853872916 26.252517853872916 26.252517853872916 26.252517853872916 26.252517853872916 26.23054385643655 26.252517853872916 26.23054385643655 26.252517853872916 26.23054385643655 26.23054385643655 26.23054385643655 26.23054385643655 26.23054385643655 26.23054385643655 26.23054385643655 26.23054385643655 26.23054385643655 26.252517853872916 26.23054385643655 26.252517853872916 26.23054385643655 26.23054385643655 26.252517853872916 26.23054385643655 26.252517853872916 26.252517853872916 26.252517853872916 26.252517853872916 26.252517853872916 26.252517853872916 26.252517853872916 26.252517853872916 26.252517853872916 26.252517853872916 26.252517853872916 26.252517853872916 26.252517853872916 26.23054385643655 26.252517853872916 26.252517853872916 26.252517853872916 26.252517853872916 26.252517853872916 26.252517853872916 26.252517853872916 26.23054385643655 26.23054385643655 26.252517853872916 26.252517853872916 26.23054385643655 26.252517853872916 26.252517853872916 26.252517853872916 26.252517853872916 26.23054385643655 26.252517853872916 26.252517853872916 26.252517853872916 26.23054385643655 26.252517853872916 26.252517853872916 26.252517853872916 26.23054385643655 26.252517853872916 26.252517853872916 26.252517853872916 26.252517853872916 26.252517853872916 26.252517853872916 26.252517853872916 26.252517853872916 26.252517853872916 26.252517853872916 26.252517853872916 26.252517853872916 26.252517853872916 26.252517853872916 26.252517853872916 26.23054385643655 26.252517853872916 26.252517853872916 26.252517853872916 26.252517853872916 26.252517853872916 26.252517853872916 26.252517853872916 26.252517853872916 26.252517853872916 26.23054385643655 26.252517853872916 26.252517853872916 26.252517853872916 26.252517853872916 26.252517853872916 26.252517853872916 26.23054385643655 26.252517853872916 26.252517853872916 26.252517853872916 26.252517853872916 26.252517853872916 26.252517853872916 26.252517853872916 26.252517853872916 26.252517853872916 26.252517853872916 26.252517853872916 26.252517853872916 26.252517853872916 26.252517853872916 26.252517853872916 26.252517853872916 26.252517853872916 26.252517853872916 26.23054385643655 26.252517853872916 26.252517853872916 26.23054385643655 26.23054385643655 26.23054385643655 26.252517853872916 26.252517853872916 26.252517853872916 26.252517853872916 26.252517853872916 26.252517853872916 26.252517853872916 26.252517853872916 26.252517853872916 26.23054385643655 26.252517853872916 26.252517853872916 26.252517853872916 26.252517853872916 26.252517853872916 26.252517853872916 26.252517853872916 26.252517853872916 26.252517853872916 26.252517853872916 26.252517853872916 26.252517853872916 26.252517853872916 26.23054385643655 26.252517853872916 26.252517853872916 26.252517853872916 26.23054385643655 26.252517853872916 26.252517853872916 26.252517853872916 26.252517853872916 26.252517853872916 26.252517853872916 26.252517853872916 26.23054385643655 26.252517853872916 26.252517853872916 26.252517853872916 26.23054385643655 26.252517853872916 26.252517853872916 26.23054385643655 26.23054385643655 26.252517853872916 26.252517853872916 26.23054385643655 26.252517853872916 26.252517853872916 26.252517853872916 26.252517853872916 26.252517853872916 26.252517853872916 26.252517853872916 26.252517853872916 26.252517853872916 26.252517853872916 26.252517853872916 26.274491851309286 26.29646584874565 26.36238784105475 26.406335835927486 26.51620582310932 26.626075810291155 26.82384178721846 27.087529756454863 27.329243728254898 27.768723676982237 28.25215162058231 28.64768357443692 29.460721479582496 29.9221754257462 30.42757736678264 31.130745284746382 31.65812122321919 32.47115912836477 33.657754989928584 34.31697491301959 35.26185680278337 35.921076725874386 36.602270646401756 37.8328145028383 38.73374839772936 39.41494231825673 40.052188243911374 40.953122138802414 41.78813404138436 42.44735396447537 43.216443874748215 43.98553378502106 44.51290972349386 45.28199963376671 45.78740157480315 46.44662149789416 47.127815418421534 47.83098333638527 48.31441127998535 48.92968320820363 49.4131111518037 50.29207104925838 50.84142098516755 51.25892693645852 52.04999084416774 52.59934078007691 53.08276872367698 53.87383263138619 54.37923457242263 55.01648049807727 55.45596044680461 56.15912836476836 56.8622962827321 57.54349020325947 58.26863211865959 59.14759201611427 59.82878593664164 60.729719831532684 61.36696575718733 62.59750961362388 63.564365500824024 64.06976744186046 65.12451931880608 65.717817249588 66.42098516755172 67.65152902398827 68.26680095220655 69.12378685222487 70.02472074711591 70.59604468046146 71.4969785753525 72.35396447537082 73.03515839589818 73.73832631386193 74.52939022157113 75.21058414209853 75.67203808826221 76.3532320087896 76.77073796008057 77.36403589086248 77.80351583958982 78.39681377037172 78.81431972166271 79.5394616370628 80.08881157297199 80.66013550631753 80.85790148324483 81.16553744735396 81.75883537813587 82.35213330891779 82.70371726789965 83.18714521149973 83.62662516022706 83.9342611243362 84.35176707562718 84.63742904229994 85.03296099615454 85.4065189525728 85.69218091924556 86.06573887566381 86.41732283464567 86.63706280900934 87.03259476286395 87.29628273210035 87.47207471159129 87.62589269364585 87.71378868339133 87.75773667826405 87.73576268082769 87.73576268082769 87.49404870902765 87.18641274491851 86.90075077824574 86.35140084233657 85.6702069218092 85.23072697308186 84.70335103460906 84.24189708844534 83.67057315509979 83.25306720380883 82.63779527559055 82.04449734480863 81.60501739608131 80.92382347555393 80.04486357809925 79.80314960629921 79.05603369346274 78.26496978575352 77.64969785753524 77.10034792162608 76.57297198315328 75.84783006775316 75.10071415491669 74.37557223951657 73.6284563266801 73.1010803882073 72.59567844717085 71.73869254715254 71.01355063175242 70.04669474455227 69.5632668009522 69.05786485991577 67.89324299578831 67.62955502655191 67.14612708295184 66.39901117011536 65.93755722395166 64.92675334187878 64.3774034059696 63.74015748031496 62.81724958798755 61.82841970335103 61.05932979307819 60.312213880241714 59.652993957150706 58.40047610327779 57.49954220838674 57.169932246841235 56.13715436733199 55.60977842885919 54.84068851858634 54.203442592931694 53.763962644204355 53.126716718549716 52.64328877494964 52.04999084416774 51.43471891594946 50.99523896722212 50.336019044131106 49.786669108221936 49.369163156930966 48.77586522614906 48.40230726973082 47.72111334920344 47.259659403039734 46.886101446621495 46.534517487639626 46.20490752609412 45.74345357993042 45.30397363120308 44.99633766709394 44.4909357260575 44.09540377220289 43.74381981322102 43.304339864493684 42.842885918329976 42.53524995422084 42.07379600805713 41.74418604651163 41.34865409265702 40.77733015931148 40.469694195202344 40.052188243911374 39.8324482695477 39.546786302874935 39.21717634132943 38.84361838491119 38.44808643105658 38.09650247207471 37.81084050540194 37.52517853872917 37.28346456692913 36.997802600256364 36.426478666910825 36.118842702801686 35.63541475920161 35.13001281816517 34.7125068668742 34.29500091558323 33.943416956601354 33.284197033510345 32.97656106940121 32.69089910272844 32.36128914118294 31.987731184764694 31.81193920527376 31.41640725141915 31.30653726423732 31.08679728987365 30.86705731550998 30.757187328328143 30.58139534883721 30.339681377037174 30.185863394982604 29.9880974180553 29.834279436000735 29.70243545138253 29.394799487273392 29.19703351034609 28.999267533418788 28.75755356161875 28.55978758469145 28.38399560520051 28.25215162058231 28.05438564365501 27.90056766160044 27.790697674418606 27.636879692364037 27.439113715436733 27.329243728254898 27.131477751327594 26.999633766709394 26.95568577183666 26.911737776963925 26.911737776963925 26.911737776963925 26.88976377952756 26.88976377952756 26.88976377952756 26.88976377952756 26.88976377952756 26.867789782091194 26.867789782091194 26.867789782091194 26.867789782091194 26.867789782091194 26.845815784654825 26.867789782091194 26.845815784654825 26.845815784654825 26.845815784654825 26.845815784654825 26.845815784654825 26.845815784654825 26.845815784654825 26.845815784654825 26.845815784654825 26.845815784654825 26.845815784654825 26.845815784654825 26.867789782091194 26.845815784654825 26.845815784654825 26.845815784654825 26.867789782091194 26.867789782091194 26.867789782091194 26.867789782091194 26.867789782091194 26.867789782091194 26.867789782091194 26.867789782091194 26.867789782091194 26.867789782091194 26.88976377952756 26.911737776963925 26.911737776963925 26.933711774400294 26.933711774400294 26.933711774400294 26.933711774400294 26.933711774400294 26.911737776963925 26.911737776963925 26.933711774400294 26.911737776963925 26.933711774400294 26.933711774400294 26.933711774400294 26.933711774400294 26.933711774400294 26.933711774400294 26.933711774400294 26.911737776963925 26.933711774400294 26.933711774400294 26.933711774400294 26.933711774400294 26.933711774400294 26.933711774400294 26.933711774400294 26.933711774400294 26.911737776963925 26.933711774400294 26.911737776963925 26.933711774400294 26.933711774400294 26.933711774400294 26.933711774400294 26.933711774400294 26.933711774400294 26.933711774400294 26.933711774400294 26.933711774400294 26.933711774400294 26.933711774400294 26.933711774400294 26.933711774400294 26.933711774400294 26.933711774400294 26.933711774400294 26.933711774400294 26.933711774400294 26.933711774400294 26.933711774400294 26.933711774400294 26.911737776963925 26.933711774400294 26.933711774400294 26.933711774400294 26.933711774400294 26.933711774400294 26.933711774400294 26.933711774400294 26.911737776963925 26.933711774400294 26.933711774400294 26.933711774400294 26.933711774400294 26.933711774400294 26.933711774400294 26.933711774400294 26.933711774400294 26.911737776963925 26.933711774400294 26.933711774400294 26.933711774400294 26.911737776963925 26.911737776963925 26.911737776963925 26.911737776963925 26.911737776963925 26.911737776963925 26.911737776963925 26.911737776963925 26.911737776963925 26.911737776963925 26.911737776963925 26.911737776963925 26.911737776963925 26.911737776963925 26.911737776963925 26.911737776963925 26.911737776963925 26.911737776963925 26.911737776963925 26.911737776963925 26.911737776963925 26.911737776963925 26.911737776963925 26.911737776963925 26.911737776963925 26.911737776963925 26.88976377952756 26.911737776963925 26.88976377952756 26.911737776963925 26.88976377952756 26.88976377952756 26.911737776963925 26.88976377952756 26.88976377952756 26.88976377952756 26.88976377952756 26.911737776963925 26.88976377952756 26.88976377952756 26.88976377952756 26.88976377952756 26.88976377952756 26.88976377952756 26.88976377952756 26.88976377952756 26.88976377952756 26.88976377952756 26.88976377952756 26.88976377952756 26.88976377952756 26.88976377952756 26.88976377952756 26.88976377952756 26.88976377952756 26.88976377952756 26.88976377952756 26.88976377952756 26.88976377952756 26.88976377952756 26.88976377952756 26.88976377952756 26.88976377952756 26.88976377952756 26.88976377952756 26.88976377952756 26.88976377952756 26.88976377952756 26.88976377952756 26.88976377952756 26.88976377952756 26.88976377952756 26.88976377952756 26.911737776963925 26.88976377952756 26.88976377952756 26.88976377952756 26.88976377952756 26.88976377952756 26.88976377952756 26.88976377952756 26.88976377952756 26.88976377952756 26.88976377952756 26.88976377952756 26.88976377952756 26.911737776963925 26.88976377952756 26.88976377952756 26.88976377952756 26.88976377952756 26.88976377952756 26.88976377952756 26.88976377952756 26.88976377952756 26.88976377952756 26.88976377952756 26.88976377952756 26.88976377952756 26.88976377952756 26.88976377952756 26.88976377952756 26.867789782091194 26.88976377952756 26.88976377952756 26.88976377952756 26.867789782091194 26.88976377952756 26.88976377952756 26.867789782091194 26.88976377952756 26.88976377952756 26.867789782091194 26.867789782091194 26.88976377952756 26.867789782091194 26.867789782091194 26.867789782091194 26.867789782091194 26.88976377952756 26.867789782091194 26.867789782091194 26.867789782091194 26.867789782091194 26.867789782091194 26.867789782091194 26.867789782091194 26.867789782091194 26.867789782091194 26.867789782091194 26.867789782091194 26.867789782091194 26.867789782091194 26.867789782091194 26.867789782091194 26.88976377952756 26.867789782091194 26.867789782091194 26.88976377952756 26.867789782091194 26.867789782091194 26.867789782091194 26.867789782091194 26.88976377952756 26.88976377952756 26.88976377952756 26.88976377952756 26.911737776963925 26.911737776963925 26.933711774400294 26.95568577183666 27.04358176158213 27.10950375389123 27.197399743636698 27.329243728254898 27.461087712873102 27.658853689800402 27.81267167185497 28.03241164621864 28.38399560520051 28.64768357443692 28.867423548800588 29.460721479582496 29.812305438564366 30.20783739241897 30.603369346273574 31.262589269364586 32.03167917963743 32.66892510529207 33.61380699505585 34.38289690532869 35.08606482329244 35.96502472074712 36.73411463101996 37.635048525911 38.60190441311115 39.239150338765796 40.206006225965936 41.084966123420614 41.76616004394799 42.57919794909357 43.172495879875484 43.98553378502106 45.34792162607581 45.74345357993042 46.314777513275956 46.93004944149423 47.50137337483977 48.81981322102179 49.12744918513093 49.786669108221936 50.599707013367514 51.083134956967584 51.72038088262223 52.40157480314961 52.841054751876946 53.434352682658854 53.91778062625893 54.6648965390954 55.08240249038637 55.56583043398645 56.247024354513826 56.906244277604834 57.36769822376854 58.04889214429592 58.51034609045962 59.41127998535067 59.850759934078006 60.33418787767808 61.30104376487823 61.82841970335103 62.28987364951474 63.344625526460355 63.95989745467863 64.72898736495148 65.60794726240616 66.22321919062443 67.08020509064274 67.71745101629739 68.68430690349753 69.6291887932613 70.46420069584326 71.27723860098882 72.17817249587988 72.88134041384362 73.65043032411646 74.79307819080753 75.32045412928035 75.80388207288043 76.28731001648049 76.96850393700788 77.53982787035342 78.02325581395348 78.50668375755356 78.77037172678996 79.23182567295368 79.86907159860831 80.22065555759019 80.66013550631753 81.1435634499176 81.49514740889947 81.97857535249955 82.41805530122689 82.90148324482695 83.4728071781725 83.91228712689984 84.48361106024538 85.09888298846366 85.7361289141183 86.5271928218275 86.94469877311849 87.36220472440945 87.88958066288225 88.15326863211865 88.9223585423915 89.27394250137338 89.60355246291888 90.04303241164622 90.35066837575536 90.61435634499176 90.9219923091009 91.22962827321004 91.42739425013734 91.5812122321919 91.62516022706464 91.66910822193738 91.75700421168284 91.86687419886468 91.62516022706464 91.49331624244644 91.00988829884636 90.48251236037356 90.06500640908259 89.33986449368247 88.70261856802784 88.24116462186413 87.71378868339133 87.25233473722761 86.76890679362754 86.30745284746384 85.4065189525728 84.65940303973632 84.15400109869987 83.71452114997254 82.79161325764511 82.33015931148142 81.69291338582677 80.98974546786303 80.46236952939023 79.84709760117195 79.29774766526278 78.59457974729904 78.02325581395348 77.47390587804432 76.83665995238968 76.37520600622597 75.78190807544406 75.18861014466215 74.61728621131661 74.17780626258927 73.6943783189892 73.32082036257097 72.57370444973449 72.24409448818898 71.71671854971618 71.2332906061161 70.88170664713422 70.57407068302508 69.93682475737045 69.58524079838858 69.05786485991577 68.46456692913387 68.06903497527925 67.56363303424281 67.21204907526095 66.6407251419154 66.04742721113348 65.80571323933346 65.38820728804248 65.0366233290606 64.35542940853324 63.608313495696756 63.212781541842155 62.773301593114816 62.42171763413294 61.93828969053287 61.19117377769639 60.70774583409632 60.04852591100531 59.3893059879143 58.9278520417506 58.33455411096869 57.69730818531404 57.30177623145944 56.7304522981139 56.356894341695664 55.85149240065922 55.21424647500458 54.86266251602271 54.42318256729537 53.895806628822555 53.566196667277055 52.928950741622415 52.51144479033144 51.72038088262223 51.19300494414942 50.86339498260392 50.379967039003844 50.050357077458344 49.808643105658305 49.32521516205823 49.03955319538546 48.60007324665812 48.13861930049441 47.87493133125801 47.457425379967034 46.995971433803334 46.71030946713056 46.33675151071232 46.07306354147592 45.69950558505768 45.34792162607581 45.0842336568394 44.53488372093023 44.24922175425746 43.91961179271196 43.45815784654825 43.128547885002746 42.64511994140267 41.98590001831167 41.67826405420253 41.21681010803882 40.90917414392968 40.645486174693275 40.184032228529574 39.920344259293174 39.524812305438566 39.107306354147596 38.79967039003846 38.33821644387475 37.92071049258378 37.54715253616554 37.1076725874382 36.822010620765425 36.426478666910825 36.07489470792895 35.83318073612892 35.41567478483794 35.21790880791064 35.02014283098333 34.69053286943783 34.44881889763779 34.09723493865592 33.723676982237684 33.350119025819446 32.95458707196484 32.646951107855706 32.33931514374657 31.81193920527376 31.52627723860099 31.21864127449185 30.976927302691813 30.625343343709943 30.29573338216444 30.07599340780077 29.790331441127996 29.526643471891596 29.350851492400658 29.109137520600623 28.933345541109688 28.735579564182384 28.515839589818714 28.40596960263688 28.230177623145945 28.09833363852774 28.010437648782275 27.834645669291337 27.658853689800402 27.483061710309467 27.329243728254898 27.219373741073063 27.153451748763963 27.02160776414576 26.95568577183666 26.845815784654825 26.82384178721846 26.779893792345725 26.691997802600255 26.626075810291155 26.60410181285479 26.58212781541842 26.560153817982055 26.538179820545686 26.51620582310932 26.51620582310932 26.51620582310932 26.51620582310932 26.51620582310932 26.51620582310932 26.51620582310932 26.51620582310932 26.51620582310932 26.51620582310932 26.51620582310932 26.51620582310932 26.51620582310932 26.51620582310932 26.51620582310932 26.51620582310932 26.51620582310932 26.51620582310932 26.51620582310932 26.51620582310932 26.51620582310932 26.51620582310932 26.51620582310932 26.51620582310932 26.51620582310932 26.51620582310932 26.51620582310932 26.51620582310932 26.51620582310932 26.51620582310932 26.51620582310932 26.51620582310932 26.494231825672955 26.51620582310932 26.51620582310932 26.494231825672955 26.494231825672955 26.494231825672955 26.51620582310932 26.494231825672955 26.494231825672955 26.494231825672955 26.494231825672955 26.494231825672955 26.494231825672955 26.494231825672955 26.494231825672955 26.494231825672955 26.494231825672955 26.494231825672955 26.494231825672955 26.494231825672955 26.494231825672955 26.494231825672955 26.494231825672955 26.494231825672955 26.494231825672955 26.494231825672955 26.494231825672955 26.494231825672955 26.494231825672955 26.494231825672955 26.494231825672955 26.494231825672955 26.494231825672955 26.494231825672955 26.494231825672955 26.494231825672955 26.494231825672955 26.494231825672955 26.494231825672955 26.494231825672955 26.494231825672955 26.494231825672955 26.494231825672955 26.494231825672955 26.494231825672955 26.494231825672955 26.494231825672955 26.494231825672955 26.494231825672955 26.494231825672955 26.494231825672955 26.494231825672955 26.494231825672955 26.494231825672955 26.494231825672955 26.494231825672955 26.494231825672955 26.494231825672955 26.494231825672955 26.494231825672955 26.494231825672955 26.494231825672955 26.494231825672955 26.494231825672955 26.494231825672955 26.494231825672955 26.494231825672955 26.494231825672955 26.494231825672955 26.494231825672955 26.494231825672955 26.494231825672955 26.494231825672955 26.51620582310932 26.494231825672955 26.494231825672955 26.51620582310932 26.494231825672955 26.494231825672955 26.494231825672955 26.494231825672955 26.494231825672955 26.51620582310932 26.51620582310932 26.51620582310932 26.494231825672955 26.51620582310932 26.494231825672955 26.51620582310932 26.51620582310932 26.51620582310932 26.51620582310932 26.494231825672955 26.494231825672955 26.51620582310932 26.51620582310932 26.51620582310932 26.51620582310932 26.494231825672955 26.494231825672955 26.51620582310932 26.494231825672955 26.494231825672955 26.494231825672955 26.494231825672955 26.494231825672955 26.494231825672955 26.494231825672955 26.494231825672955 26.51620582310932 26.494231825672955 26.494231825672955 26.51620582310932 26.494231825672955 26.494231825672955 26.494231825672955 26.494231825672955 26.494231825672955 26.51620582310932 26.494231825672955 26.51620582310932 26.51620582310932 26.494231825672955 26.494231825672955 26.494231825672955 26.494231825672955 26.494231825672955 26.51620582310932 26.51620582310932 26.51620582310932 26.494231825672955 26.494231825672955 26.494231825672955 26.494231825672955 26.494231825672955 26.494231825672955 26.494231825672955 26.494231825672955 26.494231825672955 26.494231825672955 26.494231825672955 26.494231825672955 26.494231825672955 26.494231825672955 26.494231825672955 26.494231825672955 26.494231825672955 26.494231825672955 26.494231825672955 26.494231825672955 26.494231825672955 26.494231825672955 26.494231825672955 26.494231825672955 26.494231825672955 26.494231825672955 26.494231825672955 26.472257828236586 26.494231825672955 26.494231825672955 26.494231825672955 26.494231825672955 26.494231825672955 26.494231825672955 26.494231825672955 26.472257828236586 26.494231825672955 26.494231825672955 26.472257828236586 26.494231825672955 26.494231825672955 26.494231825672955 26.494231825672955 26.494231825672955 26.494231825672955 26.494231825672955 26.472257828236586 26.494231825672955 26.472257828236586 26.494231825672955 26.494231825672955 26.494231825672955 26.494231825672955 26.494231825672955 26.494231825672955 26.494231825672955 26.494231825672955 26.494231825672955 26.472257828236586 26.494231825672955 26.494231825672955 26.494231825672955 26.494231825672955 26.494231825672955 26.494231825672955 26.494231825672955 26.494231825672955 26.494231825672955 26.494231825672955 26.494231825672955 26.494231825672955 26.494231825672955 26.494231825672955 26.494231825672955 26.494231825672955 26.494231825672955 26.494231825672955 26.51620582310932 26.494231825672955 26.494231825672955 26.494231825672955 26.494231825672955 26.494231825672955 26.494231825672955 26.494231825672955 26.494231825672955 26.494231825672955 26.494231825672955 26.494231825672955 26.494231825672955 26.494231825672955 26.494231825672955 26.494231825672955 26.494231825672955 26.494231825672955 26.494231825672955 26.494231825672955 26.494231825672955 26.494231825672955 26.494231825672955 26.494231825672955 26.494231825672955 26.494231825672955 26.51620582310932 26.538179820545686 26.538179820545686 26.58212781541842 26.73594579747299 26.999633766709394 27.285295733382164 27.856619666727706 28.362021607764145 29.065189525727888 29.878227430873466 30.51547335652811 31.394433253982786 32.581029115546606 33.218275041201245 34.11920893609229 34.82237685405603 35.48159677714705 36.668192638710856 37.261490569492764 37.85478850027467 38.62387841054752 39.19520234389306 39.920344259293174 40.447720197765975 41.23878410547519 41.98590001831167 42.57919794909357 43.370261856802784 44.5568577183666 44.93041567478484 45.76542757736678 46.402673503021425 47.325581395348834 48.29243728254899 48.90770921076726 50.182201062076544 51.19300494414942 52.15986083134957 52.928950741622415 53.566196667277055 54.24739058780443 55.36806445705915 56.07123237502289 57.389672221204904 58.00494414942318 58.66416407251419 59.938655923823475 60.40010986998718 61.25709577000549 62.15802966489654 62.773301593114816 63.630287493133125 64.72898736495148 65.27833730086064 66.02545321369712 66.59677714704267 67.12415308551547 67.84929500091559 68.37667093938839 69.45339681377037 70.24446072147958 70.79381065738875 71.60684856253434 72.26606848562534 72.92528840871636 73.6943783189892 74.22175425746201 74.92492217542575 75.43032411646219 76.04559604468047 76.66086797289874 77.29811389855337 77.82548983702618 78.1550997985717 78.52865775498992 79.03405969602638 79.36366965757188 79.73722761399011 80.33052554477202 80.81395348837209 80.9457974729903 81.38527742171763 81.73686138069951 82.24226332173595 82.8135872550815 83.31898919611793 83.89031312946346 84.72532503204542 85.18677897820913 85.6042849295001 86.1316608679729 86.48324482695477 86.94469877311849 87.88958066288225 88.21919062442777 88.592748580846 89.01025453213697 89.49368247573705 89.77934444240981 90.24079838857352 90.54843435268266 90.83409631935542 91.1197582860282 91.3834462552646 91.53726423731918 91.60318622962828 91.62516022706464 91.64713422450102 91.62516022706464 91.5812122321919 91.33949826039188 91.0538362937191 90.65830433986449 90.19685039370079 89.86724043215528 89.33986449368247 88.94433253982787 88.41695660135505 87.88958066288225 87.47207471159129 86.68101080388207 86.28547885002747 85.8679728987365 85.25270097051822 84.81322102179088 84.0001831166453 83.51675517304523 83.09924922175426 82.26423731917231 82.00054934993591 81.42922541659037 80.63816150888115 80.24262955502655 79.64933162424464 79.03405969602638 78.57260574986266 77.93535982420804 77.49587987548068 76.85863394982604 75.93572605749863 75.65006409082585 74.83702618568029 73.73832631386193 73.14502838308002 72.57370444973449 71.98040651895258 71.1014466214979 70.31038271378868 69.4973448086431 68.77220289324299 68.09100897271563 67.62955502655191 66.99230910089727 66.55282915216993 65.95953122138803 65.41018128547884 65.01464933162424 64.48727339315144 63.981871452114994 63.586339498260394 62.993041567478485 62.55356161875115 62.22395165720564 61.87236769822377 61.5207837392419 61.05932979307819 60.55392785204175 60.026551913568944 59.56509796740524 59.23548800585973 58.90587804431423 58.44442409815052 58.07086614173228 57.609412195568574 56.950192272477565 56.57663431605933 56.02728438015016 55.63175242629555 55.23622047244095 54.5989745467863 53.98370261856803 53.346456692913385 52.70921076725874 52.24775682109504 51.63248489287676 51.17103094671306 50.55575901849478 49.984435085149244 49.588903131294636 49.03955319538546 48.66599523896723 48.11664530305805 47.391503387657934 47.017945431239696 46.688335469694195 46.182933528657756 45.78740157480315 45.32594762863944 44.99633766709394 44.33711774400293 43.80974180553012 43.282365867057315 42.95275590551181 42.53524995422084 42.18366599523897 41.72221204907526 41.41457608496612 40.99707013367515 40.579564182384175 40.315876213147774 39.964292254165905 39.5028383080022 39.370994323384 39.04138436183849 38.79967039003846 38.44808643105658 37.94268449002014 37.67899652078374 37.393334554110965 36.997802600256364 36.712140633583594 36.16279069767442 35.85515473356528 35.41567478483794 34.9761948361106 34.6465848745651 34.207104925837754 33.83354696941952 33.350119025819446 32.866691082219376 32.49313312580114 31.987731184764694 31.52627723860099 31.196667277055482 30.779161325764512 30.405603369346274 30.185863394982604 29.900201428309835 29.724409448818896 29.394799487273392 29.175059512909723 29.109137520600623 28.867423548800588 28.75755356161875 28.64768357443692 28.449917597509614 28.31807361289141 28.18622962827321 27.988463651345906 27.856619666727706 27.724775682109502 27.614905694927668 27.439113715436733 27.241347738509432 27.131477751327594 26.97765976927303 26.911737776963925 26.867789782091194 26.845815784654825 26.82384178721846 26.80186778978209 26.779893792345725 26.757919794909355 26.713971800036624 26.691997802600255 26.67002380516389 26.648049807727524 26.648049807727524 26.648049807727524 26.626075810291155 26.626075810291155 26.626075810291155 26.626075810291155 26.626075810291155 26.626075810291155 26.626075810291155 26.60410181285479 26.60410181285479 26.60410181285479 26.58212781541842 26.58212781541842 26.58212781541842 26.58212781541842 26.58212781541842 26.58212781541842 26.58212781541842 26.58212781541842 26.560153817982055 26.58212781541842 26.58212781541842 26.560153817982055 26.560153817982055 26.560153817982055 26.560153817982055 26.560153817982055 26.560153817982055 26.560153817982055 26.560153817982055 26.560153817982055 26.560153817982055 26.560153817982055 26.560153817982055 26.560153817982055 26.560153817982055 26.560153817982055 26.560153817982055 26.560153817982055 26.560153817982055 26.560153817982055 26.560153817982055 26.560153817982055 26.560153817982055 26.560153817982055 26.560153817982055 26.560153817982055 26.560153817982055 26.560153817982055 26.560153817982055 26.560153817982055 26.560153817982055 26.538179820545686 26.560153817982055 26.560153817982055 26.560153817982055 26.560153817982055 26.560153817982055 26.538179820545686 26.560153817982055 26.560153817982055 26.560153817982055 26.538179820545686 26.538179820545686 26.560153817982055 26.560153817982055 26.560153817982055 26.560153817982055 26.560153817982055 26.538179820545686 26.560153817982055 26.560153817982055 26.538179820545686 26.560153817982055 26.560153817982055 26.538179820545686 26.538179820545686 26.560153817982055 26.538179820545686 26.560153817982055 26.538179820545686 26.538179820545686 26.538179820545686 26.538179820545686 26.538179820545686 26.538179820545686 26.538179820545686 26.538179820545686 26.538179820545686 26.51620582310932 26.51620582310932 26.51620582310932 26.51620582310932 26.51620582310932 26.51620582310932 26.51620582310932 26.51620582310932 26.51620582310932 26.51620582310932 26.51620582310932 26.51620582310932 26.51620582310932 26.51620582310932 26.51620582310932 26.51620582310932 26.51620582310932 26.51620582310932 26.51620582310932 26.51620582310932 26.51620582310932 26.51620582310932 26.51620582310932 26.51620582310932 26.51620582310932 26.51620582310932 26.51620582310932 26.51620582310932 26.51620582310932 26.51620582310932 26.51620582310932 26.51620582310932 26.51620582310932 26.51620582310932 26.51620582310932 26.51620582310932 26.51620582310932 26.51620582310932 26.51620582310932 26.51620582310932 26.51620582310932 26.51620582310932 26.51620582310932 26.51620582310932 26.51620582310932 26.51620582310932 26.51620582310932 26.51620582310932 26.51620582310932 26.51620582310932 26.538179820545686 26.51620582310932 26.538179820545686 26.51620582310932 26.538179820545686 26.51620582310932 26.538179820545686 26.51620582310932 26.538179820545686 26.51620582310932 26.538179820545686 26.538179820545686 26.538179820545686 26.538179820545686 26.538179820545686 26.538179820545686 26.538179820545686 26.538179820545686 26.538179820545686 26.538179820545686 26.538179820545686 26.538179820545686 26.538179820545686 26.538179820545686 26.538179820545686 26.538179820545686 26.560153817982055 26.58212781541842 26.60410181285479 26.626075810291155 26.648049807727524 26.691997802600255 26.779893792345725 26.867789782091194 27.02160776414576 27.17542574620033 27.505035707745833 27.68082768723677 27.856619666727706 28.142281633400476 28.38399560520051 28.55978758469145 28.867423548800588 29.021241530855153 29.240981505218826 29.504669474455227 29.76835744369163 29.9880974180553 30.493499359091743 30.801135323200878 31.174693279619117 31.35048525911005 31.81193920527376 32.4491851309284 33.020509064273945 33.218275041201245 33.74565097967405 34.16315693096502 34.9761948361106 35.34975279252884 36.338582677165356 37.063724592565464 37.3054385643655 38.07452847463834 38.55795641823842 39.08533235671123 40.27192821827504 40.513642190075075 41.39260208752975 41.83208203625709 42.44735396447537 42.88683391320271 43.502105841420985 43.96355978758469 44.60080571323933 45.04028566196667 45.69950558505768 46.424647500457795 47.193737410730634 47.96282732100348 48.51217725691265 49.08350119025819 49.940487090276505 50.73155099798572 51.39077092107672 52.51144479033144 53.104742721113354 53.895806628822555 54.22541659036806 55.01648049807727 55.917414392968325 56.70847830067753 57.54349020325947 58.37850210584142 58.9937740340597 59.784837941768906 60.61984984435085 61.16919978026002 61.93828969053287 62.46566562900568 63.564365500824024 64.20161142647866 64.83885735213332 65.49807727522432 66.75059512909723 67.27797106757004 67.89324299578831 68.50851492400659 69.38747482146127 70.15656473173412 70.9696026368797 71.80461453946164 72.2880424830617 72.77147042666178 73.71635231642557 74.19978026002565 74.88097418055301 75.78190807544406 76.04559604468047 76.59494598058964 77.03442592931697 77.64969785753524 78.2869437831899 78.7483977293536 79.34169566013551 79.91301959348105 80.35249954220839 80.9457974729903 81.34132942684491 81.93462735762681 82.54989928584509 83.05530122688153 83.82439113715438 84.43966306537266 84.87914301409998 85.49441494231826 85.95586888848196 86.32942684490021 87.14246475004578 87.53799670390038 88.10932063724593 88.87841054751877 89.14209851675518 89.84526643471892 90.08698040651895 90.61435634499176 91.16370628090094 91.5812122321919 92.08661417322836 92.43819813221022 93.03149606299212 93.383080021974 93.58084599890131 93.73466398095587 93.84453396813771 93.88848196301043 93.9104559604468 93.88848196301043 93.80058597326497 93.42702801684673 93.1193920527376 92.57004211682842 91.99871818348288 91.53726423731918 90.90001831166454 90.41659036806446 89.71342245010072 89.0542025270097 88.35103460904597 87.82365867057317 87.18641274491851 86.46127082951841 85.9998168833547 85.49441494231826 84.48361106024538 83.75846914484526 83.2091192089361 82.65976927302691 81.69291338582677 81.34132942684491 80.26460355246292 79.671305621681 78.83629371909907 78.00128181651712 77.42995788317158 76.59494598058964 75.8258560703168 75.25453213697125 74.41952023438931 73.6284563266801 73.14502838308002 72.39791247024354 71.91448452664348 70.99157663431606 70.53012268815235 70.02472074711591 69.38747482146127 68.90404687786119 68.20087895989745 67.54165903680644 66.88243911371544 66.2451931880608 65.8496612342062 65.41018128547884 64.70701336751512 64.1796374290423 63.564365500824024 62.971067570042116 62.487639626442046 61.89434169566014 61.45486174693279 60.83958981871452 60.202343893059876 59.740889946896175 59.1256180186779 58.53232008789599 58.13678813404138 57.56546420069584 57.169932246841235 56.620582310932065 56.07123237502289 55.67570042116829 54.95055850576817 54.62094854422267 54.269364585240794 53.61014466214979 53.280534700604285 52.95092473905878 52.2038088262223 51.96209485442226 51.56656290056766 51.17103094671306 50.90734297747665 50.48983702618568 50.182201062076544 49.852591100531036 49.479033144112805 49.237319172312766 48.90770921076726 48.42428126716719 48.09467130562168 47.83098333638527 47.54532136971251 47.23768540560337 46.842153451748764 46.534517487639626 46.00714154916682 45.56766160043948 45.23805163889398 44.64475370811206 44.4909357260575 44.02948177989379 43.61197582860282 43.260391869620946 42.88683391320271 42.35945797472991 42.0957700054935 41.76616004394799 41.52444607214796 41.28273210034792 40.90917414392968 40.71140816700238 40.403772202893244 40.030214246475005 39.7665262772386 39.5028383080022 39.305072331074896 39.107306354147596 38.77769639260209 38.55795641823842 38.07452847463834 37.78886650796557 37.393334554110965 36.975828602819995 36.646218641274494 36.338582677165356 35.54751876945615 35.28383080021974 34.88829884636513 34.58066288225599 33.98736495147409 33.767624977110415 33.525911005310384 33.240249038637614 32.95458707196484 32.734847097601175 32.42721113349204 32.20747115912837 31.921809192455594 31.482329243728255 31.262589269364586 30.976927302691813 30.647317341146312 30.383629371909905 29.9880974180553 29.70243545138253 29.240981505218826 28.955319538546053 28.75755356161875 28.53781358725508 28.18622962827321 27.988463651345906 27.768723676982237 27.527009705182202 27.461087712873102 27.395165720564 27.351217725691264 27.351217725691264 27.351217725691264 27.351217725691264 27.351217725691264 27.351217725691264 27.373191723127633 27.373191723127633 27.351217725691264 27.351217725691264 27.307269730818533 27.241347738509432 27.131477751327594 27.087529756454863 27.087529756454863 27.087529756454863 27.087529756454863 27.087529756454863 27.065555759018494 27.065555759018494 27.065555759018494 27.065555759018494 27.065555759018494 27.087529756454863 27.087529756454863 27.065555759018494 27.065555759018494 27.065555759018494 27.065555759018494 27.065555759018494 27.065555759018494 27.065555759018494 27.065555759018494 27.065555759018494 27.065555759018494 27.087529756454863 27.087529756454863 27.065555759018494 27.087529756454863 27.087529756454863 27.087529756454863 27.087529756454863 27.065555759018494 27.087529756454863 27.087529756454863 27.087529756454863 27.087529756454863 27.065555759018494 27.065555759018494 27.087529756454863 27.087529756454863 27.087529756454863 27.065555759018494 27.087529756454863 27.065555759018494 27.065555759018494 27.065555759018494 27.065555759018494 27.065555759018494 27.065555759018494 27.065555759018494 27.065555759018494 27.04358176158213 27.065555759018494 27.065555759018494 27.065555759018494 27.04358176158213 27.04358176158213 27.04358176158213 27.04358176158213 27.04358176158213 27.04358176158213 27.04358176158213 27.04358176158213 27.065555759018494 27.04358176158213 27.04358176158213 27.04358176158213 27.04358176158213 27.04358176158213 27.04358176158213 27.04358176158213 27.04358176158213 27.04358176158213 27.04358176158213 27.04358176158213 27.04358176158213 27.04358176158213 27.04358176158213 27.04358176158213 27.04358176158213 27.04358176158213 27.04358176158213 27.04358176158213 27.04358176158213 27.04358176158213 27.04358176158213 27.04358176158213 27.04358176158213 27.04358176158213 27.04358176158213 27.04358176158213 27.02160776414576 27.02160776414576 27.02160776414576 27.02160776414576 27.02160776414576 27.02160776414576 27.02160776414576 27.02160776414576 27.02160776414576 27.02160776414576 27.02160776414576 27.02160776414576 26.999633766709394 26.999633766709394 26.999633766709394 27.02160776414576 27.02160776414576 26.999633766709394 26.999633766709394 27.02160776414576 26.999633766709394 26.999633766709394 27.02160776414576 26.999633766709394 26.999633766709394 26.999633766709394 26.999633766709394 26.999633766709394 26.999633766709394 26.999633766709394 26.999633766709394 26.999633766709394 26.999633766709394 26.97765976927303 26.999633766709394 26.999633766709394 26.999633766709394 26.999633766709394 26.999633766709394 26.999633766709394 26.999633766709394 26.999633766709394 26.999633766709394 26.999633766709394 26.97765976927303 26.97765976927303 26.999633766709394 26.999633766709394 26.999633766709394 26.999633766709394 26.999633766709394 26.999633766709394 26.97765976927303 26.999633766709394 26.97765976927303 26.999633766709394 26.999633766709394 26.999633766709394 26.97765976927303 26.999633766709394 26.999633766709394 26.999633766709394 26.999633766709394 26.97765976927303 26.999633766709394 26.999633766709394 26.999633766709394 26.999633766709394 26.999633766709394 26.999633766709394 26.999633766709394 26.999633766709394 26.999633766709394 26.999633766709394 26.999633766709394 26.999633766709394 26.999633766709394 26.999633766709394 26.999633766709394 26.999633766709394 26.999633766709394 26.999633766709394 26.999633766709394 26.999633766709394 26.999633766709394 26.999633766709394 26.999633766709394 26.999633766709394 26.999633766709394 26.999633766709394 26.999633766709394 26.999633766709394 26.999633766709394 26.999633766709394 26.999633766709394 26.999633766709394 26.999633766709394 26.999633766709394 26.97765976927303 26.999633766709394 26.999633766709394 26.999633766709394 26.999633766709394 26.999633766709394 26.999633766709394 26.999633766709394 26.999633766709394 26.999633766709394 26.999633766709394 26.999633766709394 26.999633766709394 26.999633766709394 26.999633766709394 26.999633766709394 26.999633766709394 26.999633766709394 26.97765976927303 26.999633766709394 26.999633766709394 27.02160776414576 27.04358176158213 27.065555759018494 27.087529756454863 27.131477751327594 27.17542574620033 27.285295733382164 27.395165720564 27.592931697491302 27.944515656473172 28.05438564365501 28.40596960263688 28.669657571873284 29.219007507782457 29.526643471891596 29.790331441127996 30.251785387291704 30.647317341146312 30.998901300128182 31.59219923091009 31.94378318989196 32.49313312580114 33.086431056583045 33.48196301043765 34.141182933528654 34.7784288591833 35.28383080021974 35.921076725874386 36.360556674601725 37.019776597692726 37.87676249771104 38.31624244643838 38.75572239516572 39.41494231825673 39.898370261856805 40.645486174693275 41.19483611060245 42.2276139901117 42.996703900384546 43.54605383629372 44.3590917414393 44.97436366965757 45.47976561069402 46.556491485075995 47.1497894158579 47.96282732100348 48.79783922358543 49.303241164621866 50.094305072331075 50.77549899285845 51.43471891594946 52.53341878776781 53.126716718549716 53.67606665445889 54.42318256729537 55.28016846731368 56.33492034425929 56.57663431605933 57.14795824940487 58.00494414942318 58.81798205456876 59.521149972532506 60.422083867423545 61.30104376487823 61.82841970335103 62.37776963926021 63.278703534151255 63.89397546236953 64.68503937007874 65.54202527009704 66.42098516755172 67.36586705731551 68.31074894707929 69.18970884453397 70.00274674967955 70.68394067020692 71.34316059329794 71.93645852407984 72.66160043947995 73.25489837026186 74.30965024720747 74.83702618568029 75.58414209851676 76.04559604468047 76.52902398828054 77.18824391137156 78.02325581395348 78.44076176524446 78.96813770371728 79.36366965757188 79.84709760117195 80.35249954220839 80.70408350119027 81.1435634499176 81.62699139351767 81.97857535249955 82.50595129097235 82.9454312396997 83.45083318073613 83.9342611243362 84.28584508331807 85.03296099615454 85.69218091924556 85.9338948910456 86.30745284746384 86.61508881157297 86.87877678080937 87.29628273210035 87.55997070133675 88.06537264237319 88.32906061160959 88.74656656290057 89.55960446804615 89.91118842702802 90.24079838857352 90.52646035524629 90.74620032960996 91.07581029115548 91.1856802783373 91.36147225782824 91.47134224501008 91.49331624244644 91.51529023988282 91.49331624244644 91.47134224501008 91.36147225782824 91.16370628090094 90.7242263321736 90.328694378319 90.08698040651895 89.62552646035525 89.12012451931881 88.28511261673685 87.95550265519137 87.49404870902765 86.81285478850029 86.10968687053654 85.538362937191 84.98901300128182 83.95623512177258 83.2091192089361 82.48397729353599 82.00054934993591 81.20948544222671 80.37447353964475 79.51748763962644 78.6824757370445 78.00128181651712 77.40798388573522 76.70481596777148 76.04559604468047 74.79307819080753 73.80424830617103 73.1010803882073 72.09027650613442 71.47500457791614 70.81578465482514 69.58524079838858 69.01391686504303 67.93719099066105 67.45376304706097 66.92638710858817 66.13532320087896 65.38820728804248 64.641091375206 64.20161142647866 63.718183482878594 63.080937557223955 62.46566562900568 62.00421168284197 61.30104376487823 61.08130379051456 60.55392785204175 60.004577916132575 59.60904596227797 59.03772202893243 58.24665812122322 57.82915216993224 57.27980223402307 57.060062259659404 56.57663431605933 55.917414392968325 55.58780443142282 55.12635048525911 54.68687053653177 54.35726057498627 53.80791063907709 53.412378685222485 52.841054751876946 52.2697308185314 51.6764328877495 51.32484892876762 50.599707013367514 50.379967039003844 49.786669108221936 49.19337117744003 48.66599523896723 48.29243728254899 47.89690532869437 47.17176341329427 46.754257462003295 46.20490752609412 45.58963559787585 45.19410364402124 44.84251968503937 44.205273759384724 43.699871818348285 43.128547885002746 42.57919794909357 42.20563999267533 41.50247207471159 41.10694012085699 40.77733015931148 40.227980223402305 39.898370261856805 39.524812305438566 39.04138436183849 38.57993041567478 38.27229445156565 38.03058047976561 37.81084050540194 37.52517853872917 37.2395165720564 36.909906610510895 36.426478666910825 36.07489470792895 35.74528474638345 35.45962277971068 35.17396081303791 34.75645486174693 34.44881889763779 34.075260941219554 33.767624977110415 33.372093023255815 32.82274308734664 32.53708112067387 32.29536714887384 31.96575718732833 31.68009522065556 31.35048525911005 31.08679728987365 30.691265336019043 30.405603369346274 30.163889397546235 29.966123420618935 29.746383446255265 29.54861746932796 29.175059512909723 28.933345541109688 28.69163156930965 28.362021607764145 28.208203625709576 28.05438564365501 27.81267167185497 27.636879692364037 27.417139718000367 27.241347738509432 27.02160776414576 26.999633766709394 26.97765976927303 26.97765976927303 26.97765976927303 26.97765976927303 26.97765976927303 26.97765976927303 26.97765976927303 26.95568577183666 26.95568577183666 26.933711774400294 26.933711774400294 26.911737776963925 26.867789782091194 26.82384178721846 26.80186778978209 26.757919794909355 26.73594579747299 26.713971800036624 26.713971800036624 26.691997802600255 26.713971800036624 26.713971800036624 26.691997802600255 26.691997802600255 26.691997802600255 26.691997802600255 26.691997802600255 26.691997802600255 26.713971800036624 26.691997802600255 26.691997802600255 26.691997802600255 26.691997802600255 26.691997802600255 26.691997802600255 26.691997802600255 26.691997802600255 26.691997802600255 26.691997802600255 26.691997802600255 26.691997802600255 26.691997802600255 26.691997802600255 26.691997802600255 26.691997802600255 26.691997802600255 26.691997802600255 26.691997802600255 26.691997802600255 26.691997802600255 26.691997802600255 26.691997802600255 26.691997802600255 26.691997802600255 26.691997802600255 26.691997802600255 26.691997802600255 26.691997802600255 26.691997802600255 26.67002380516389 26.691997802600255 26.691997802600255 26.691997802600255 26.691997802600255 26.691997802600255 26.691997802600255 26.691997802600255 26.691997802600255 26.691997802600255 26.691997802600255 26.691997802600255 26.691997802600255 26.691997802600255 26.691997802600255 26.691997802600255 26.691997802600255 26.691997802600255 26.691997802600255 26.691997802600255 26.691997802600255 26.67002380516389 26.67002380516389 26.691997802600255 26.691997802600255 26.691997802600255 26.691997802600255 26.691997802600255 26.691997802600255 26.691997802600255 26.691997802600255 26.691997802600255 26.691997802600255 26.691997802600255 26.691997802600255 26.691997802600255 26.691997802600255 26.691997802600255 26.691997802600255 26.691997802600255 26.691997802600255 26.691997802600255 26.691997802600255 26.691997802600255 26.67002380516389 26.691997802600255 26.691997802600255 26.691997802600255 26.691997802600255 26.691997802600255 26.67002380516389 26.67002380516389 26.67002380516389 26.67002380516389 26.67002380516389 26.67002380516389 26.67002380516389 26.67002380516389 26.67002380516389 26.67002380516389 26.67002380516389 26.67002380516389 26.67002380516389 26.67002380516389 26.67002380516389 26.67002380516389 26.67002380516389 26.67002380516389 26.67002380516389 26.67002380516389 26.67002380516389 26.67002380516389 26.67002380516389 26.67002380516389 26.67002380516389 26.67002380516389 26.67002380516389 26.67002380516389 26.67002380516389 26.67002380516389 26.67002380516389 26.67002380516389 26.67002380516389 26.67002380516389 26.67002380516389 26.691997802600255 26.67002380516389 26.67002380516389 26.67002380516389 26.67002380516389 26.67002380516389 26.67002380516389 26.67002380516389 26.67002380516389 26.67002380516389 26.67002380516389 26.67002380516389 26.67002380516389 26.67002380516389 26.67002380516389 26.67002380516389 26.67002380516389 26.67002380516389 26.67002380516389 26.67002380516389 26.691997802600255 26.67002380516389 26.67002380516389 26.67002380516389 26.67002380516389 26.67002380516389 26.67002380516389 26.67002380516389 26.67002380516389 26.67002380516389 26.67002380516389 26.67002380516389 26.67002380516389 26.67002380516389 26.67002380516389 26.67002380516389 26.67002380516389 26.67002380516389 26.691997802600255 26.67002380516389 26.67002380516389 26.691997802600255 26.67002380516389 26.67002380516389 26.67002380516389 26.691997802600255 26.67002380516389 26.67002380516389 26.67002380516389 26.67002380516389 26.67002380516389 26.691997802600255 26.67002380516389 26.67002380516389 26.67002380516389 26.67002380516389 26.67002380516389 26.67002380516389 26.691997802600255 26.67002380516389 26.67002380516389 26.67002380516389 26.67002380516389 26.67002380516389 26.67002380516389 26.67002380516389 26.67002380516389 26.67002380516389 26.691997802600255 26.67002380516389 26.67002380516389 26.67002380516389 26.67002380516389 26.67002380516389 26.67002380516389 26.67002380516389 26.67002380516389 26.67002380516389 26.67002380516389 26.67002380516389 26.67002380516389 26.67002380516389 26.67002380516389 26.67002380516389 26.67002380516389 26.691997802600255 26.713971800036624 26.779893792345725 26.845815784654825 26.933711774400294 27.065555759018494 27.219373741073063 27.461087712873102 27.614905694927668 27.87859366416407 28.03241164621864 28.449917597509614 28.669657571873284 29.087163523164257 29.54861746932796 30.097967405237135 30.317707379600805 31.15271928218275 31.702069218091925 32.36128914118294 32.84471708478301 33.635780992492215 34.44881889763779 35.15198681560154 35.921076725874386 36.712140633583594 37.34938655923823 38.29426844900202 39.06335835927486 40.71140816700238 41.19483611060245 42.00787401574803 43.260391869620946 43.831715802966485 44.4909357260575 45.65555759018495 46.248855520966856 47.193737410730634 48.40230726973082 48.75389122871269 49.654825123603736 50.599707013367514 51.30287493133126 52.31367881340414 53.03882072880425 54.071598608313494 55.41201245193188 56.09320637245926 56.752426295550265 57.43362021607764 58.35652810840505 59.21351400842337 59.806811939205275 60.94945980589635 61.82841970335103 62.44369163156931 63.278703534151255 63.67423548800586 64.81688335469694 65.717817249588 66.35506317524263 67.29994506500641 68.24482695477019 68.92602087529757 70.26643471891595 70.94762863944334 71.69474455227981 72.59567844717085 73.29884636513458 74.33162424464385 75.957700054935 76.72678996520784 77.40798388573522 78.0891778062626 78.77037172678996 79.49551364219008 80.13275956784472 81.29738143197216 82.15436733199049 82.74766526277239 83.56070316791798 84.15400109869987 84.98901300128182 85.71415491668193 86.2635048525911 87.03259476286395 87.77971067570043 88.28511261673685 89.01025453213697 89.97711041933712 90.30672038088262 91.07581029115548 91.33949826039188 91.99871818348288 92.6579381065739 93.383080021974 94.06427394250137 94.52572788866507 94.94323383995605 95.5145577733016 96.08588170664714 96.3715436733199 96.87694561435634 97.05273759384728 97.20655557590185 97.25050357077458 97.27247756821096 97.27247756821096 97.27247756821096 96.78904962461088 96.437465665629 96.06390770921077 95.40468778611975 94.89928584508333 94.21809192455594 93.5149240065922 93.00952206555576 92.32832814502838 91.53726423731918 90.81212232191906 90.30672038088262 89.44973448086431 88.74656656290057 88.15326863211865 87.25233473722761 86.43929683208204 85.78007690899102 85.18677897820913 84.21992309100898 83.58267716535434 82.98937923457243 81.93462735762681 81.34132942684491 80.39644753708112 79.51748763962644 78.79234572422632 77.18824391137156 76.83665995238968 76.11151803698957 75.10071415491669 74.48544222669841 73.40871635231643 72.4198864676799 71.38710858817066 70.46420069584326 69.67313678813403 68.90404687786119 68.31074894707929 67.69547701886101 66.5748031496063 65.87163523164256 65.10254532136972 64.3774034059696 63.87200146493316 63.16883354696942 62.53158762131478 62.07013367515107 61.36696575718733 60.88353781358725 60.26826588536898 59.499175975096136 59.0596960263688 58.51034609045962 58.13678813404138 57.69730818531404 57.08203625709577 56.64255630836843 55.74162241347739 54.79674052371361 54.401208569859 53.829884636513455 53.412378685222485 52.81908075444058 51.8741988646768 51.41274491851309 50.68760300311298 49.940487090276505 49.45705914667643 48.75389122871269 48.09467130562168 47.76506134407617 47.193737410730634 46.71030946713056 46.292803515839594 45.74345357993042 45.19410364402124 44.66672770554844 44.46896172862113 43.831715802966485 43.502105841420985 42.97472990294818 42.53524995422084 41.81010803882073 41.43655008240249 41.15088811572972 40.86522614905695 40.601538179820544 40.315876213147774 40.052188243911374 39.7006042849295 39.370994323384 39.12928035158396 38.79967039003846 38.55795641823842 38.22834645669291 37.92071049258378 37.65702252334737 37.393334554110965 37.063724592565464 36.843984618201794 36.38253067203809 36.118842702801686 35.87712873100165 35.48159677714705 35.15198681560154 34.7125068668742 34.33894891045596 34.03131294634682 33.723676982237684 33.503937007874015 33.218275041201245 32.932613074528476 32.69089910272844 32.3832631386193 32.1195751693829 31.87786119758286 31.57022523347372 31.328511261673686 30.976927302691813 30.603369346273574 30.251785387291704 30.010071415491666 29.746383446255265 29.328877494964292 29.065189525727888 28.71360556674602 28.515839589818714 28.25215162058231 27.96648965390954 27.658853689800402 27.461087712873102 27.263321735945798 27.02160776414576 26.911737776963925 26.867789782091194 26.779893792345725 26.757919794909355 26.73594579747299 26.73594579747299 26.713971800036624 26.713971800036624 26.713971800036624 26.713971800036624 26.713971800036624 26.691997802600255 26.713971800036624 26.713971800036624 26.713971800036624 26.713971800036624 26.713971800036624 26.691997802600255 26.691997802600255 26.691997802600255 26.691997802600255 26.691997802600255 26.691997802600255 26.67002380516389 26.691997802600255 26.67002380516389 26.67002380516389 26.648049807727524 26.648049807727524 26.648049807727524 26.648049807727524 26.648049807727524 26.648049807727524 26.648049807727524 26.648049807727524 26.648049807727524 26.648049807727524 26.648049807727524 26.626075810291155 26.626075810291155 26.648049807727524 26.626075810291155 26.626075810291155 26.626075810291155 26.626075810291155 26.626075810291155 26.626075810291155 26.626075810291155 26.626075810291155 26.626075810291155 26.626075810291155 26.626075810291155 26.626075810291155 26.626075810291155 26.626075810291155 26.626075810291155 26.626075810291155 26.626075810291155 26.626075810291155 26.626075810291155 26.626075810291155 26.626075810291155 26.626075810291155 26.626075810291155 26.626075810291155 26.626075810291155 26.626075810291155 26.626075810291155 26.626075810291155 26.626075810291155 26.626075810291155 26.626075810291155 26.626075810291155 26.626075810291155 26.626075810291155 26.626075810291155 26.626075810291155 26.626075810291155 26.626075810291155 26.626075810291155 26.626075810291155 26.626075810291155 26.626075810291155 26.626075810291155 26.626075810291155 26.626075810291155 26.626075810291155 26.626075810291155 26.626075810291155 26.626075810291155 26.626075810291155 26.626075810291155 26.626075810291155 26.626075810291155 26.626075810291155 26.626075810291155 26.626075810291155 26.626075810291155 26.648049807727524 26.626075810291155 26.626075810291155 26.626075810291155 26.626075810291155 26.648049807727524 26.626075810291155 26.626075810291155 26.626075810291155 26.626075810291155 26.648049807727524 26.626075810291155 26.626075810291155 26.626075810291155 26.626075810291155 26.648049807727524 26.648049807727524 26.648049807727524 26.626075810291155 26.648049807727524 26.626075810291155 26.626075810291155 26.648049807727524 26.648049807727524 26.626075810291155 26.626075810291155 26.626075810291155 26.626075810291155 26.648049807727524 26.648049807727524 26.648049807727524 26.648049807727524 26.648049807727524 26.626075810291155 26.648049807727524 26.648049807727524 26.648049807727524 26.648049807727524 26.648049807727524 26.648049807727524 26.648049807727524 26.648049807727524 26.648049807727524 26.67002380516389 26.648049807727524 26.648049807727524 26.67002380516389 26.648049807727524 26.648049807727524 26.648049807727524 26.648049807727524 26.67002380516389 26.648049807727524 26.648049807727524 26.67002380516389 26.648049807727524 26.648049807727524 26.67002380516389 26.648049807727524 26.67002380516389 26.67002380516389 26.648049807727524 26.648049807727524 26.67002380516389 26.648049807727524 26.648049807727524 26.648049807727524 26.67002380516389 26.648049807727524 26.648049807727524 26.648049807727524 26.67002380516389 26.648049807727524 26.67002380516389 26.67002380516389 26.648049807727524 26.648049807727524 26.648049807727524 26.648049807727524 26.648049807727524 26.648049807727524 26.648049807727524 26.648049807727524 26.648049807727524 26.67002380516389 26.648049807727524 26.648049807727524 26.648049807727524 26.648049807727524 26.67002380516389 26.648049807727524 26.648049807727524 26.648049807727524 26.648049807727524 26.648049807727524 26.648049807727524 26.648049807727524 26.648049807727524 26.648049807727524 26.648049807727524 26.648049807727524 26.648049807727524 26.648049807727524 26.648049807727524 26.648049807727524 26.67002380516389 26.648049807727524 26.648049807727524 26.648049807727524 26.648049807727524 26.648049807727524 26.648049807727524 26.648049807727524 26.648049807727524 26.648049807727524 26.648049807727524 26.67002380516389 26.648049807727524 26.648049807727524 26.648049807727524 26.648049807727524 26.648049807727524 26.648049807727524 26.648049807727524 26.648049807727524 26.648049807727524 26.67002380516389 26.67002380516389 26.67002380516389 26.648049807727524 26.67002380516389 26.648049807727524 26.67002380516389 26.648049807727524 26.648049807727524 26.648049807727524 26.648049807727524 26.648049807727524 26.648049807727524 26.648049807727524 26.648049807727524 26.648049807727524 26.648049807727524 26.648049807727524 26.648049807727524 26.648049807727524 26.648049807727524 26.67002380516389 26.648049807727524 26.648049807727524 26.648049807727524 26.648049807727524 26.648049807727524 26.648049807727524 26.648049807727524 26.648049807727524 26.648049807727524 26.648049807727524 26.648049807727524 26.648049807727524 26.648049807727524 26.648049807727524 26.67002380516389 26.648049807727524 26.648049807727524 26.648049807727524 26.648049807727524 26.648049807727524 26.648049807727524 26.648049807727524 26.67002380516389 26.648049807727524 26.648049807727524 26.648049807727524 26.67002380516389 26.648049807727524 26.67002380516389 26.67002380516389 26.67002380516389 26.67002380516389 26.691997802600255 26.713971800036624 26.779893792345725 26.82384178721846 26.88976377952756 26.999633766709394 27.087529756454863 27.263321735945798 27.505035707745833 27.658853689800402 27.988463651345906 28.25215162058231 28.801501556491484 29.109137520600623 29.63651345907343 30.163889397546235 30.51547335652811 31.24061527192822 31.855887200146494 32.3832631386193 33.372093023255815 33.877494964292254 34.44881889763779 35.30580479765611 35.94305072331075 36.712140633583594 37.54715253616554 38.14045046694744 38.93151437465666 40.579564182384175 40.953122138802414 41.72221204907526 42.46932796191174 43.392235854239146 44.46896172862113 45.23805163889398 46.57846548251236 47.391503387657934 48.11664530305805 48.68796923640359 49.171397180003666 49.89653909540377 50.511811023622045 51.03918696209485 51.69840688518586 52.46749679545871 52.97289873649515 53.763962644204355 54.071598608313494 54.6648965390954 55.41201245193188 55.96136238784105 56.488738326313864 57.389672221204904 57.89507416224135 58.62021607764146 58.9937740340597 59.41127998535067 60.026551913568944 60.444057864859914 61.27906976744186 61.9163156930965 62.42171763413294 62.94909357260575 63.542391503387655 63.718183482878594 64.5092473905878 64.97070133675152 65.54202527009704 66.13532320087896 66.5748031496063 67.21204907526095 67.84929500091559 68.35469694195203 68.92602087529757 69.60721479582494 70.02472074711591 70.48617469327962 71.12342061893426 72.00238051638894 72.46383446255265 72.92528840871636 73.54056033693463 74.19978026002565 74.61728621131661 75.23255813953489 75.80388207288043 76.37520600622597 76.70481596777148 77.10034792162608 77.75956784471708 78.17707379600806 78.70444973448086 79.01208569859 79.5394616370628 80.06683757553562 80.48434352682659 81.0117194652994 81.60501739608131 82.11041933711775 82.57187328328145 82.98937923457243 83.6046511627907 84.35176707562718 84.74729902948178 85.09888298846366 85.56033693462736 85.91192089360922 86.50521882439114 86.85680278337301 87.31825672953671 87.75773667826405 88.04339864493683 88.48287859366417 88.87841054751877 89.18604651162791 89.49368247573705 89.73539644753708 90.04303241164622 90.30672038088262 90.50448635780992 90.7242263321736 90.96594030397362 91.1856802783373 91.36147225782824 91.62516022706464 91.8449002014283 92.08661417322836 92.19648416041018 92.43819813221022 92.54806811939206 92.6579381065739 92.7897820911921 92.83373008606483 92.8557040835012 92.8557040835012 92.8557040835012 92.8557040835012 92.8557040835012 92.8557040835012 92.81175608862846 92.74583409631936 92.54806811939206 92.24043215528292 92.06464017579198 91.88884819630104 91.69108221937374 91.36147225782824 90.98791430141 90.7242263321736 90.21882439113715 89.80131843984618 89.51565647317341 89.16407251419155 89.01025453213697 88.68064457059147 88.15326863211865 87.86760666544589 87.45010071415491 87.01062076542757 86.72495879875481 86.08771287310017 85.7361289141183 85.45046694744553 84.94506500640908 84.59348104742722 84.08807910639078 83.25306720380883 82.98937923457243 82.59384728071782 82.02252334737227 81.80278337300861 81.29738143197216 80.92382347555393 80.13275956784472 79.49551364219008 79.05603369346274 78.4187877678081 77.84746383446256 77.03442592931697 76.5509979857169 76.06757004211683 75.34242812671673 74.61728621131661 74.08991027284381 73.29884636513458 72.74949642922542 72.00238051638894 71.21131660867974 70.68394067020692 69.91485075993407 69.14576084966123 68.59641091375207 67.54165903680644 66.97033510346091 66.42098516755172 65.76176524446072 65.21241530855156 64.3774034059696 63.652261490569494 62.61948361106025 62.0481596777147 61.5207837392419 60.92748580845999 59.56509796740524 59.10364402124153 58.62021607764146 58.18073612891412 57.65336019044131 57.125984251968504 56.620582310932065 56.115180369895626 55.43398644936825 54.99450650064091 54.35726057498627 53.93975462369529 53.302508698040654 52.75315876213148 52.1378868339132 51.6764328877495 51.21497894158579 50.68760300311298 50.270097051822006 50.028383080021975 49.654825123603736 49.2812671671855 48.95165720563999 48.53415125434902 48.02874931331258 47.457425379967034 46.86412744918513 46.66636147225783 46.182933528657756 45.61160959531222 45.36989562351218 45.04028566196667 44.64475370811206 44.38106573887566 44.02948177989379 43.721845815784654 43.392235854239146 42.97472990294818 42.71104193371177 42.35945797472991 42.13971800036623 41.65629005676616 41.43655008240249 41.19483611060245 40.82127815418421 40.33785021058414 40.184032228529574 39.810474272111335 39.5028383080022 39.26112433620216 38.97546236952939 38.75572239516572 38.55795641823842 38.29426844900202 38.18439846182018 38.03058047976561 37.96465848745651 37.78886650796557 37.52517853872917 37.4372825489837 37.21754257462003 36.975828602819995 36.843984618201794 36.712140633583594 36.646218641274494 36.426478666910825 36.16279069767442 36.00897271561985 35.81120673869255 35.63541475920161 35.48159677714705 35.32777879509247 35.19593481047427 35.02014283098333 34.8443508514924 34.7125068668742 34.55868888481963 34.36092290789233 34.16315693096502 33.943416956601354 33.789598974546784 33.61380699505585 33.372093023255815 33.152353048892145 32.91063907709211 32.55905511811024 32.3832631386193 32.1195751693829 31.987731184764694 31.74601721296466 31.52627723860099 31.37245925654642 31.130745284746382 30.889031312946347 30.713239333455412 30.42757736678264 30.22981138985534 29.900201428309835 29.48269547701886 29.372825489837027 29.109137520600623 28.91137154367332 28.77952755905512 28.55978758469145 28.449917597509614 28.362021607764145 28.25215162058231 28.12030763596411 28.010437648782275 27.90056766160044 27.834645669291337 27.74674967954587 27.658853689800402 27.548983702618568 27.505035707745833 27.461087712873102 27.439113715436733 27.417139718000367 27.395165720564 27.351217725691264 27.307269730818533 27.241347738509432 27.197399743636698 27.153451748763963 27.131477751327594 27.065555759018494 27.02160776414576 27.02160776414576 26.999633766709394 26.97765976927303 26.97765976927303 26.95568577183666 26.95568577183666 26.95568577183666 26.933711774400294 26.933711774400294 26.933711774400294 26.933711774400294 26.911737776963925 26.911737776963925 26.911737776963925 26.911737776963925 26.911737776963925 26.911737776963925 26.911737776963925 26.88976377952756 26.88976377952756 26.911737776963925 26.88976377952756 26.88976377952756 26.88976377952756 26.88976377952756 26.88976377952756 26.911737776963925 26.88976377952756 26.88976377952756 26.88976377952756 26.88976377952756 26.88976377952756 26.88976377952756 26.88976377952756 26.88976377952756 26.88976377952756 26.88976377952756 26.867789782091194 26.88976377952756 26.867789782091194 26.867789782091194 26.867789782091194 26.867789782091194 26.867789782091194 26.88976377952756 26.867789782091194 26.867789782091194 26.867789782091194 26.867789782091194 26.867789782091194 26.867789782091194 26.867789782091194 26.867789782091194 26.867789782091194 26.867789782091194 26.867789782091194 26.867789782091194 26.867789782091194 26.867789782091194 26.867789782091194 26.867789782091194 26.867789782091194 26.867789782091194 26.867789782091194 26.867789782091194 26.867789782091194 26.867789782091194 26.867789782091194 26.867789782091194 26.867789782091194 26.867789782091194 26.867789782091194 26.867789782091194 26.867789782091194 26.845815784654825 26.867789782091194 26.867789782091194 26.845815784654825 26.845815784654825 26.867789782091194 26.845815784654825 26.867789782091194 26.845815784654825 26.845815784654825 26.845815784654825 26.845815784654825 26.845815784654825 26.845815784654825 26.867789782091194 26.845815784654825 26.845815784654825 26.867789782091194 26.845815784654825 26.845815784654825 26.845815784654825 26.845815784654825 26.845815784654825 26.845815784654825 26.867789782091194 26.845815784654825 26.845815784654825 26.845815784654825 26.845815784654825 26.867789782091194 26.845815784654825 26.867789782091194 26.845815784654825 26.845815784654825 26.845815784654825 26.845815784654825 26.845815784654825 26.845815784654825 26.845815784654825 26.845815784654825 26.845815784654825 26.845815784654825 26.845815784654825 26.845815784654825 26.845815784654825 26.845815784654825 26.845815784654825 26.845815784654825 26.845815784654825 26.845815784654825 26.845815784654825 26.845815784654825 26.845815784654825 26.845815784654825 26.845815784654825 26.845815784654825 26.867789782091194 26.845815784654825 26.845815784654825 26.845815784654825 26.845815784654825 26.867789782091194 26.845815784654825 26.845815784654825 26.845815784654825 26.845815784654825 26.845815784654825 26.845815784654825 26.845815784654825 26.845815784654825 26.867789782091194 26.845815784654825 26.845815784654825 26.845815784654825 26.845815784654825 26.845815784654825 26.845815784654825 26.845815784654825 26.845815784654825 26.845815784654825 26.845815784654825 26.845815784654825 26.845815784654825 26.845815784654825 26.845815784654825 26.845815784654825 26.845815784654825 26.845815784654825 26.845815784654825 26.845815784654825 26.845815784654825 26.845815784654825 26.845815784654825 26.845815784654825 26.845815784654825 26.845815784654825 26.845815784654825 26.845815784654825 26.845815784654825 26.845815784654825 26.867789782091194 26.845815784654825 26.845815784654825 26.845815784654825 26.845815784654825 26.845815784654825 26.845815784654825 26.845815784654825 26.845815784654825 26.845815784654825 26.845815784654825 26.845815784654825 26.845815784654825 26.845815784654825 26.867789782091194 26.88976377952756 26.95568577183666 27.087529756454863 27.241347738509432 27.439113715436733 27.790697674418606 28.076359641091376 28.55978758469145 28.91137154367332 29.63651345907343 30.010071415491666 30.405603369346274 30.954953305255447 31.65812122321919 31.87786119758286 32.40523713605567 32.932613074528476 33.32814502838308 33.83354696941952 34.40487090276506 35.02014283098333 35.54751876945615 36.16279069767442 36.756088628456325 37.041750595129095 37.5032045412928 38.22834645669291 38.66782640542025 39.239150338765796 39.876396264420436 40.227980223402305 41.084966123420614 41.43655008240249 41.91997802600257 42.53524995422084 42.95275590551181 43.568027833730085 44.38106573887566 44.7546236952939 45.36989562351218 45.78740157480315 46.22688152353049 47.061893426112434 47.23768540560337 48.07269730818531 48.49020325947629 49.14942318256729 49.89653909540377 50.379967039003844 51.10510895440396 51.85222486724043 52.357626808276876 53.368430690349754 53.61014466214979 54.51107855704083 54.95055850576817 55.89544039553195 56.15912836476836 56.77440029298663 57.27980223402307 57.96099615455045 58.44442409815052 59.3893059879143 60.070499908441676 60.597875846914484 61.16919978026002 61.7844717084783 62.28987364951474 63.23475553927852 63.981871452114994 64.42135140084233 65.14649331624244 65.93755722395166 66.4429591649881 67.25599707013367 67.80534700604285 68.59641091375207 69.2336568394067 69.95879875480682 70.74986266251602 71.2992125984252 72.35396447537082 72.8373924189709 73.6284563266801 74.22175425746201 74.66123420618933 75.25453213697125 76.19941402673503 76.66086797289874 77.40798388573522 77.86943783189892 78.6165537447354 79.31972166269914 79.80314960629921 80.46236952939023 81.12158945248123 81.67093938839041 82.15436733199049 82.72569126533602 83.12122321919063 83.67057315509979 84.08807910639078 84.57150704999086 85.25270097051822 85.538362937191 85.9338948910456 86.30745284746384 86.76890679362754 87.25233473722761 87.73576268082769 88.13129463468229 88.592748580846 89.0542025270097 89.58157846548252 89.77934444240981 90.43856436550082 90.94396630653726 91.29555026551914 91.80095220655558 92.28438015015564 92.67991210401026 93.07544405786486 93.42702801684673 93.86650796557407 94.26203991942867 94.54770188610145 94.87731184764695 95.33876579381067 95.47060977842887 95.53653177073797 95.62442776048343 95.71232375022889 95.73429774766527 95.73429774766527 95.73429774766527 95.71232375022889 95.66837575535617 95.53653177073797 95.36073979124703 95.07507782457425 94.74546786302875 94.26203991942867 94.02032594762865 93.73466398095587 93.42702801684673 92.94360007324666 92.67991210401026 92.28438015015564 91.99871818348288 91.66910822193738 91.20765427577368 90.54843435268266 90.15290239882806 89.60355246291888 89.16407251419155 88.76854056033693 88.15326863211865 87.66984068851858 86.9227247756821 85.9338948910456 85.4724409448819 84.98901300128182 84.54953305255447 84.15400109869987 83.53872917048159 83.09924922175426 82.44002929866325 82.00054934993591 81.29738143197216 80.66013550631753 79.93499359091741 79.51748763962644 78.66050173960812 77.91338582677164 77.47390587804432 76.96850393700788 76.46310199597144 75.84783006775316 75.40835011902581 74.96887017029849 74.39754623695293 73.8262223036074 73.38674235488006 72.77147042666178 72.17817249587988 71.56290056766161 71.12342061893426 70.50814869071598 69.8928767624977 69.47537081120674 68.86009888298847 68.42061893426111 67.82732100347921 67.25599707013367 66.86046511627907 66.2451931880608 65.73979124702436 65.32228529573338 64.81688335469694 64.4433253982787 63.95989745467863 63.432521516205824 62.927119575169385 62.37776963926021 61.93828969053287 61.38893975462369 60.75169382896905 60.114447903314414 59.718915949459806 59.08167002380517 58.66416407251419 57.85112616736861 57.235854239150335 56.9941402673503 56.356894341695664 55.89544039553195 55.03845449551364 54.62094854422267 54.24739058780443 53.698040651895255 53.192638710858816 52.863028749313315 52.423548800585976 52.11591283647684 51.41274491851309 50.86339498260392 50.42391503387658 49.786669108221936 49.32521516205823 48.55612525178539 47.78703534151254 47.259659403039734 46.57846548251236 45.87529756454862 45.39186962094854 44.6887017029848 44.16132576451199 43.655923823475554 43.08459989013001 42.733015931148145 42.20563999267533 41.59036806445706 41.23878410547519 40.93114814136605 40.71140816700238 40.447720197765975 40.140084233656836 39.920344259293174 39.524812305438566 39.19520234389306 38.95348837209302 38.57993041567478 38.31624244643838 37.96465848745651 37.59110053103827 37.3054385643655 36.953854605383626 36.536348654092656 36.272660684856255 35.89910272843802 35.45962277971068 35.19593481047427 34.7784288591833 34.49276689251053 34.075260941219554 33.61380699505585 33.064457059146676 32.5151071232375 32.20747115912837 31.89983519501923 31.262589269364586 30.889031312946347 30.51547335652811 30.14191540010987 29.8562534334371 29.526643471891596 29.306903497527927 28.97729353598242 28.823475553927853 28.669657571873284 28.47189159494598 28.208203625709576 28.010437648782275 27.74674967954587 27.505035707745833 27.329243728254898 27.197399743636698 27.10950375389123 26.97765976927303 26.88976377952756 26.779893792345725 26.67002380516389 26.60410181285479 26.538179820545686 26.494231825672955 26.42830983336385 26.38436183849112 26.38436183849112 26.38436183849112 26.38436183849112 26.38436183849112 26.38436183849112 26.38436183849112 26.38436183849112 26.38436183849112 26.38436183849112 26.38436183849112 26.38436183849112 26.38436183849112 26.38436183849112 26.38436183849112 26.36238784105475 26.38436183849112 26.36238784105475 26.36238784105475 26.36238784105475 26.340413843618386 26.340413843618386 26.340413843618386 26.340413843618386 26.340413843618386 26.340413843618386 26.340413843618386 26.340413843618386 26.340413843618386 26.340413843618386 26.340413843618386 26.340413843618386 26.340413843618386 26.318439846182017 26.340413843618386 26.340413843618386 26.340413843618386 26.340413843618386 26.340413843618386 26.340413843618386 26.340413843618386 26.340413843618386 26.340413843618386 26.340413843618386 26.318439846182017 26.340413843618386 26.340413843618386 26.340413843618386 26.340413843618386 26.340413843618386 26.340413843618386 26.340413843618386 26.340413843618386 26.340413843618386 26.340413843618386 26.340413843618386 26.340413843618386 26.318439846182017 26.318439846182017 26.318439846182017 26.318439846182017 26.318439846182017 26.318439846182017 26.340413843618386 26.318439846182017 26.318439846182017 26.340413843618386 26.318439846182017 26.340413843618386 26.318439846182017 26.340413843618386 26.318439846182017 26.340413843618386 26.340413843618386 26.318439846182017 26.318439846182017 26.340413843618386 26.340413843618386 26.318439846182017 26.318439846182017 26.340413843618386 26.340413843618386 26.340413843618386 26.340413843618386 26.340413843618386 26.340413843618386 26.340413843618386 26.340413843618386 26.340413843618386 26.340413843618386 26.340413843618386 26.340413843618386 26.340413843618386 26.340413843618386 26.340413843618386 26.340413843618386 26.340413843618386 26.340413843618386 26.340413843618386 26.340413843618386 26.340413843618386 26.340413843618386 26.340413843618386 26.340413843618386 26.340413843618386 26.340413843618386 26.340413843618386 26.340413843618386 26.340413843618386 26.340413843618386 26.340413843618386 26.340413843618386 26.340413843618386 26.340413843618386 26.340413843618386 26.340413843618386 26.340413843618386 26.340413843618386 26.340413843618386 26.340413843618386 26.340413843618386 26.340413843618386 26.340413843618386 26.340413843618386 26.340413843618386 26.340413843618386 26.340413843618386 26.340413843618386 26.340413843618386 26.340413843618386 26.340413843618386 26.340413843618386 26.340413843618386 26.340413843618386 26.340413843618386 26.340413843618386 26.340413843618386 26.340413843618386 26.340413843618386 26.340413843618386 26.340413843618386 26.340413843618386 26.340413843618386 26.340413843618386 26.340413843618386 26.340413843618386 26.340413843618386 26.340413843618386 26.340413843618386 26.340413843618386 26.340413843618386 26.340413843618386 26.340413843618386 26.340413843618386 26.340413843618386 26.340413843618386 26.340413843618386 26.340413843618386 26.340413843618386 26.340413843618386 26.340413843618386 26.340413843618386 26.340413843618386 26.340413843618386 26.340413843618386 26.340413843618386 26.340413843618386 26.340413843618386 26.340413843618386 26.340413843618386 26.340413843618386 26.340413843618386 26.340413843618386 26.340413843618386 26.340413843618386 26.340413843618386 26.318439846182017 26.340413843618386 26.340413843618386 26.318439846182017 26.340413843618386 26.340413843618386 26.340413843618386 26.318439846182017 26.340413843618386 26.340413843618386 26.340413843618386 26.340413843618386 26.340413843618386 26.340413843618386 26.36238784105475 26.36238784105475 26.38436183849112 26.406335835927486 26.406335835927486 26.45028383080022 26.494231825672955 26.58212781541842 26.626075810291155 26.80186778978209 26.933711774400294 27.02160776414576 27.17542574620033 27.329243728254898 27.505035707745833 27.87859366416407 28.09833363852774 28.49386559238235 28.75755356161875 29.065189525727888 29.76835744369163 30.20783739241897 30.779161325764512 31.41640725141915 31.89983519501923 32.62497711041934 33.196301043764876 34.09723493865592 34.60263687969236 35.06409082585607 35.65738875663798 36.426478666910825 36.712140633583594 37.129646584874564 37.635048525911 37.96465848745651 38.38216443874748 38.71177440029299 39.34902032594763 39.810474272111335 40.227980223402305 40.73338216443875 41.19483611060245 42.05182201062077 42.53524995422084 42.996703900384546 43.633949826039185 44.02948177989379 44.6887017029848 45.54568760300312 45.78740157480315 46.490569492766895 47.215711408167 47.76506134407617 48.51217725691265 49.369163156930966 50.116279069767444 51.17103094671306 51.7423548800586 52.291704815967776 52.797106757004215 53.434352682658854 54.137520600622594 54.5989745467863 55.30214246475005 56.22505035707746 56.840322285295734 57.34572422633217 58.04889214429592 58.29060611609595 58.97180003662333 59.433253982787036 60.114447903314414 60.81761582127815 61.38893975462369 61.96026368796924 62.39974363669658 62.773301593114816 63.212781541842155 63.718183482878594 64.20161142647866 64.641091375206 65.12451931880608 65.49807727522432 65.91558322651528 66.13532320087896 66.7725691265336 67.29994506500641 68.02508698040651 68.46456692913387 68.90404687786119 69.2995788317158 69.73905878044314 70.17853872917048 70.8377586522615 71.2332906061161 71.84856253433438 72.48580845998902 72.94726240615272 73.78227430873466 74.24372825489837 74.68320820362571 75.25453213697125 75.67203808826221 76.28731001648049 77.0783739241897 77.49587987548068 78.04522981138985 78.50668375755356 79.16590368064458 79.49551364219008 79.84709760117195 80.35249954220839 80.83592748580847 81.20948544222671 81.82475737044497 82.06647134224502 82.59384728071782 82.87950924739059 83.40688518586339 83.71452114997254 84.0661051089544 84.35176707562718 84.74729902948178 84.96703900384546 85.25270097051822 85.49441494231826 85.75810291155466 86.04376487822742 86.08771287310017 86.35140084233657 86.50521882439114 86.6590368064457 86.85680278337301 87.07654275773669 87.23036073979125 87.45010071415491 87.66984068851858 87.84563266800953 88.26313861930049 88.43893059879144 88.68064457059147 89.01025453213697 89.20802050906427 89.47170847830067 89.73539644753708 89.84526643471892 89.91118842702802 89.95513642190075 89.97711041933712 89.97711041933712 89.95513642190075 89.91118842702802 89.69144845266435 89.49368247573705 89.14209851675518 88.8564365500824 88.30708661417323 87.86760666544589 87.49404870902765 86.83482878593665 86.19758286028201 85.62625892693646 85.09888298846366 84.70335103460906 84.3297930781908 83.71452114997254 83.29701519868156 82.79161325764511 82.30818531404505 81.80278337300861 81.29738143197216 80.98974546786303 80.68210950375389 80.24262955502655 79.56143563449919 79.09998168833548 78.94616370628091 78.44076176524446 77.93535982420804 77.53982787035342 77.05639992675334 76.50704999084417 76.13349203442593 75.60611609595313 75.21058414209853 74.66123420618933 73.8921442959165 73.47463834462553 73.05713239333456 72.50778245742538 72.0243545138253 71.4310565830434 71.01355063175242 70.28840871635232 69.7610327778795 69.38747482146127 69.01391686504303 68.55246291887933 68.02508698040651 67.51968503937007 67.12415308551547 66.5748031496063 66.04742721113348 65.65189525727888 65.12451931880608 64.53122138802416 64.1137154367332 63.542391503387655 63.124885552096686 62.53158762131478 61.9822376854056 61.49880974180553 60.90551181102362 60.597875846914484 60.26826588536898 59.69694195202344 59.3893059879143 59.1256180186779 58.57626808276872 58.29060611609595 57.89507416224135 57.65336019044131 57.27980223402307 56.884270280168465 56.598608313495696 56.181102362204726 55.78557040835012 55.34609045962278 55.01648049807727 54.75279252884087 54.31331258011353 53.829884636513455 53.52224867240432 53.03882072880425 52.51144479033144 52.11591283647684 51.6764328877495 51.30287493133126 50.75352499542208 50.248123054385644 49.76469511078557 49.2812671671855 48.81981322102179 48.49020325947629 48.05072331074895 47.87493133125801 47.36952939022157 47.017945431239696 46.73228346456693 46.358725508148694 46.00714154916682 45.78740157480315 45.50173960813038 45.30397363120308 45.04028566196667 44.79857169016664 44.6227797106757 44.38106573887566 44.073429774766524 43.897637795275585 43.633949826039185 43.54605383629372 43.238417872184584 42.95275590551181 42.62314594396631 42.31550997985717 42.0298480131844 41.61234206189343 41.43655008240249 41.21681010803882 40.99707013367515 40.71140816700238 40.469694195202344 40.162058231093205 39.788500274674966 39.524812305438566 38.99743636696576 38.68980040285662 38.38216443874748 38.00860648232924 37.7009705182201 37.261490569492764 36.843984618201794 36.22871268998352 35.921076725874386 35.59146676432888 35.28383080021974 34.99816883354697 34.7125068668742 34.27302691814686 34.009338948910454 33.767624977110415 33.459989013001284 33.262223036073976 32.97656106940121 32.66892510529207 32.42721113349204 32.07562717451016 31.87786119758286 31.52627723860099 31.196667277055482 30.998901300128182 30.647317341146312 30.36165537447354 30.185863394982604 29.9221754257462 29.76835744369163 29.54861746932796 29.240981505218826 29.087163523164257 28.91137154367332 28.75755356161875 28.55978758469145 28.362021607764145 28.18622962827321 27.988463651345906 27.768723676982237 27.614905694927668 27.395165720564 27.219373741073063 27.131477751327594 27.065555759018494 27.02160776414576 26.95568577183666 26.911737776963925 26.867789782091194 26.82384178721846 26.757919794909355 26.73594579747299 26.67002380516389 26.626075810291155 26.560153817982055 26.538179820545686 26.494231825672955 26.45028383080022 26.45028383080022 26.42830983336385 26.42830983336385 26.406335835927486 26.406335835927486 26.38436183849112 26.36238784105475 26.36238784105475 26.340413843618386 26.36238784105475 26.340413843618386 26.340413843618386 26.340413843618386 26.340413843618386 26.340413843618386 26.340413843618386 26.340413843618386 26.318439846182017 26.340413843618386 26.340413843618386 26.340413843618386 26.340413843618386 26.318439846182017 26.340413843618386 26.340413843618386 26.340413843618386 26.340413843618386 26.340413843618386 26.318439846182017 26.318439846182017 26.318439846182017 26.318439846182017 26.318439846182017 26.318439846182017 26.318439846182017 26.318439846182017 26.318439846182017 26.318439846182017 26.318439846182017 26.318439846182017 26.318439846182017 26.318439846182017 26.318439846182017 26.318439846182017 26.318439846182017 26.318439846182017 26.318439846182017 26.318439846182017 26.318439846182017 26.318439846182017 26.318439846182017 26.29646584874565 26.318439846182017 26.29646584874565 26.318439846182017 26.318439846182017 26.318439846182017 26.318439846182017 26.318439846182017 26.29646584874565 26.29646584874565 26.29646584874565 26.29646584874565 26.29646584874565 26.29646584874565 26.29646584874565 26.29646584874565 26.29646584874565 26.29646584874565 26.29646584874565 26.29646584874565 26.29646584874565 26.29646584874565 26.29646584874565 26.29646584874565 26.29646584874565 26.29646584874565 26.29646584874565 26.29646584874565 26.29646584874565 26.29646584874565 26.318439846182017 26.29646584874565 26.29646584874565 26.29646584874565 26.29646584874565 26.29646584874565 26.29646584874565 26.29646584874565 26.29646584874565 26.29646584874565 26.318439846182017 26.29646584874565 26.29646584874565 26.29646584874565 26.318439846182017 26.29646584874565 26.29646584874565 26.29646584874565 26.29646584874565 26.29646584874565 26.29646584874565 26.29646584874565 26.29646584874565 26.29646584874565 26.29646584874565 26.29646584874565 26.29646584874565 26.318439846182017 26.29646584874565 26.29646584874565 26.29646584874565 26.29646584874565 26.29646584874565 26.29646584874565 26.318439846182017 26.29646584874565 26.29646584874565 26.318439846182017 26.29646584874565 26.29646584874565 26.29646584874565 26.318439846182017 26.318439846182017 26.318439846182017 26.318439846182017 26.318439846182017 26.318439846182017 26.318439846182017 26.318439846182017 26.318439846182017 26.318439846182017 26.318439846182017 26.318439846182017 26.318439846182017 26.318439846182017 26.318439846182017 26.318439846182017 26.318439846182017 26.318439846182017 26.318439846182017 26.318439846182017 26.318439846182017 26.318439846182017 26.318439846182017 26.318439846182017 26.318439846182017 26.318439846182017 26.318439846182017 26.318439846182017 26.29646584874565 26.318439846182017 26.318439846182017 26.318439846182017 26.318439846182017 26.318439846182017 26.318439846182017 26.318439846182017 26.318439846182017 26.318439846182017 26.340413843618386 26.340413843618386 26.340413843618386 26.340413843618386 26.36238784105475 26.38436183849112 26.406335835927486 26.406335835927486 26.42830983336385 26.45028383080022 26.472257828236586 26.51620582310932 26.60410181285479 26.691997802600255 26.911737776963925 27.197399743636698 27.527009705182202 27.856619666727706 28.09833363852774 28.55978758469145 28.84544955136422 29.394799487273392 29.790331441127996 30.559421351400843 30.976927302691813 31.65812122321919 32.20747115912837 32.712873100164806 33.503937007874015 34.05328694378319 34.66855887200147 35.39370078740157 35.87712873100165 36.558322651529025 37.019776597692726 37.72294451565647 38.27229445156565 38.71177440029299 39.34902032594763 40.27192821827504 40.82127815418421 41.32668009522065 41.76616004394799 42.1616919978026 42.62314594396631 43.194469877311846 43.80974180553012 44.205273759384724 44.79857169016664 45.45779161325764 45.919245559421356 46.556491485075995 47.23768540560337 47.74308734663981 48.44625526460355 49.2812671671855 49.69877311847647 50.48983702618568 51.01721296465848 51.72038088262223 52.44552279802234 52.97289873649515 53.74198864676799 54.51107855704083 55.32411646218641 56.09320637245926 56.64255630836843 57.235854239150335 58.00494414942318 58.79600805713239 59.60904596227797 60.158395898187145 60.92748580845999 61.69657571873283 62.26789965207837 63.058963559787585 63.74015748031496 64.26753341878776 64.92675334187878 65.38820728804248 66.1133492034426 66.94836110602454 67.43178904962461 68.13495696758835 68.57443691631569 69.05786485991577 69.78300677531587 70.35433070866142 71.25526460355246 71.95843252151622 72.46383446255265 73.18897637795277 73.65043032411646 74.15583226515291 75.05676616004395 75.51822010620765 76.11151803698957 76.72678996520784 77.1442959164988 77.62772386009888 77.97930781908076 78.50668375755356 78.8802417139718 79.16590368064458 79.56143563449919 79.93499359091741 80.33052554477202 80.85790148324483 81.12158945248123 81.56106940120857 81.73686138069951 82.04449734480863 82.63779527559055 83.23109320637246 83.38491118842703 83.84636513459074 84.04413111151804 84.59348104742722 85.03296099615454 85.3405969602637 85.75810291155466 86.21955685771837 86.50521882439114 86.9227247756821 87.20838674235489 87.62589269364585 88.21919062442777 88.32906061160959 88.7245925654642 89.22999450650065 89.42776048342795 89.86724043215528 90.10895440395532 90.328694378319 90.61435634499176 90.83409631935542 91.0538362937191 91.1856802783373 91.3175242629555 91.42739425013734 91.49331624244644 91.53726423731918 91.53726423731918 91.53726423731918 91.53726423731918 91.53726423731918 91.53726423731918 91.51529023988282 91.51529023988282 91.47134224501008 91.33949826039188 91.20765427577368 91.00988829884636 90.74620032960996 90.57040835011902 90.39461637062809 90.08698040651895 89.88921442959166 89.53763047060978 89.20802050906427 88.87841054751877 88.63669657571873 88.32906061160959 87.99945065006409 87.75773667826405 87.36220472440945 86.87877678080937 86.74693279619117 86.32942684490021 86.04376487822742 85.56033693462736 84.87914301409998 84.50558505768174 84.08807910639078 83.64859915766343 83.23109320637246 82.61582127815419 82.00054934993591 81.38527742171763 80.77000549349935 80.35249954220839 79.89104559604468 79.09998168833548 78.63852774217176 77.97930781908076 77.47390587804432 76.90258194469877 76.26533601904413 75.84783006775316 75.25453213697125 74.77110419337117 74.00201428309833 73.4966123420619 72.90331441127998 72.35396447537082 71.38710858817066 70.8377586522615 70.22248672404322 69.78300677531587 69.07983885735213 68.7062809009339 68.31074894707929 67.54165903680644 66.99230910089727 66.5748031496063 66.22321919062443 65.91558322651528 65.49807727522432 64.92675334187878 64.70701336751512 64.3774034059696 63.981871452114994 63.718183482878594 63.366599523896724 63.058963559787585 62.81724958798755 62.50961362387841 62.22395165720564 61.93828969053287 61.586705731551 61.38893975462369 60.90551181102362 60.68577183665995 60.312213880241714 59.916681926387106 59.41127998535067 59.0596960263688 58.40047610327779 57.63138619300494 57.45559421351401 57.14795824940487 56.532686321186596 55.96136238784105 55.56583043398645 55.01648049807727 54.5330525544772 54.18146859549533 53.654092657022524 53.258560703167916 52.70921076725874 52.1378868339132 51.7423548800586 51.28090093389489 50.81944698773118 50.46786302874931 49.984435085149244 49.69877311847647 49.45705914667643 49.06152719282183 48.60007324665812 48.09467130562168 47.63321735945797 47.259659403039734 46.73228346456693 46.44662149789416 45.96319355429409 45.47976561069402 45.12818165171214 44.6887017029848 44.205273759384724 43.85368980040286 43.414209851675515 43.062625892693646 42.55722395165721 41.81010803882073 41.56839406702069 41.15088811572972 40.447720197765975 40.052188243911374 39.5687603003113 39.19520234389306 38.88756637978392 38.40413843618385 37.98663248489288 37.59110053103827 37.28346456692913 36.997802600256364 36.73411463101996 36.536348654092656 36.20673869254715 35.85515473356528 35.61344076176525 35.28383080021974 35.02014283098333 34.62461087712873 34.11920893609229 33.657754989928584 33.32814502838308 32.97656106940121 32.646951107855706 32.29536714887384 31.833913202710125 31.394433253982786 30.976927302691813 30.691265336019043 30.405603369346274 30.054019410364404 29.76835744369163 29.438747482146127 29.240981505218826 28.91137154367332 28.581761582127815 28.38399560520051 28.12030763596411 27.856619666727706 27.636879692364037 27.439113715436733 27.351217725691264 27.263321735945798 27.219373741073063 27.153451748763963 27.153451748763963 27.153451748763963 27.153451748763963 27.153451748763963 27.131477751327594 27.131477751327594 27.131477751327594 27.131477751327594 27.087529756454863 27.10950375389123 27.087529756454863 27.04358176158213 27.02160776414576 26.95568577183666 26.88976377952756 26.867789782091194 26.80186778978209 26.73594579747299 26.691997802600255 26.626075810291155 26.58212781541842 26.538179820545686 26.494231825672955 26.472257828236586 26.472257828236586 26.472257828236586 26.45028383080022 26.45028383080022 26.42830983336385 26.406335835927486 26.406335835927486 26.406335835927486 26.406335835927486 26.406335835927486 26.38436183849112 26.38436183849112 26.38436183849112 26.38436183849112 26.38436183849112 26.38436183849112 26.36238784105475 26.36238784105475 26.36238784105475 26.340413843618386 26.340413843618386 26.340413843618386 26.340413843618386 26.340413843618386 26.340413843618386 26.340413843618386 26.340413843618386 26.340413843618386 26.340413843618386 26.340413843618386 26.340413843618386 26.340413843618386 26.340413843618386 26.340413843618386 26.340413843618386 26.340413843618386 26.340413843618386 26.340413843618386 26.340413843618386 26.340413843618386 26.340413843618386 26.340413843618386 26.340413843618386 26.318439846182017 26.318439846182017 26.318439846182017 26.340413843618386 26.318439846182017 26.318439846182017 26.318439846182017 26.318439846182017 26.318439846182017 26.318439846182017 26.318439846182017 26.318439846182017 26.318439846182017 26.318439846182017 26.318439846182017 26.318439846182017 26.318439846182017 26.318439846182017 26.318439846182017 26.318439846182017 26.318439846182017 26.318439846182017 26.318439846182017 26.318439846182017 26.318439846182017 26.318439846182017 26.318439846182017 26.318439846182017 26.318439846182017 26.318439846182017 26.318439846182017 26.318439846182017 26.318439846182017 26.318439846182017 26.318439846182017 26.318439846182017 26.318439846182017 26.318439846182017 26.318439846182017 26.318439846182017 26.318439846182017 26.318439846182017 26.318439846182017 26.318439846182017 26.318439846182017 26.318439846182017 26.318439846182017 26.318439846182017 26.318439846182017 26.318439846182017 26.318439846182017 26.318439846182017 26.318439846182017 26.318439846182017 26.318439846182017 26.318439846182017 26.318439846182017 26.318439846182017 26.29646584874565 26.318439846182017 26.318439846182017 26.29646584874565 26.29646584874565 26.29646584874565 26.29646584874565 26.318439846182017 26.318439846182017 26.318439846182017 26.318439846182017 26.318439846182017 26.29646584874565 26.29646584874565 26.318439846182017 26.29646584874565 26.29646584874565 26.318439846182017 26.318439846182017 26.318439846182017 26.318439846182017 26.318439846182017 26.318439846182017 26.318439846182017 26.318439846182017 26.318439846182017 26.318439846182017 26.318439846182017 26.318439846182017 26.318439846182017 26.318439846182017 26.318439846182017 26.318439846182017 26.318439846182017 26.318439846182017 26.318439846182017 26.318439846182017 26.318439846182017 26.318439846182017 26.318439846182017 26.29646584874565 26.318439846182017 26.318439846182017 26.318439846182017 26.318439846182017 26.29646584874565 26.29646584874565 26.318439846182017 26.29646584874565 26.29646584874565 26.318439846182017 26.29646584874565 26.29646584874565 26.318439846182017 26.318439846182017 26.318439846182017 26.29646584874565 26.318439846182017 26.29646584874565 26.29646584874565 26.29646584874565 26.29646584874565 26.29646584874565 26.29646584874565 26.29646584874565 26.29646584874565 26.29646584874565 26.29646584874565 26.29646584874565 26.29646584874565 26.29646584874565 26.29646584874565 26.29646584874565 26.29646584874565 26.29646584874565 26.318439846182017 26.318439846182017 26.318439846182017 26.340413843618386 26.36238784105475 26.42830983336385 26.45028383080022 26.560153817982055 26.73594579747299 26.97765976927303 27.461087712873102 27.768723676982237 28.09833363852774 28.823475553927853 29.306903497527927 29.878227430873466 30.537447353964474 31.262589269364586 32.03167917963743 32.62497711041934 33.350119025819446 34.075260941219554 34.60263687969236 35.28383080021974 35.78923274125618 36.470426661783556 37.129646584874564 37.61307452847464 38.29426844900202 38.99743636696576 39.4369163156931 40.118110236220474 40.79930415674785 41.32668009522065 42.0957700054935 42.55722395165721 43.040651895257284 44.11737776963926 44.64475370811206 45.06225965940304 45.43581761582128 45.87529756454862 46.534517487639626 46.995971433803334 47.72111334920344 48.29243728254899 48.75389122871269 49.4131111518037 49.91851309284014 50.599707013367514 51.32484892876762 51.7423548800586 52.423548800585976 53.302508698040654 53.763962644204355 54.18146859549533 54.81871452114997 55.45596044680461 56.02728438015016 56.422816334004764 57.016114264786665 57.41164621864127 57.96099615455045 58.51034609045962 59.0596960263688 59.47720197765977 60.004577916132575 60.378135872550814 60.90551181102362 61.41091375206006 61.76249771104193 62.26789965207837 62.64145760849661 63.23475553927852 63.981871452114994 64.3774034059696 65.12451931880608 65.54202527009704 65.93755722395166 66.28914118293352 66.68467313678813 67.23402307269731 67.78337300860647 68.15693096502471 68.72825489837027 69.07983885735213 69.4973448086431 70.26643471891595 70.68394067020692 71.21131660867974 71.82658853689802 72.26606848562534 72.8373924189709 73.29884636513458 73.8262223036074 74.41952023438931 74.77110419337117 75.32045412928035 75.8258560703168 76.37520600622597 76.8806079472624 77.16626991393517 77.49587987548068 77.9573338216444 78.2869437831899 78.90221571140816 79.31972166269914 79.62735762680828 80.04486357809925 80.30855154733565 80.68210950375389 81.05566746017213 81.29738143197216 81.64896539095403 81.89067936275407 82.08844533968139 82.33015931148142 82.48397729353599 82.68174327046329 82.90148324482695 83.05530122688153 83.36293719099066 83.62662516022706 83.78044314228164 84.08807910639078 84.28584508331807 84.50558505768174 84.90111701153634 85.27467496795458 85.71415491668193 86.10968687053654 86.3953488372093 86.7908807910639 87.03259476286395 87.40615271928218 87.82365867057317 87.97747665262773 88.24116462186413 88.4609045962278 88.7245925654642 88.94433253982787 89.09815052188245 89.22999450650065 89.29591649880975 89.36183849111885 89.38381248855521 89.40578648599158 89.38381248855521 89.40578648599158 89.38381248855521 89.38381248855521 89.38381248855521 89.33986449368247 89.27394250137338 89.14209851675518 88.9223585423915 88.7245925654642 88.57077458340964 88.39498260391869 88.15326863211865 87.91155466031863 87.62589269364585 87.38417872184581 87.01062076542757 86.41732283464567 86.06573887566381 85.8020509064274 85.538362937191 85.25270097051822 84.90111701153634 84.46163706280902 83.97820911920894 83.53872917048159 83.2091192089361 82.72569126533602 82.24226332173595 81.91265336019043 81.23145943966307 80.85790148324483 80.28657754989928 79.95696758835379 79.60538362937191 78.96813770371728 78.46273576268084 78.00128181651712 77.47390587804432 77.0783739241897 76.4850759934078 75.71598608313496 75.32045412928035 74.77110419337117 74.30965024720747 73.91411829335286 73.38674235488006 72.74949642922542 72.1561984984435 71.56290056766161 71.14539461637062 70.48617469327962 70.26643471891595 69.4973448086431 68.90404687786119 68.50851492400659 67.95916498809743 67.38784105475187 67.03625709577 66.48690715986083 66.1133492034426 65.54202527009704 65.08057132393334 64.46529939571508 64.00384544955136 63.322651529023986 63.124885552096686 62.31184764695111 61.80644570591467 61.41091375206006 60.92748580845999 60.55392785204175 60.04852591100531 59.41127998535067 59.08167002380517 58.59824208020509 58.26863211865959 57.76323017762314 57.27980223402307 56.950192272477565 56.488738326313864 55.96136238784105 55.60977842885919 55.17029848013185 54.88463651345907 54.48910455960447 53.851858633949824 53.698040651895255 53.456326680095216 53.14869071598608 52.906976744186046 52.31367881340414 52.1378868339132 51.89617286211316 51.63248489287676 51.23695293902216 50.84142098516755 50.445889031312944 50.204175059512906 49.786669108221936 49.43508514924007 49.12744918513093 48.64402124153085 48.11664530305805 47.72111334920344 47.23768540560337 46.820179454312395 45.985167551730456 45.58963559787585 45.17212964658488 44.6227797106757 44.24922175425746 43.787767808093754 43.326313861930046 42.95275590551181 42.68906793627541 42.35945797472991 41.91997802600257 41.61234206189343 41.39260208752975 41.19483611060245 40.97509613623878 40.667460172129644 40.315876213147774 40.030214246475005 39.678630287493135 39.28309833363853 39.01941036440212 38.60190441311115 38.25032045412928 37.92071049258378 37.393334554110965 37.1076725874382 36.843984618201794 36.44845266434719 36.14081670023805 35.74528474638345 35.32777879509247 34.9102728438015 34.47079289507416 34.09723493865592 33.767624977110415 33.350119025819446 32.712873100164806 32.3832631386193 32.0536531770738 31.548251236037355 31.064823292437282 30.735213330891778 30.185863394982604 29.878227430873466 29.63651345907343 29.284929500091557 29.043215528291523 28.71360556674602 28.55978758469145 28.362021607764145 28.16425563083684 28.03241164621864 27.87859366416407 27.658853689800402 27.417139718000367 27.351217725691264 27.285295733382164 27.219373741073063 27.153451748763963 27.087529756454863 27.04358176158213 26.999633766709394 26.97765976927303 26.933711774400294 26.88976377952756 26.845815784654825 26.80186778978209 26.757919794909355 26.691997802600255 26.626075810291155 26.538179820545686 26.45028383080022 26.340413843618386 26.252517853872916 26.098699871818347 26.032777879509247 25.944881889763778 25.813037905145578 25.791063907709212 25.72514191540011 25.65921992309101 25.615271928218274 25.593297930781908 25.593297930781908 25.615271928218274 25.593297930781908 25.593297930781908 25.593297930781908 25.571323933345543 25.571323933345543 25.571323933345543 25.571323933345543 25.571323933345543 25.571323933345543 25.571323933345543 25.549349935909174 25.549349935909174 25.549349935909174 25.549349935909174 25.549349935909174 25.549349935909174 25.549349935909174 25.549349935909174 25.527375938472808 25.527375938472808 25.527375938472808 25.527375938472808 25.527375938472808 25.50540194103644 25.527375938472808 25.50540194103644 25.527375938472808 25.527375938472808 25.50540194103644 25.50540194103644 25.50540194103644 25.50540194103644 25.50540194103644 25.483427943600073 25.483427943600073 25.483427943600073 25.483427943600073 25.483427943600073 25.461453946163708 25.461453946163708 25.461453946163708 25.461453946163708 25.461453946163708 25.461453946163708 25.461453946163708 25.461453946163708 25.461453946163708 25.461453946163708 25.461453946163708 25.461453946163708 25.461453946163708 25.461453946163708 25.461453946163708 25.461453946163708 25.461453946163708 25.43947994872734 25.461453946163708 25.461453946163708 25.461453946163708 25.461453946163708 25.461453946163708 25.461453946163708 25.461453946163708 25.461453946163708 25.461453946163708 25.461453946163708 25.461453946163708 25.461453946163708 25.461453946163708 25.461453946163708 25.461453946163708 25.461453946163708 25.461453946163708 25.461453946163708 25.461453946163708 25.461453946163708 25.461453946163708 25.461453946163708 25.461453946163708 25.461453946163708 25.461453946163708 25.461453946163708 25.461453946163708 25.461453946163708 25.461453946163708 25.461453946163708 25.461453946163708 25.461453946163708 25.43947994872734 25.461453946163708 25.461453946163708 25.461453946163708 25.461453946163708 25.461453946163708 25.461453946163708 25.461453946163708 25.461453946163708 25.43947994872734 25.461453946163708 25.461453946163708 25.43947994872734 25.461453946163708 25.43947994872734 25.43947994872734 25.43947994872734 25.43947994872734 25.43947994872734 25.43947994872734 25.461453946163708 25.461453946163708 25.43947994872734 25.43947994872734 25.43947994872734 25.43947994872734 25.43947994872734 25.43947994872734 25.43947994872734 25.43947994872734 25.43947994872734 25.43947994872734 25.43947994872734 25.43947994872734 25.43947994872734 25.43947994872734 25.43947994872734 25.43947994872734 25.43947994872734 25.43947994872734 25.43947994872734 25.43947994872734 25.43947994872734 25.43947994872734 25.43947994872734 25.43947994872734 25.43947994872734 25.43947994872734 25.43947994872734 25.43947994872734 25.43947994872734 25.43947994872734 25.43947994872734 25.43947994872734 25.43947994872734 25.43947994872734 25.43947994872734 25.43947994872734 25.43947994872734 25.43947994872734 25.43947994872734 25.43947994872734 25.43947994872734 25.43947994872734 25.43947994872734 25.43947994872734 25.43947994872734 25.43947994872734 25.43947994872734 25.43947994872734 25.43947994872734 25.43947994872734 25.43947994872734 25.43947994872734 25.43947994872734 25.43947994872734 25.43947994872734 25.43947994872734 25.43947994872734 25.43947994872734 25.461453946163708 25.43947994872734 25.43947994872734 25.43947994872734 25.43947994872734 25.461453946163708 25.43947994872734 25.461453946163708 25.43947994872734 25.43947994872734 25.461453946163708 25.43947994872734 25.43947994872734 25.43947994872734 25.461453946163708 25.43947994872734 25.43947994872734 25.43947994872734 25.43947994872734 25.461453946163708 25.461453946163708 25.461453946163708 25.461453946163708 25.43947994872734 25.43947994872734 25.461453946163708 25.461453946163708 25.461453946163708 25.461453946163708 25.461453946163708 25.461453946163708 25.461453946163708 25.461453946163708 25.461453946163708 25.461453946163708 25.43947994872734 25.461453946163708 25.461453946163708 25.461453946163708 25.461453946163708 25.461453946163708 25.461453946163708 25.461453946163708 25.461453946163708 25.461453946163708 25.461453946163708 25.461453946163708 25.461453946163708 25.461453946163708 25.461453946163708 25.461453946163708 25.461453946163708 25.461453946163708 25.461453946163708 25.461453946163708 25.461453946163708 25.461453946163708 25.461453946163708 25.461453946163708 25.461453946163708 25.461453946163708 25.461453946163708 25.461453946163708 25.461453946163708 25.461453946163708 25.43947994872734 25.461453946163708 25.461453946163708 25.461453946163708 25.461453946163708 25.461453946163708 25.461453946163708 25.43947994872734 25.461453946163708 25.43947994872734 25.461453946163708 25.461453946163708 25.461453946163708 25.43947994872734 25.461453946163708 25.461453946163708 25.461453946163708 25.461453946163708 25.461453946163708 25.461453946163708 25.461453946163708 25.461453946163708 25.461453946163708 25.461453946163708 25.43947994872734 25.43947994872734 25.461453946163708 25.461453946163708 25.461453946163708 25.461453946163708 25.43947994872734 25.461453946163708 25.43947994872734 25.43947994872734 25.43947994872734 25.43947994872734 25.43947994872734 25.43947994872734 25.43947994872734 25.43947994872734 25.43947994872734 25.43947994872734 25.43947994872734 25.43947994872734 25.43947994872734 25.417505951290973 25.417505951290973 25.417505951290973 25.417505951290973 25.43947994872734 25.417505951290973 25.43947994872734 25.417505951290973 25.417505951290973 25.417505951290973 25.417505951290973 25.417505951290973 25.417505951290973 25.417505951290973 25.417505951290973 25.43947994872734 25.417505951290973 25.417505951290973 25.417505951290973 25.417505951290973 25.417505951290973 25.417505951290973 25.417505951290973 25.417505951290973 25.417505951290973 25.417505951290973 25.417505951290973 25.417505951290973 25.43947994872734 25.417505951290973 25.417505951290973 25.417505951290973 25.43947994872734 25.43947994872734 25.43947994872734 25.417505951290973 25.43947994872734 25.43947994872734 25.43947994872734 25.43947994872734 25.43947994872734 25.43947994872734 25.43947994872734 25.43947994872734 25.43947994872734 25.43947994872734 25.43947994872734 25.43947994872734 25.43947994872734 25.43947994872734 25.43947994872734 25.43947994872734 25.43947994872734 25.43947994872734 25.43947994872734 25.43947994872734 25.43947994872734 25.43947994872734 25.43947994872734 25.43947994872734 25.43947994872734 25.43947994872734 25.43947994872734 25.43947994872734 25.43947994872734 25.43947994872734 25.43947994872734 25.43947994872734 25.43947994872734 25.43947994872734 25.43947994872734 25.43947994872734 25.43947994872734 25.43947994872734 25.43947994872734 25.43947994872734 25.43947994872734 25.43947994872734 25.43947994872734 25.43947994872734 25.43947994872734 25.43947994872734 25.43947994872734 25.43947994872734 25.43947994872734 25.43947994872734 25.43947994872734 25.43947994872734 25.43947994872734 25.43947994872734 25.43947994872734 25.43947994872734 25.43947994872734 25.43947994872734 25.43947994872734 25.43947994872734 25.43947994872734 25.43947994872734 25.43947994872734 25.417505951290973 25.43947994872734 25.43947994872734 25.43947994872734 25.43947994872734 25.43947994872734 25.43947994872734 25.43947994872734 25.43947994872734 25.43947994872734 25.417505951290973 25.43947994872734 25.43947994872734 25.43947994872734 25.43947994872734 25.43947994872734 25.417505951290973 25.417505951290973 25.417505951290973 25.417505951290973 25.417505951290973 25.417505951290973 25.417505951290973 25.417505951290973 25.417505951290973 25.417505951290973 25.417505951290973 