29.0 29.0 29.0 29.0 29.0 29.0 29.0 29.0 29.0 28.969236403589086 29.0 28.969236403589086 29.0 29.0 29.0 29.0 29.0 29.0 29.0 28.969236403589086 28.969236403589086 28.969236403589086 29.0 29.0 29.0 29.0 29.0 29.0 28.969236403589086 29.0 29.0 28.969236403589086 28.969236403589086 29.0 28.969236403589086 28.969236403589086 29.0 29.0 28.969236403589086 28.969236403589086 29.0 29.0 29.0 28.969236403589086 29.0 29.0 29.0 29.0 29.0 29.0 28.969236403589086 29.0 29.0 29.0 29.0 29.0 29.0 28.969236403589086 29.0 29.0 29.0 28.969236403589086 29.0 28.969236403589086 28.969236403589086 29.0 29.0 29.0 29.0 28.969236403589086 29.0 29.0 28.969236403589086 28.969236403589086 29.0 28.969236403589086 29.0 29.0 28.969236403589086 29.0 28.969236403589086 29.0 28.969236403589086 28.969236403589086 28.969236403589086 29.0 29.0 29.0 29.0 29.0 29.0 29.0 29.0 29.0 29.0 29.0 29.0 29.0 29.0 28.969236403589086 29.0 29.0 29.0 28.969236403589086 29.0 28.969236403589086 29.0 29.0 28.969236403589086 28.969236403589086 29.0 28.969236403589086 29.0 29.0 29.0 29.0 29.0 29.0 29.0 28.969236403589086 29.0 29.0 29.0 29.0 28.969236403589086 28.969236403589086 29.0 29.0 28.969236403589086 28.969236403589086 29.0 28.969236403589086 29.0 29.0 29.0 29.0 29.0 29.0 28.969236403589086 29.0 29.0 29.0 29.0 28.969236403589086 29.0 28.969236403589086 28.969236403589086 29.0 29.0 28.969236403589086 28.969236403589086 29.0 29.0 28.969236403589086 29.0 28.969236403589086 29.0 29.0 29.0 29.0 29.0 29.0 29.0 29.0 29.0 29.0 29.0 28.969236403589086 28.969236403589086 29.0 28.969236403589086 28.969236403589086 29.0 29.0 29.0 29.0 28.969236403589086 28.969236403589086 29.0 29.0 29.0 28.969236403589086 29.0 29.0 29.0 29.0 28.969236403589086 28.969236403589086 29.0 29.0 29.0 29.0 29.0 28.969236403589086 29.0 29.0 29.0 28.969236403589086 28.969236403589086 29.0 29.0 28.969236403589086 28.969236403589086 29.0 28.969236403589086 28.969236403589086 29.0 28.969236403589086 29.0 29.0 29.0 29.0 28.969236403589086 28.969236403589086 29.0 29.0 28.969236403589086 28.969236403589086 29.0 28.969236403589086 28.969236403589086 29.0 29.0 28.969236403589086 28.969236403589086 29.0 29.0 28.969236403589086 28.969236403589086 29.0 29.0 28.969236403589086 29.0 29.0 29.0 29.0 29.0 29.0 29.0 29.0 29.0 29.0 29.0 29.0 29.0 28.969236403589086 29.0 28.969236403589086 29.0 29.0 28.969236403589086 29.0 28.969236403589086 29.0 28.969236403589086 29.0 29.0 29.0 29.0 29.0 29.0 29.0 29.0 29.0 28.969236403589086 29.0 28.969236403589086 28.969236403589086 29.0 29.0 28.969236403589086 28.969236403589086 29.0 29.0 29.0 28.969236403589086 29.0 29.0 29.0 29.0 29.0 29.0 28.969236403589086 29.0 29.0 29.0 29.0 29.0 28.969236403589086 28.969236403589086 28.969236403589086 29.0 29.0 29.0 29.0 29.0 28.969236403589086 28.969236403589086 28.969236403589086 29.0 29.0 28.969236403589086 29.0 28.969236403589086 29.0 29.0 28.969236403589086 28.969236403589086 28.969236403589086 29.0 29.0 29.0 29.0 29.0 28.969236403589086 29.0 29.0 29.0 28.969236403589086 28.969236403589086 28.969236403589086 28.969236403589086 28.969236403589086 28.969236403589086 29.0 29.0 28.969236403589086 29.0 28.969236403589086 28.969236403589086 29.0 28.969236403589086 28.969236403589086 29.0 29.0 29.0 28.969236403589086 28.969236403589086 28.969236403589086 29.0 28.969236403589086 29.0 29.0 29.0 29.0 28.969236403589086 29.0 29.0 28.969236403589086 29.0 28.969236403589086 29.0 29.0 29.0 29.0 29.0 29.0 29.0 28.969236403589086 28.969236403589086 28.969236403589086 29.0 29.0 29.0 29.0 29.0 29.0 29.0 28.969236403589086 28.969236403589086 28.969236403589086 28.969236403589086 29.0 29.0 29.0 28.969236403589086 29.0 28.969236403589086 29.0 28.969236403589086 29.0 29.0 28.969236403589086 29.0 29.0 29.0 28.969236403589086 28.969236403589086 29.0 28.969236403589086 29.0 28.969236403589086 28.969236403589086 29.0 29.0 29.0 28.969236403589086 29.0 29.0 28.969236403589086 29.0 29.0 28.969236403589086 29.0 28.969236403589086 29.0 29.0 29.0 29.0 29.0 29.0 29.0 29.0 29.0 29.0 28.969236403589086 29.0 29.0 29.0 29.0 29.0 28.969236403589086 29.0 29.0 29.0 29.0 28.969236403589086 29.0 28.969236403589086 28.969236403589086 29.0 28.969236403589086 29.0 29.0 28.969236403589086 28.969236403589086 29.0 29.0 29.0 29.0 29.0 28.969236403589086 28.969236403589086 29.0 28.969236403589086 28.969236403589086 29.0 28.969236403589086 29.0 28.969236403589086 29.0 28.969236403589086 29.0 29.0 28.969236403589086 29.0 29.0 29.0 29.0 28.969236403589086 29.0 29.0 29.0 29.0 28.969236403589086 29.0 29.0 29.0 29.0 28.969236403589086 29.0 28.969236403589086 29.0 28.969236403589086 28.969236403589086 28.969236403589086 28.969236403589086 29.0 29.0 29.0 29.0 28.969236403589086 28.969236403589086 28.969236403589086 28.969236403589086 28.969236403589086 28.969236403589086 28.969236403589086 29.0 28.969236403589086 28.969236403589086 29.0 28.969236403589086 28.969236403589086 28.969236403589086 28.969236403589086 29.0 29.0 28.969236403589086 29.0 29.0 29.0 28.969236403589086 28.969236403589086 28.969236403589086 28.969236403589086 28.969236403589086 29.0 28.969236403589086 28.969236403589086 29.0 29.0 28.969236403589086 28.969236403589086 29.0 29.0 29.0 28.969236403589086 28.969236403589086 28.969236403589086 28.969236403589086 28.969236403589086 29.0 28.969236403589086 28.969236403589086 29.0 29.0 28.969236403589086 28.969236403589086 28.969236403589086 29.0 28.969236403589086 28.969236403589086 29.0 28.969236403589086 28.969236403589086 29.0 28.969236403589086 28.969236403589086 29.0 28.969236403589086 29.0 28.969236403589086 29.0 29.0 28.969236403589086 28.969236403589086 29.0 28.969236403589086 28.969236403589086 28.969236403589086 29.0 29.0 28.969236403589086 28.969236403589086 29.0 28.969236403589086 28.969236403589086 29.0 28.969236403589086 28.969236403589086 28.969236403589086 29.0 28.969236403589086 29.0 29.0 28.969236403589086 29.0 29.0 28.969236403589086 29.0 28.969236403589086 28.969236403589086 29.0 29.0 29.0 29.0 28.969236403589086 29.0 29.0 28.969236403589086 28.969236403589086 28.969236403589086 29.0 29.0 28.969236403589086 29.0 28.969236403589086 29.0 28.969236403589086 28.969236403589086 29.0 28.969236403589086 29.0 28.969236403589086 29.0 28.969236403589086 29.0 29.0 28.969236403589086 28.969236403589086 29.0 29.0 29.0 28.969236403589086 29.0 28.969236403589086 29.0 29.0 29.0 28.969236403589086 29.0 29.0 29.0 29.0 29.0 29.0 29.0 29.0 29.0 29.0 29.0 29.030763596410914 29.0 29.030763596410914 29.030763596410914 29.030763596410914 29.030763596410914 29.061527192821828 29.061527192821828 29.061527192821828 29.061527192821828 29.061527192821828 29.09229078923274 29.09229078923274 29.09229078923274 29.09229078923274 29.09229078923274 29.123054385643655 29.123054385643655 29.123054385643655 29.123054385643655 29.123054385643655 29.15381798205457 29.15381798205457 29.184581578465483 29.184581578465483 29.215345174876397 29.215345174876397 29.24610877128731 29.276872367698225 29.30763596410914 29.30763596410914 29.338399560520052 29.369163156930966 29.39992675334188 29.430690349752794 29.461453946163708 29.49221754257462 29.522981138985532 29.522981138985532 29.553744735396446 29.58450833180736 29.615271928218274 29.646035524629188 29.6767991210401 29.73832631386193 29.769089910272843 29.83061710309467 29.922907892327412 29.98443508514924 30.045962277971068 30.107489470792896 30.169016663614723 30.29207104925838 30.415125434902034 30.507416224134772 30.630470609778428 30.753524995422083 30.907342977476652 31.06116095953122 31.245742537996705 31.399560520051274 31.584142098516754 31.768723676982237 31.95330525544772 32.168650430324114 32.414759201611425 32.63010437648782 32.84544955136422 33.09155832265153 33.30690349752793 33.522248672404324 33.7068302508698 33.829884636513455 34.04522981138985 34.19904779344442 34.35286577549899 34.537447353964474 34.69126533601904 34.87584691448453 35.183482878593665 35.36806445705915 35.61417322834646 35.9218091924556 36.07562717451016 36.3832631386193 36.906244277604834 37.18311664530306 37.64457059146676 38.10602453763047 38.59824208020509 39.18275041201245 39.582677165354326 40.25947628639443 40.90551181102362 41.36696575718733 42.13605566746017 42.659036806445705 43.42812671671855 44.35103460904596 44.874015748031496 45.427760483427946 46.0122688152353 46.71983153268632 47.1197582860282 47.5812122321919 48.473356528108404 49.08862845632668 49.55008240249039 50.134590734297745 50.596044680461446 51.211316608679724 51.826588536898 52.34956967588353 52.96484160410181 53.67240432155283 54.16462186412745 54.933711774400294 55.48745650979674 56.0719648416041 56.718000366233284 57.14869071598608 57.73319904779344 58.563816150888115 59.025270097051816 59.51748763962644 59.91741439296832 60.40963193554294 61.14795824940487 61.57864859915766 62.22468412378685 62.65537447353964 63.024537630470604 63.424464383812484 63.76286394433254 64.31660867972897 64.80882622230361 65.20875297564548 65.73173411463102 66.25471525361655 66.62387841054752 67.14685954953305 67.54678630287492 67.97747665262773 68.43893059879143 68.90038454495513 69.33107489470792 69.70023805163889 70.03863761215894 70.34627357626809 70.53085515473356 70.96154550448635 71.33070866141732 71.57681743270463 71.91521699322467 72.28438015015564 72.53048892144295 72.86888848196301 73.11499725325032 73.42263321735945 73.7610327778795 74.00714154916682 74.28401391686504 74.71470426661784 74.96081303790514 75.17615821278153 75.39150338765793 75.69913935176706 76.00677531587621 76.25288408716352 76.68357443691632 76.8681560153818 77.17579197949092 77.51419154001098 77.63724592565464 77.91411829335286 78.31404504669473 78.49862662516023 78.77549899285845 78.96008057132393 79.20618934261125 79.48306171030947 79.63687969236403 79.88298846365134 80.06757004211681 80.2213880241714 80.37520600622597 80.49826039186962 80.65207837392418 80.68284197033509 80.71360556674601 80.74436916315693 80.74436916315693 80.74436916315693 80.80589635597875 80.86742354880059 80.9289507416224 80.99047793444424 81.05200512726607 81.17505951290971 81.26735030214246 81.35964109137521 81.42116828419702 81.51345907342977 81.6057498626625 81.72880424830618 81.75956784471708 81.85185863394983 81.85185863394983 81.85185863394983 81.85185863394983 81.85185863394983 81.85185863394983 81.85185863394983 81.85185863394983 81.85185863394983 81.91338582677164 82.0364402124153 82.19025819446988 82.2517853872917 82.49789415857902 82.65171214063358 82.77476652627723 82.92858450833181 83.1439296832082 83.29774766526276 83.48232924372826 83.60538362937191 83.75920161142648 83.94378318989196 84.06683757553562 84.22065555759018 84.31294634682291 84.43600073246657 84.58981871452116 84.68210950375389 84.80516388939753 84.83592748580845 84.86669108221938 84.92821827504119 84.92821827504119 84.95898187145211 84.95898187145211 84.92821827504119 84.95898187145211 84.92821827504119 84.95898187145211 84.92821827504119 84.92821827504119 84.92821827504119 84.89745467863028 84.92821827504119 84.89745467863028 84.89745467863028 84.89745467863028 84.89745467863028 84.89745467863028 84.89745467863028 84.92821827504119 84.92821827504119 84.92821827504119 84.92821827504119 84.92821827504119 84.92821827504119 84.89745467863028 84.92821827504119 84.92821827504119 84.89745467863028 84.86669108221938 84.86669108221938 84.86669108221938 84.83592748580845 84.83592748580845 84.83592748580845 84.83592748580845 84.83592748580845 84.83592748580845 84.83592748580845 84.83592748580845 84.83592748580845 84.83592748580845 84.80516388939753 84.80516388939753 84.83592748580845 84.83592748580845 84.80516388939753 84.80516388939753 84.80516388939753 84.80516388939753 84.80516388939753 84.80516388939753 84.80516388939753 84.80516388939753 84.80516388939753 84.77440029298663 84.74363669657572 84.74363669657572 84.7128731001648 84.68210950375389 84.65134590734297 84.65134590734297 84.65134590734297 84.62058231093206 84.62058231093206 84.62058231093206 84.62058231093206 84.62058231093206 84.62058231093206 84.62058231093206 84.62058231093206 84.62058231093206 84.62058231093206 84.62058231093206 84.62058231093206 84.62058231093206 84.62058231093206 84.62058231093206 84.62058231093206 84.62058231093206 84.58981871452116 84.58981871452116 84.55905511811024 84.52829152169932 84.52829152169932 84.49752792528841 84.4667643288775 84.43600073246657 84.43600073246657 84.40523713605566 84.37447353964475 84.37447353964475 84.34370994323385 84.31294634682291 84.31294634682291 84.282182750412 84.2514191540011 84.22065555759018 84.18989196117926 84.12836476835744 84.09760117194652 84.0360739791247 83.97454678630287 83.94378318989196 83.88225599707013 83.88225599707013 83.88225599707013 83.88225599707013 83.91301959348104 83.91301959348104 83.91301959348104 83.94378318989196 83.94378318989196 83.94378318989196 83.94378318989196 83.94378318989196 83.94378318989196 83.94378318989196 83.94378318989196 83.94378318989196 83.94378318989196 83.94378318989196 83.94378318989196 83.97454678630287 83.94378318989196 83.97454678630287 83.94378318989196 83.97454678630287 83.94378318989196 83.94378318989196 83.97454678630287 83.97454678630287 83.94378318989196 83.97454678630287 83.94378318989196 83.97454678630287 83.94378318989196 83.94378318989196 83.94378318989196 83.94378318989196 83.94378318989196 83.94378318989196 83.94378318989196 83.94378318989196 83.91301959348104 83.88225599707013 83.91301959348104 83.88225599707013 83.91301959348104 83.91301959348104 83.88225599707013 83.91301959348104 83.88225599707013 83.91301959348104 83.91301959348104 83.88225599707013 83.91301959348104 83.91301959348104 83.88225599707013 83.91301959348104 83.88225599707013 83.88225599707013 83.88225599707013 83.88225599707013 83.88225599707013 83.85149240065923 83.85149240065923 83.85149240065923 83.8207288042483 83.8207288042483 83.8207288042483 83.75920161142648 83.78996520783738 83.75920161142648 83.75920161142648 83.75920161142648 83.75920161142648 83.72843801501557 83.72843801501557 83.75920161142648 83.69767441860465 83.69767441860465 83.69767441860465 83.69767441860465 83.69767441860465 83.69767441860465 83.69767441860465 83.69767441860465 83.69767441860465 83.69767441860465 83.69767441860465 83.69767441860465 83.69767441860465 83.69767441860465 83.69767441860465 83.69767441860465 83.69767441860465 83.66691082219373 83.66691082219373 83.66691082219373 83.63614722578282 83.66691082219373 83.63614722578282 83.63614722578282 83.63614722578282 83.63614722578282 83.60538362937191 83.60538362937191 83.60538362937191 83.57462003296098 83.54385643655007 83.57462003296098 83.54385643655007 83.54385643655007 83.54385643655007 83.54385643655007 83.54385643655007 83.54385643655007 83.57462003296098 83.57462003296098 83.57462003296098 83.57462003296098 83.57462003296098 83.57462003296098 83.57462003296098 83.57462003296098 83.54385643655007 83.54385643655007 83.54385643655007 83.51309284013917 83.51309284013917 83.48232924372826 83.48232924372826 83.48232924372826 83.48232924372826 83.48232924372826 83.48232924372826 83.51309284013917 83.48232924372826 83.51309284013917 83.51309284013917 83.51309284013917 83.51309284013917 83.51309284013917 83.51309284013917 83.51309284013917 83.51309284013917 83.51309284013917 83.54385643655007 83.51309284013917 83.51309284013917 83.51309284013917 83.51309284013917 83.51309284013917 83.51309284013917 83.51309284013917 83.51309284013917 83.51309284013917 83.51309284013917 83.51309284013917 83.51309284013917 83.48232924372826 83.48232924372826 83.51309284013917 83.48232924372826 83.45156564731735 83.42080205090642 83.39003845449551 83.32851126167368 83.32851126167368 83.29774766526276 83.26698406885185 83.20545687603003 83.1746932796191 83.11316608679729 83.08240249038637 83.02087529756454 82.99011170115364 82.86705731550998 82.80553012268815 82.71323933345542 82.62094854422267 82.52865775498992 82.4671305621681 82.34407617652444 82.22102179088078 82.0364402124153 81.8210950375389 81.66727705548433 81.42116828419702 81.17505951290971 80.95971433803334 80.65207837392418 80.4674967954587 80.12909723493865 79.7906976744186 79.39077092107672 78.99084416773485 78.74473539644754 78.34480864310567 77.97564548617468 77.72953671488739 77.36037355795642 76.99121040102546 76.74510162973814 76.43746566562899 76.1913568943417 75.94524812305438 75.63761215894525 75.45303058047976 75.20692180919245 74.89928584508331 74.74546786302875 74.49935909174144 74.25325032045413 74.00714154916682 73.85332356711226 73.66874198864676 73.42263321735945 73.17652444607214 72.86888848196301 72.5920161142648 72.37667093938839 72.06903497527925 71.76139901117011 71.54605383629371 71.39223585423915 71.05383629371909 70.90001831166452 70.71543673319906 70.53085515473356 70.31550997985717 69.88481963010437 69.73100164804981 69.36183849111885 69.14649331624244 68.93114814136604 68.56198498443507 68.25434902032595 67.85442226698407 67.51602270646401 67.33144112799853 67.08533235671122 66.77769639260208 66.53158762131477 66.07013367515107 65.82402490386376 65.48562534334371 65.17798937923456 64.93188060794725 64.65500824024903 64.37813587255081 64.16279069767441 63.85515473356528 63.63980955868888 63.39370078740157 63.08606482329243 62.80919245559421 62.62461087712873 62.44002929866325 62.16315693096502 61.91704815967771 61.701702984801315 61.48635780992492 61.17872184581578 61.02490386376122 60.87108588170665 60.686504303241165 60.440395531953854 60.22505035707745 59.94817798937923 59.70206921809192 59.45596044680461 59.24061527192821 58.93297930781908 58.71763413294268 58.37923457242263 57.97930781908075 57.70243545138253 57.33327229445156 56.964109137520595 56.62570957700055 56.25654642006958 55.97967405237136 55.57974729902948 55.21058414209851 54.841420985167545 54.59531221388024 54.19538546053836 54.01080388207288 53.826222303607395 53.67240432155283 53.3955319538546 53.21095037538912 53.118659586156376 52.9340780076909 52.78026002563632 52.65720563999267 52.56491485075993 52.47262406152719 52.34956967588353 52.22651529023988 52.13422450100714 52.011170115363484 51.826588536898 51.703534151254345 51.54971616919978 51.42666178355613 51.211316608679724 50.96520783739241 50.74986266251602 50.50375389122871 50.2576451199414 50.10382713788683 49.888481963010435 49.70390038454495 49.334737227613985 49.05786485991577 48.84251968503936 48.50412012451932 48.28877494964292 47.98113898553378 47.70426661783556 47.48892144295917 47.18128547885003 46.87364951474089 46.658304339864486 46.25837758652261 46.043032411646216 45.79692364035891 45.5508148690716 45.45852407983885 45.24317890496246 44.99707013367515 44.781724958798755 44.4433253982787 44.227980223402305 43.85881706647134 43.5511811023622 43.42812671671855 43.15125434902033 42.75132759567845 42.53598242080205 42.259110053103825 42.04376487822743 41.7668925105292 41.42849295000916 41.18238417872185 40.843984618201794 40.50558505768174 40.25947628639443 39.890313129463465 39.70573155099798 39.30580479765611 39.028932429957884 38.93664164072514 38.65976927302692 38.38289690532869 38.167551730452296 37.921442959164985 37.67533418787768 37.459989013001284 37.24464383812489 37.18311664530306 36.93700787401575 36.752426295550265 36.62937190990661 36.444790331441126 36.32173594579747 36.13715436733199 35.952572788866505 35.82951840322285 35.61417322834646 35.46035524629189 35.337300860648234 35.21424647500458 35.15271928218275 35.09119208936092 34.99890130012818 34.96813770371727 34.90661051089544 34.84508331807361 34.75279252884087 34.66050173960813 34.629738143197216 34.475920161142646 34.383629371909905 34.29133858267716 34.137520600622594 34.04522981138985 33.89141182933528 33.73759384728072 33.58377586522615 33.460721479582496 33.33766709393884 33.214612708295185 33.12232191906244 33.0300311298297 32.906976744186046 32.78392235854239 32.69163156930965 32.568577183665994 32.44552279802234 32.38399560520051 32.23017762314594 32.1378868339132 31.984068851858634 31.768723676982237 31.64566929133858 31.584142098516754 31.491851309284012 31.399560520051274 31.27650613440762 31.153451748763963 31.030397363120308 30.87657938106574 30.784288591832997 30.691997802600255 30.5689434169566 30.47665262772386 30.38436183849112 30.322834645669293 30.23054385643655 30.13825306720381 30.045962277971068 30.015198681560154 29.98443508514924 29.98443508514924 29.98443508514924 29.953671488738326 29.922907892327412 29.8921442959165 29.861380699505585 29.861380699505585 29.83061710309467 29.799853506683757 29.769089910272843 29.769089910272843 29.73832631386193 29.73832631386193 29.707562717451015 29.707562717451015 29.6767991210401 29.646035524629188 29.615271928218274 29.615271928218274 29.58450833180736 29.58450833180736 29.58450833180736 29.522981138985532 29.49221754257462 29.49221754257462 29.49221754257462 29.461453946163708 29.461453946163708 29.461453946163708 29.430690349752794 29.430690349752794 29.430690349752794 29.430690349752794 29.430690349752794 29.430690349752794 29.39992675334188 29.39992675334188 29.39992675334188 29.39992675334188 29.369163156930966 29.369163156930966 29.369163156930966 29.369163156930966 29.338399560520052 29.369163156930966 29.338399560520052 29.338399560520052 29.338399560520052 29.338399560520052 29.30763596410914 29.30763596410914 29.30763596410914 29.276872367698225 29.276872367698225 29.276872367698225 29.30763596410914 29.276872367698225 29.276872367698225 29.276872367698225 29.276872367698225 29.276872367698225 29.276872367698225 29.276872367698225 29.276872367698225 29.276872367698225 29.276872367698225 29.276872367698225 29.276872367698225 29.276872367698225 29.276872367698225 29.24610877128731 29.24610877128731 29.276872367698225 29.276872367698225 29.24610877128731 29.24610877128731 29.24610877128731 29.24610877128731 29.24610877128731 29.24610877128731 29.24610877128731 29.24610877128731 29.24610877128731 29.24610877128731 29.24610877128731 29.24610877128731 29.24610877128731 29.24610877128731 29.24610877128731 29.24610877128731 29.24610877128731 29.24610877128731 29.24610877128731 29.24610877128731 29.24610877128731 29.24610877128731 29.24610877128731 29.24610877128731 29.24610877128731 29.24610877128731 29.24610877128731 29.24610877128731 29.24610877128731 29.24610877128731 29.24610877128731 29.24610877128731 29.24610877128731 29.215345174876397 29.24610877128731 29.24610877128731 29.215345174876397 29.24610877128731 29.24610877128731 29.24610877128731 29.24610877128731 29.215345174876397 29.215345174876397 29.24610877128731 29.215345174876397 29.24610877128731 29.24610877128731 29.215345174876397 29.24610877128731 29.215345174876397 29.215345174876397 29.215345174876397 29.215345174876397 29.215345174876397 29.215345174876397 29.215345174876397 29.215345174876397 29.215345174876397 29.215345174876397 29.215345174876397 29.215345174876397 29.215345174876397 29.215345174876397 29.215345174876397 29.215345174876397 29.215345174876397 29.215345174876397 29.215345174876397 29.215345174876397 29.215345174876397 29.215345174876397 29.215345174876397 29.215345174876397 29.215345174876397 29.215345174876397 29.215345174876397 29.215345174876397 29.215345174876397 29.215345174876397 29.215345174876397 29.215345174876397 29.215345174876397 29.215345174876397 29.215345174876397 29.215345174876397 29.215345174876397 29.215345174876397 29.215345174876397 29.215345174876397 29.215345174876397 29.215345174876397 29.215345174876397 29.215345174876397 29.215345174876397 29.215345174876397 29.215345174876397 29.215345174876397 29.215345174876397 29.215345174876397 29.215345174876397 29.215345174876397 29.215345174876397 29.215345174876397 29.184581578465483 29.215345174876397 29.215345174876397 29.215345174876397 29.215345174876397 29.215345174876397 29.215345174876397 29.215345174876397 29.215345174876397 29.215345174876397 29.215345174876397 29.215345174876397 29.184581578465483 29.215345174876397 29.215345174876397 29.215345174876397 29.184581578465483 29.215345174876397 29.215345174876397 29.215345174876397 29.215345174876397 29.215345174876397 29.215345174876397 29.215345174876397 29.215345174876397 29.184581578465483 29.184581578465483 29.215345174876397 29.215345174876397 29.215345174876397 29.184581578465483 29.184581578465483 29.215345174876397 29.184581578465483 29.215345174876397 29.184581578465483 29.184581578465483 29.184581578465483 29.184581578465483 29.215345174876397 29.184581578465483 29.184581578465483 29.184581578465483 29.184581578465483 29.184581578465483 29.215345174876397 29.184581578465483 29.184581578465483 29.184581578465483 29.184581578465483 29.184581578465483 29.184581578465483 29.184581578465483 29.184581578465483 29.184581578465483 29.184581578465483 29.184581578465483 29.184581578465483 29.184581578465483 29.184581578465483 29.184581578465483 29.184581578465483 29.184581578465483 29.184581578465483 29.184581578465483 29.184581578465483 29.184581578465483 29.184581578465483 29.184581578465483 29.184581578465483 29.184581578465483 29.184581578465483 29.184581578465483 29.15381798205457 29.15381798205457 29.15381798205457 29.184581578465483 29.15381798205457 29.15381798205457 29.184581578465483 29.184581578465483 29.184581578465483 29.15381798205457 29.15381798205457 29.15381798205457 29.184581578465483 29.15381798205457 29.184581578465483 29.15381798205457 29.15381798205457 29.15381798205457 29.15381798205457 29.15381798205457 29.15381798205457 29.15381798205457 29.15381798205457 29.15381798205457 29.15381798205457 29.184581578465483 29.15381798205457 29.15381798205457 29.15381798205457 29.15381798205457 29.15381798205457 29.15381798205457 29.15381798205457 29.184581578465483 29.15381798205457 29.15381798205457 29.15381798205457 29.15381798205457 29.15381798205457 29.15381798205457 29.15381798205457 29.15381798205457 29.15381798205457 29.15381798205457 29.15381798205457 29.15381798205457 29.15381798205457 29.15381798205457 29.15381798205457 29.184581578465483 29.184581578465483 29.184581578465483 29.184581578465483 29.184581578465483 29.184581578465483 29.184581578465483 29.184581578465483 29.184581578465483 29.184581578465483 29.184581578465483 29.184581578465483 29.184581578465483 29.184581578465483 29.184581578465483 29.215345174876397 29.215345174876397 29.215345174876397 29.215345174876397 29.215345174876397 29.215345174876397 29.215345174876397 29.215345174876397 29.215345174876397 29.24610877128731 29.24610877128731 29.24610877128731 29.24610877128731 29.276872367698225 29.276872367698225 29.276872367698225 29.30763596410914 29.30763596410914 29.338399560520052 29.338399560520052 29.338399560520052 29.338399560520052 29.369163156930966 29.39992675334188 29.430690349752794 29.430690349752794 29.461453946163708 29.49221754257462 29.522981138985532 29.522981138985532 29.553744735396446 29.58450833180736 29.646035524629188 29.707562717451015 29.799853506683757 29.922907892327412 29.98443508514924 30.13825306720381 30.199780260025637 30.353598242080206 30.445889031312948 30.538179820545686 30.599707013367514 30.72276139901117 30.784288591832997 30.907342977476652 30.999633766709394 31.091924555942136 31.184215345174877 31.307269730818533 31.399560520051274 31.614905694927668 31.70719648416041 31.830250869804065 31.984068851858634 32.260941219556855 32.47628639443325 32.72239516572056 32.906976744186046 33.09155832265153 33.27613990111701 33.58377586522615 33.829884636513455 34.10675700421168 34.44515656473173 34.66050173960813 34.87584691448453 35.27577366782641 35.52188243911371 35.86028199963376 36.07562717451016 36.3832631386193 36.62937190990661 36.906244277604834 37.152353048892145 37.36769822376854 37.58304339864493 38.04449734480864 38.22907892327412 38.8443508514924 39.30580479765611 39.70573155099798 40.22871268998352 40.690166636147225 41.21314777513276 41.85918329976195 42.32063724592565 43.058963559787585 43.7665262772386 44.28950741622413 44.935542940853324 45.61234206189343 46.196850393700785 46.596777147042665 46.965940303973625 47.519685039370074 48.073429774766524 48.6887017029848 49.24244643838125 49.73466398095587 50.2576451199414 50.81138985533785 51.05749862662516 51.58047976561069 52.288042483061716 52.68796923640359 53.24171397180004 53.73393151437466 54.13385826771653 54.841420985167545 55.179820545687605 55.57974729902948 56.13349203442593 56.47189159494598 56.994872733931516 57.33327229445156 58.010071415491666 58.533052554477194 58.90221571140816 59.24061527192821 59.579014832448266 59.91741439296832 60.50192272477568 60.84032228529573 61.20948544222669 61.609412195568574 61.8862845632668 62.28621131660868 62.5630836843069 62.93224684123786 63.33217359457974 63.670573155099795 63.978209119208934 64.34737227613991 64.62424464383813 65.02417139718 65.33180736128914 65.67020692180918 66.07013367515107 66.3470060428493 66.74693279619117 67.30067753158761 67.60831349569676 67.91594945980589 68.22358542391504 68.86962094854422 69.11572971983153 69.42336568394066 69.79252884087163 70.377037172679 70.65390954037721 70.93078190807545 71.23841787218458 71.63834462552646 72.00750778245742 72.34590734297747 72.65354330708661 73.02270646401757 73.26881523530488 73.63797839223585 73.88408716352316 74.1917231276323 74.53012268815235 74.89928584508331 75.11463101995972 75.42226698406884 75.79143014099981 76.00677531587621 76.25288408716352 76.6528108405054 76.96044680461453 77.23731917231275 77.5449551364219 77.91411829335286 78.16022706464017 78.52939022157113 78.77549899285845 79.1138985533785 79.45229811389855 79.72917048159677 79.97527925288409 80.37520600622597 80.59055118110236 80.83665995238968 81.05200512726607 81.35964109137521 81.63651345907343 81.94414942318257 82.2517853872917 82.49789415857902 82.80553012268815 83.11316608679729 83.29774766526276 83.60538362937191 83.85149240065923 84.00531038271379 84.2514191540011 84.40523713605566 84.62058231093206 84.86669108221938 84.92821827504119 85.08203625709577 85.29738143197216 85.358908624794 85.45119941402672 85.54349020325947 85.63578099249222 85.69730818531404 85.72807178172496 85.78959897454678 85.8511261673686 85.94341695660134 85.97418055301226 86.03570774583409 86.09723493865592 86.12799853506684 86.15876213147774 86.15876213147774 86.18952572788865 86.18952572788865 86.18952572788865 86.18952572788865 86.18952572788865 86.22028932429959 86.22028932429959 86.25105292071049 86.2818165171214 86.2818165171214 86.2818165171214 86.2818165171214 86.2818165171214 86.2818165171214 86.2818165171214 86.2818165171214 86.2818165171214 86.2818165171214 86.2818165171214 86.2818165171214 86.2818165171214 86.25105292071049 86.25105292071049 86.22028932429959 86.22028932429959 86.18952572788865 86.18952572788865 86.18952572788865 86.18952572788865 86.18952572788865 86.18952572788865 86.18952572788865 86.18952572788865 86.18952572788865 86.18952572788865 86.18952572788865 86.18952572788865 86.18952572788865 86.18952572788865 86.18952572788865 86.18952572788865 86.18952572788865 86.15876213147774 86.15876213147774 86.12799853506684 86.09723493865592 86.066471342245 86.03570774583409 86.03570774583409 86.03570774583409 86.00494414942318 86.00494414942318 85.97418055301226 85.97418055301226 85.97418055301226 85.97418055301226 85.97418055301226 85.97418055301226 85.97418055301226 85.97418055301226 85.97418055301226 85.97418055301226 85.97418055301226 85.97418055301226 85.97418055301226 85.97418055301226 85.97418055301226 85.97418055301226 85.97418055301226 85.97418055301226 85.97418055301226 85.97418055301226 85.97418055301226 85.97418055301226 85.97418055301226 85.97418055301226 85.97418055301226 85.94341695660134 85.91265336019043 85.88188976377953 85.8511261673686 85.8203625709577 85.78959897454678 85.78959897454678 85.72807178172496 85.72807178172496 85.69730818531404 85.69730818531404 85.66654458890312 85.63578099249222 85.63578099249222 85.60501739608131 85.60501739608131 85.60501739608131 85.60501739608131 85.57425379967039 85.57425379967039 85.57425379967039 85.54349020325947 85.54349020325947 85.54349020325947 85.54349020325947 85.54349020325947 85.54349020325947 85.51272660684856 85.54349020325947 85.54349020325947 85.51272660684856 85.51272660684856 85.51272660684856 85.51272660684856 85.54349020325947 85.51272660684856 85.51272660684856 85.51272660684856 85.51272660684856 85.54349020325947 85.54349020325947 85.54349020325947 85.51272660684856 85.54349020325947 85.51272660684856 85.54349020325947 85.54349020325947 85.51272660684856 85.54349020325947 85.51272660684856 85.51272660684856 85.48196301043765 85.48196301043765 85.48196301043765 85.45119941402672 85.42043581761581 85.42043581761581 85.3896722212049 85.3896722212049 85.358908624794 85.358908624794 85.358908624794 85.358908624794 85.32814502838306 85.32814502838306 85.32814502838306 85.32814502838306 85.29738143197216 85.29738143197216 85.26661783556125 85.23585423915033 85.23585423915033 85.20509064273942 85.20509064273942 85.20509064273942 85.1743270463285 85.1743270463285 85.1743270463285 85.1743270463285 85.20509064273942 85.1743270463285 85.1743270463285 85.20509064273942 85.1743270463285 85.1743270463285 85.1743270463285 85.20509064273942 85.20509064273942 85.20509064273942 85.20509064273942 85.20509064273942 85.20509064273942 85.20509064273942 85.20509064273942 85.1743270463285 85.1743270463285 85.1743270463285 85.1743270463285 85.1743270463285 85.1743270463285 85.1435634499176 85.1435634499176 85.1435634499176 85.1435634499176 85.1435634499176 85.1435634499176 85.1435634499176 85.1435634499176 85.1435634499176 85.1435634499176 85.1435634499176 85.1435634499176 85.1743270463285 85.1435634499176 85.1435634499176 85.1435634499176 85.1435634499176 85.11279985350667 85.08203625709577 85.08203625709577 85.05127266068484 85.05127266068484 85.05127266068484 85.02050906427394 85.02050906427394 85.02050906427394 85.02050906427394 85.02050906427394 85.02050906427394 85.02050906427394 85.02050906427394 84.98974546786303 84.98974546786303 84.95898187145211 84.95898187145211 84.92821827504119 84.92821827504119 84.89745467863028 84.89745467863028 84.83592748580845 84.77440029298663 84.74363669657572 84.65134590734297 84.58981871452116 84.49752792528841 84.40523713605566 84.31294634682291 84.22065555759018 84.09760117194652 84.0360739791247 83.91301959348104 83.78996520783738 83.69767441860465 83.60538362937191 83.51309284013917 83.39003845449551 83.26698406885185 83.20545687603003 83.11316608679729 82.99011170115364 82.89782091192089 82.80553012268815 82.71323933345542 82.59018494781176 82.37483977293536 82.31331258011353 82.12873100164805 81.91338582677164 81.66727705548433 81.42116828419702 81.20582310932063 80.95971433803334 80.65207837392418 80.49826039186962 80.12909723493865 79.7906976744186 79.5753524995422 79.23695293902216 78.99084416773485 78.65244460721479 78.31404504669473 78.06793627540742 77.7603003112983 77.45266434718914 77.20655557590185 76.8989196117927 76.59128364768358 76.25288408716352 76.06830250869804 75.85295733382165 75.5453213697125 75.26844900201428 74.93004944149423 74.6224134773851 74.37630470609778 74.06866874198865 73.7610327778795 73.5456876030031 73.20728804248306 72.96117927119576 72.6227797106757 72.28438015015564 72.03827137886833 71.69987181834829 71.14612708295184 70.96154550448635 70.56161875114448 70.28474638344625 69.88481963010437 69.4848928767625 69.14649331624244 68.8080937557224 68.53122138802416 68.22358542391504 68.00824024903864 67.82365867057315 67.54678630287492 67.2391503387658 67.02380516388939 66.68540560336935 66.3470060428493 66.1316608679729 65.82402490386376 65.51638893975462 65.30104376487822 65.02417139718 64.77806262589269 64.47042666178355 64.03973631203075 63.79362754074345 63.4552279802234 63.20911920893609 62.93224684123786 62.44002929866325 62.07086614173228 61.76323017762314 61.30177623145944 60.96337667093938 60.594213514008416 60.3173411463102 59.60977842885918 59.086797289873644 58.71763413294268 58.19465299395715 57.67167185497162 57.302508698040654 56.748763962644205 56.348837209302324 55.82585607031679 55.24134773850943 54.872184581578466 54.31843984618202 53.76469511078557 53.364768357443694 52.811023622047244 52.47262406152719 51.949642922541656 51.51895257278886 51.211316608679724 50.78062625892693 50.380699505585056 50.01153634865409 49.642373191723124 49.334737227613985 49.05786485991577 48.719465299395715 48.473356528108404 48.104193371177445 47.85808459989013 47.519685039370074 47.212049075260936 46.996703900384546 46.658304339864486 46.28914118293353 46.0122688152353 45.643105658304336 45.3354696941952 44.935542940853324 44.50485259110053 44.19721662699139 43.73576268082768 43.33583592748581 42.8743819813221 42.44369163156931 42.16681926387108 41.7668925105292 41.36696575718733 41.05932979307819 40.72093023255814 40.290239882805345 39.982603918696206 39.49038637612159 39.09045962277971 38.53671488738326 37.921442959164985 37.521516205823104 36.96777147042666 36.444790331441126 36.106390770921074 35.64493682475737 35.21424647500458 34.8143197216627 34.537447353964474 34.41439296832082 34.29133858267716 34.10675700421168 33.95293902215711 33.829884636513455 33.76835744369163 33.64530305804798 33.522248672404324 33.460721479582496 33.368430690349754 33.27613990111701 33.214612708295185 33.060794726240616 33.0300311298297 32.87621314777513 32.660867972898735 32.53781358725508 32.38399560520051 32.29170481596777 32.19941402673503 32.1378868339132 32.04559604468046 31.830250869804065 31.737960080571323 31.64566929133858 31.55337850210584 31.491851309284012 31.399560520051274 31.307269730818533 31.245742537996705 31.12268815235305 31.06116095953122 30.96887017029848 30.845815784654825 30.753524995422083 30.630470609778428 30.47665262772386 30.353598242080206 30.169016663614723 30.015198681560154 29.861380699505585 29.83061710309467 29.769089910272843 29.73832631386193 29.707562717451015 29.707562717451015 29.6767991210401 29.646035524629188 29.615271928218274 29.58450833180736 29.553744735396446 29.522981138985532 29.49221754257462 29.49221754257462 29.49221754257462 29.461453946163708 29.461453946163708 29.461453946163708 29.430690349752794 29.430690349752794 29.430690349752794 29.39992675334188 29.39992675334188 29.369163156930966 29.39992675334188 29.369163156930966 29.369163156930966 29.369163156930966 29.369163156930966 29.369163156930966 29.338399560520052 29.338399560520052 29.338399560520052 29.338399560520052 29.338399560520052 29.369163156930966 29.338399560520052 29.338399560520052 29.338399560520052 29.338399560520052 29.338399560520052 29.338399560520052 29.338399560520052 29.338399560520052 29.338399560520052 29.338399560520052 29.338399560520052 29.338399560520052 29.338399560520052 29.338399560520052 29.338399560520052 29.338399560520052 29.338399560520052 29.30763596410914 29.338399560520052 29.30763596410914 29.30763596410914 29.30763596410914 29.338399560520052 29.338399560520052 29.338399560520052 29.338399560520052 29.338399560520052 29.338399560520052 29.338399560520052 29.30763596410914 29.338399560520052 29.30763596410914 29.30763596410914 29.338399560520052 29.338399560520052 29.338399560520052 29.338399560520052 29.338399560520052 29.30763596410914 29.30763596410914 29.30763596410914 29.30763596410914 29.30763596410914 29.338399560520052 29.30763596410914 29.30763596410914 29.30763596410914 29.30763596410914 29.30763596410914 29.30763596410914 29.30763596410914 29.30763596410914 29.30763596410914 29.30763596410914 29.338399560520052 29.30763596410914 29.30763596410914 29.30763596410914 29.30763596410914 29.30763596410914 29.30763596410914 29.30763596410914 29.30763596410914 29.30763596410914 29.30763596410914 29.30763596410914 29.30763596410914 29.30763596410914 29.30763596410914 29.30763596410914 29.30763596410914 29.30763596410914 29.30763596410914 29.30763596410914 29.30763596410914 29.30763596410914 29.30763596410914 29.30763596410914 29.30763596410914 29.30763596410914 29.30763596410914 29.30763596410914 29.30763596410914 29.30763596410914 29.30763596410914 29.30763596410914 29.30763596410914 29.30763596410914 29.30763596410914 29.30763596410914 29.30763596410914 29.30763596410914 29.30763596410914 29.30763596410914 29.30763596410914 29.30763596410914 29.30763596410914 29.30763596410914 29.30763596410914 29.30763596410914 29.30763596410914 29.30763596410914 29.30763596410914 29.30763596410914 29.30763596410914 29.30763596410914 29.30763596410914 29.30763596410914 29.30763596410914 29.30763596410914 29.30763596410914 29.30763596410914 29.30763596410914 29.30763596410914 29.30763596410914 29.30763596410914 29.30763596410914 29.30763596410914 29.276872367698225 29.30763596410914 29.30763596410914 29.30763596410914 29.30763596410914 29.30763596410914 29.30763596410914 29.30763596410914 29.276872367698225 29.30763596410914 29.30763596410914 29.30763596410914 29.30763596410914 29.276872367698225 29.276872367698225 29.30763596410914 29.30763596410914 29.276872367698225 29.276872367698225 29.30763596410914 29.30763596410914 29.276872367698225 29.30763596410914 29.276872367698225 29.30763596410914 29.30763596410914 29.30763596410914 29.30763596410914 29.276872367698225 29.30763596410914 29.276872367698225 29.30763596410914 29.30763596410914 29.30763596410914 29.276872367698225 29.276872367698225 29.276872367698225 29.30763596410914 29.276872367698225 29.276872367698225 29.276872367698225 29.30763596410914 29.30763596410914 29.276872367698225 29.276872367698225 29.276872367698225 29.276872367698225 29.276872367698225 29.30763596410914 29.276872367698225 29.276872367698225 29.30763596410914 29.276872367698225 29.276872367698225 29.276872367698225 29.276872367698225 29.30763596410914 29.276872367698225 29.276872367698225 29.276872367698225 29.276872367698225 29.276872367698225 29.30763596410914 29.276872367698225 29.276872367698225 29.276872367698225 29.30763596410914 29.30763596410914 29.276872367698225 29.276872367698225 29.276872367698225 29.276872367698225 29.276872367698225 29.276872367698225 29.30763596410914 29.30763596410914 29.276872367698225 29.276872367698225 29.276872367698225 29.276872367698225 29.30763596410914 29.30763596410914 29.276872367698225 29.30763596410914 29.30763596410914 29.276872367698225 29.30763596410914 29.30763596410914 29.30763596410914 29.276872367698225 29.30763596410914 29.30763596410914 29.30763596410914 29.276872367698225 29.276872367698225 29.30763596410914 29.30763596410914 29.30763596410914 29.30763596410914 29.30763596410914 29.338399560520052 29.30763596410914 29.30763596410914 29.30763596410914 29.338399560520052 29.338399560520052 29.338399560520052 29.369163156930966 29.369163156930966 29.39992675334188 29.39992675334188 29.430690349752794 29.430690349752794 29.461453946163708 29.49221754257462 29.49221754257462 29.49221754257462 29.522981138985532 29.522981138985532 29.553744735396446 29.553744735396446 29.615271928218274 29.646035524629188 29.6767991210401 29.73832631386193 29.83061710309467 29.922907892327412 30.07672587438198 30.199780260025637 30.29207104925838 30.415125434902034 30.630470609778428 30.691997802600255 30.907342977476652 31.091924555942136 31.27650613440762 31.491851309284012 31.64566929133858 31.891778062625892 32.107123237502286 32.260941219556855 32.47628639443325 32.69163156930965 32.87621314777513 33.09155832265153 33.27613990111701 33.58377586522615 33.79912104010255 33.89141182933528 34.10675700421168 34.35286577549899 34.629738143197216 34.84508331807361 35.029664896539096 35.30653726423732 35.64493682475737 35.79875480681194 36.29097234938656 36.72166269913935 36.998535066837576 37.4907526094122 37.82915216993224 38.413660501739606 39.0596960263688 39.5211499725325 40.22871268998352 41.02856619666728 41.61307452847464 42.47445522798022 43.0897271561985 44.01263504852591 45.15088811572972 45.48928767624977 46.31990477934444 47.1197582860282 48.011902581944696 48.62717451016297 49.39626442043581 50.10382713788683 50.87291704815968 51.42666178355613 52.16498809741805 52.87255081486907 53.3955319538546 54.10309467130563 54.56454861746933 55.24134773850943 55.948910455960444 56.41036440212415 57.056399926753336 57.61014466214979 58.1023622047244 58.65610694012086 59.27137886833913 59.67130562168101 60.132759567844715 60.62497711041934 60.932613074528476 61.27101263504852 61.855520966855885 62.255447720197765 62.62461087712873 62.93224684123786 63.30140999816883 63.516755173045226 63.85515473356528 64.07049990844168 64.31660867972897 64.59348104742722 64.77806262589269 65.14722578282365 65.45486174693279 65.73173411463102 65.9163156930965 66.1624244643838 66.50082402490386 66.90075077824574 67.33144112799853 67.76213147775132 68.22358542391504 68.56198498443507 68.86962094854422 69.23878410547519 69.91558322651528 70.4078007690899 70.8384911188427 71.33070866141732 71.85368980040286 72.25361655374473 72.86888848196301 73.26881523530488 73.82255997070132 74.40706830250869 74.80699505585056 75.36073979124703 76.09906610510895 76.56052005127265 76.8989196117927 77.23731917231275 77.66800952206555 78.12946346822926 78.46786302874932 79.1138985533785 79.60611609595313 80.006042849295 80.34444240981506 80.71360556674601 81.08276872367698 81.69804065189524 82.12873100164805 82.4671305621681 82.77476652627723 83.20545687603003 83.66691082219373 84.00531038271379 84.43600073246657 84.86669108221938 85.1435634499176 85.54349020325947 85.8203625709577 86.22028932429959 86.4971616919978 86.58945248123054 86.80479765610693 86.98937923457241 87.08167002380517 87.1739608130379 87.2047244094488 87.23548800585974 87.26625160227064 87.26625160227064 87.26625160227064 87.23548800585974 87.23548800585974 87.23548800585974 87.23548800585974 87.2047244094488 87.2047244094488 87.2047244094488 87.2047244094488 87.1739608130379 87.14319721662699 87.11243362021608 87.08167002380517 87.05090642739424 87.05090642739424 87.05090642739424 87.02014283098333 87.02014283098333 87.02014283098333 87.02014283098333 87.02014283098333 87.02014283098333 87.02014283098333 87.02014283098333 87.02014283098333 87.02014283098333 87.02014283098333 87.02014283098333 87.02014283098333 87.02014283098333 87.02014283098333 87.02014283098333 86.98937923457241 86.98937923457241 86.98937923457241 86.98937923457241 86.9586156381615 86.92785204175058 86.89708844533968 86.89708844533968 86.86632484892877 86.83556125251785 86.80479765610693 86.80479765610693 86.77403405969602 86.77403405969602 86.74327046328511 86.74327046328511 86.74327046328511 86.7125068668742 86.7125068668742 86.7125068668742 86.7125068668742 86.7125068668742 86.7125068668742 86.7125068668742 86.7125068668742 86.7125068668742 86.7125068668742 86.65097967405237 86.58945248123054 86.52792528840871 86.46639809558688 86.37410730635415 86.34334370994324 86.2818165171214 86.15876213147774 86.09723493865592 86.09723493865592 86.03570774583409 86.00494414942318 86.00494414942318 86.00494414942318 86.00494414942318 86.00494414942318 86.00494414942318 86.00494414942318 86.00494414942318 86.00494414942318 86.00494414942318 86.00494414942318 86.00494414942318 86.00494414942318 86.00494414942318 86.00494414942318 86.00494414942318 86.00494414942318 86.00494414942318 86.00494414942318 86.00494414942318 85.97418055301226 85.94341695660134 85.94341695660134 85.91265336019043 85.91265336019043 85.91265336019043 85.91265336019043 85.91265336019043 85.88188976377953 85.88188976377953 85.88188976377953 85.88188976377953 85.8511261673686 85.8511261673686 85.8511261673686 85.8511261673686 85.8511261673686 85.8511261673686 85.8511261673686 85.8511261673686 85.8511261673686 85.8511261673686 85.8511261673686 85.8511261673686 85.8511261673686 85.8203625709577 85.8203625709577 85.78959897454678 85.75883537813587 85.75883537813587 85.72807178172496 85.69730818531404 85.66654458890312 85.66654458890312 85.66654458890312 85.66654458890312 85.63578099249222 85.63578099249222 85.63578099249222 85.60501739608131 85.60501739608131 85.57425379967039 85.54349020325947 85.54349020325947 85.51272660684856 85.48196301043765 85.45119941402672 85.45119941402672 85.3896722212049 85.358908624794 85.32814502838306 85.29738143197216 85.26661783556125 85.26661783556125 85.23585423915033 85.20509064273942 85.1743270463285 85.1435634499176 85.1435634499176 85.11279985350667 85.11279985350667 85.11279985350667 85.11279985350667 85.11279985350667 85.11279985350667 85.11279985350667 85.1435634499176 85.11279985350667 85.11279985350667 85.11279985350667 85.1435634499176 85.11279985350667 85.08203625709577 85.05127266068484 85.02050906427394 84.98974546786303 84.92821827504119 84.89745467863028 84.83592748580845 84.80516388939753 84.80516388939753 84.77440029298663 84.77440029298663 84.74363669657572 84.74363669657572 84.74363669657572 84.74363669657572 84.74363669657572 84.74363669657572 84.74363669657572 84.74363669657572 84.74363669657572 84.74363669657572 84.74363669657572 84.74363669657572 84.74363669657572 84.74363669657572 84.74363669657572 84.74363669657572 84.74363669657572 84.74363669657572 84.74363669657572 84.74363669657572 84.74363669657572 84.74363669657572 84.74363669657572 84.74363669657572 84.74363669657572 84.74363669657572 84.74363669657572 84.74363669657572 84.74363669657572 84.74363669657572 84.74363669657572 84.74363669657572 84.74363669657572 84.74363669657572 84.74363669657572 84.74363669657572 84.74363669657572 84.74363669657572 84.74363669657572 84.74363669657572 84.74363669657572 84.74363669657572 84.74363669657572 84.74363669657572 84.74363669657572 84.77440029298663 84.74363669657572 84.74363669657572 84.74363669657572 84.74363669657572 84.74363669657572 84.74363669657572 84.74363669657572 84.74363669657572 84.74363669657572 84.74363669657572 84.74363669657572 84.74363669657572 84.74363669657572 84.74363669657572 84.74363669657572 84.74363669657572 84.74363669657572 84.74363669657572 84.74363669657572 84.74363669657572 84.74363669657572 84.74363669657572 84.74363669657572 84.74363669657572 84.7128731001648 84.68210950375389 84.65134590734297 84.65134590734297 84.62058231093206 84.58981871452116 84.55905511811024 84.55905511811024 84.52829152169932 84.52829152169932 84.52829152169932 84.52829152169932 84.52829152169932 84.52829152169932 84.52829152169932 84.52829152169932 84.55905511811024 84.55905511811024 84.52829152169932 84.52829152169932 84.52829152169932 84.52829152169932 84.55905511811024 84.52829152169932 84.55905511811024 84.55905511811024 84.55905511811024 84.55905511811024 84.55905511811024 84.55905511811024 84.52829152169932 84.55905511811024 84.55905511811024 84.52829152169932 84.52829152169932 84.52829152169932 84.52829152169932 84.52829152169932 84.52829152169932 84.52829152169932 84.52829152169932 84.52829152169932 84.52829152169932 84.52829152169932 84.49752792528841 84.49752792528841 84.49752792528841 84.49752792528841 84.49752792528841 84.49752792528841 84.49752792528841 84.49752792528841 84.49752792528841 84.49752792528841 84.49752792528841 84.49752792528841 84.49752792528841 84.49752792528841 84.52829152169932 84.49752792528841 84.49752792528841 84.49752792528841 84.49752792528841 84.49752792528841 84.52829152169932 84.49752792528841 84.49752792528841 84.49752792528841 84.49752792528841 84.49752792528841 84.49752792528841 84.49752792528841 84.49752792528841 84.52829152169932 84.49752792528841 84.49752792528841 84.49752792528841 84.52829152169932 84.52829152169932 84.49752792528841 84.49752792528841 84.49752792528841 84.49752792528841 84.49752792528841 84.49752792528841 84.4667643288775 84.43600073246657 84.43600073246657 84.43600073246657 84.40523713605566 84.40523713605566 84.37447353964475 84.31294634682291 84.282182750412 84.282182750412 84.2514191540011 84.22065555759018 84.18989196117926 84.15912836476835 84.09760117194652 84.0360739791247 84.0360739791247 84.00531038271379 83.94378318989196 83.88225599707013 83.8207288042483 83.75920161142648 83.66691082219373 83.54385643655007 83.42080205090642 83.26698406885185 83.05163889397545 82.83629371909906 82.68247573704448 82.55942135140083 82.31331258011353 82.0364402124153 81.8210950375389 81.6057498626625 81.42116828419702 81.20582310932063 80.95971433803334 80.86742354880059 80.49826039186962 80.2213880241714 80.0368064457059 79.75993407800769 79.54458890313128 79.29848013184399 78.92931697491301 78.71397180003662 78.49862662516023 78.19099066105107 77.94488188976378 77.60648232924373 77.36037355795642 76.83739241897088 76.46822926203993 76.16059329793077 75.9760117194653 75.63761215894525 75.39150338765793 74.93004944149423 74.68394067020691 74.34554110968686 74.00714154916682 73.88408716352316 73.45339681377037 73.11499725325032 72.86888848196301 72.56125251785386 72.28438015015564 72.03827137886833 71.7306354147592 71.39223585423915 71.17689067936274 70.8384911188427 70.46932796191174 70.22321919062442 69.97711041933712 69.57718366599524 69.23878410547519 68.99267533418788 68.74656656290057 68.56198498443507 68.1620582310932 67.94671305621681 67.60831349569676 67.33144112799853 67.02380516388939 66.74693279619117 66.56235121772569 66.3470060428493 65.97784288591834 65.57791613257645 65.36257095770006 65.17798937923456 65.02417139718 64.83958981871451 64.62424464383813 64.47042666178355 64.22431789049625 63.88591832997619 63.73210034792162 63.578282365867054 63.239882805347 63.055301226881525 62.901483244826956 62.716901666361466 62.44002929866325 62.04010254532137 61.79399377403406 61.45559421351401 61.055667460172124 60.71726789965207 60.3173411463102 59.978941585790146 59.48672404321553 59.025270097051816 58.59457974729903 58.163889397546235 57.456326680095216 57.08716352316425 56.68723676982238 56.31807361289141 55.82585607031679 55.30287493133125 54.77989379234572 54.34920344259293 53.94927668925105 53.64164072514191 53.42629555026552 53.18018677897821 52.87255081486907 52.59567844717085 52.44186046511628 52.22651529023988 51.98040651895257 51.76506134407617 51.58047976561069 51.457425379967034 51.211316608679724 50.96520783739241 50.78062625892693 50.534517487639626 50.2576451199414 49.980772752243176 49.70390038454495 49.61160959531221 49.30397363120308 48.99633766709394 48.65793810657389 48.319538546053835 48.104193371177445 47.765793810657385 47.42739425013734 47.304339864493684 46.965940303973625 46.53524995422084 46.31990477934444 45.950741622413474 45.70463285112616 45.36623329060612 44.99707013367515 44.72019776597693 44.32027101263505 43.7665262772386 43.612708295184035 43.21278154184215 42.93590917414393 42.38216443874748 42.013001281816514 41.82841970335103 41.490020142830986 41.15162058231093 40.90551181102362 40.47482146127083 40.22871268998352 39.95184032228529 39.644204358176154 39.5211499725325 39.15198681560154 38.8443508514924 38.65976927302692 38.35213330891778 38.13678813404138 37.82915216993224 37.552279802234025 37.33693462735763 37.09082585607032 36.81395348837209 36.62937190990661 36.41402673503021 36.22944515656473 36.01409998168833 35.706464017579194 35.55264603552463 35.39882805347006 35.183482878593665 35.029664896539096 34.87584691448453 34.75279252884087 34.629738143197216 34.537447353964474 34.475920161142646 34.35286577549899 34.29133858267716 34.19904779344442 34.04522981138985 33.983702618568024 33.89141182933528 33.79912104010255 33.73759384728072 33.614539461637065 33.522248672404324 33.368430690349754 33.214612708295185 33.15308551547336 33.0300311298297 32.93774034059696 32.78392235854239 32.72239516572056 32.59934078007691 32.414759201611425 32.29170481596777 32.23017762314594 32.107123237502286 32.014832448269544 31.95330525544772 31.86101446621498 31.768723676982237 31.70719648416041 31.64566929133858 31.55337850210584 31.55337850210584 31.461087712873102 31.430324116462188 31.399560520051274 31.307269730818533 31.245742537996705 31.153451748763963 31.12268815235305 31.06116095953122 30.999633766709394 30.96887017029848 30.938106573887566 30.87657938106574 30.753524995422083 30.691997802600255 30.630470609778428 30.599707013367514 30.538179820545686 30.47665262772386 30.38436183849112 30.353598242080206 30.29207104925838 30.261307452847465 30.199780260025637 30.13825306720381 30.045962277971068 29.98443508514924 29.922907892327412 29.861380699505585 29.799853506683757 29.707562717451015 29.646035524629188 29.58450833180736 29.553744735396446 29.522981138985532 29.49221754257462 29.49221754257462 29.49221754257462 29.49221754257462 29.49221754257462 29.49221754257462 29.49221754257462 29.49221754257462 29.461453946163708 29.461453946163708 29.461453946163708 29.461453946163708 29.461453946163708 29.461453946163708 29.461453946163708 29.461453946163708 29.461453946163708 29.461453946163708 29.461453946163708 29.461453946163708 29.461453946163708 29.461453946163708 29.461453946163708 29.461453946163708 29.430690349752794 29.461453946163708 29.430690349752794 29.430690349752794 29.430690349752794 29.430690349752794 29.430690349752794 29.430690349752794 29.430690349752794 29.430690349752794 29.430690349752794 29.430690349752794 29.430690349752794 29.430690349752794 29.430690349752794 29.430690349752794 29.430690349752794 29.430690349752794 29.430690349752794 29.430690349752794 29.430690349752794 29.430690349752794 29.430690349752794 29.430690349752794 29.430690349752794 29.430690349752794 29.430690349752794 29.430690349752794 29.430690349752794 29.430690349752794 29.430690349752794 29.430690349752794 29.430690349752794 29.39992675334188 29.39992675334188 29.39992675334188 29.430690349752794 29.430690349752794 29.39992675334188 29.430690349752794 29.39992675334188 29.39992675334188 29.39992675334188 29.39992675334188 29.430690349752794 29.39992675334188 29.39992675334188 29.39992675334188 29.430690349752794 29.39992675334188 29.430690349752794 29.39992675334188 29.39992675334188 29.39992675334188 29.39992675334188 29.39992675334188 29.39992675334188 29.39992675334188 29.39992675334188 29.39992675334188 29.39992675334188 29.39992675334188 29.39992675334188 29.39992675334188 29.39992675334188 29.39992675334188 29.39992675334188 29.39992675334188 29.39992675334188 29.39992675334188 29.39992675334188 29.39992675334188 29.39992675334188 29.39992675334188 29.39992675334188 29.39992675334188 29.39992675334188 29.39992675334188 29.39992675334188 29.39992675334188 29.39992675334188 29.39992675334188 29.39992675334188 29.39992675334188 29.39992675334188 29.39992675334188 29.39992675334188 29.39992675334188 29.39992675334188 29.39992675334188 29.39992675334188 29.39992675334188 29.39992675334188 29.39992675334188 29.39992675334188 29.39992675334188 29.369163156930966 29.39992675334188 29.39992675334188 29.39992675334188 29.39992675334188 29.39992675334188 29.39992675334188 29.39992675334188 29.39992675334188 29.39992675334188 29.39992675334188 29.369163156930966 29.369163156930966 29.39992675334188 29.369163156930966 29.39992675334188 29.39992675334188 29.369163156930966 29.39992675334188 29.39992675334188 29.369163156930966 29.369163156930966 29.369163156930966 29.369163156930966 29.369163156930966 29.369163156930966 29.39992675334188 29.369163156930966 29.369163156930966 29.369163156930966 29.39992675334188 29.369163156930966 29.369163156930966 29.369163156930966 29.369163156930966 29.369163156930966 29.369163156930966 29.369163156930966 29.369163156930966 29.369163156930966 29.369163156930966 29.369163156930966 29.369163156930966 29.369163156930966 29.369163156930966 29.369163156930966 29.369163156930966 29.369163156930966 29.369163156930966 29.369163156930966 29.369163156930966 29.369163156930966 29.369163156930966 29.369163156930966 29.369163156930966 29.369163156930966 29.369163156930966 29.369163156930966 29.369163156930966 29.369163156930966 29.369163156930966 29.369163156930966 29.369163156930966 29.369163156930966 29.369163156930966 29.369163156930966 29.369163156930966 29.369163156930966 29.369163156930966 29.369163156930966 29.369163156930966 29.369163156930966 29.369163156930966 29.369163156930966 29.369163156930966 29.369163156930966 29.369163156930966 29.369163156930966 29.369163156930966 29.369163156930966 29.369163156930966 29.369163156930966 29.369163156930966 29.369163156930966 29.369163156930966 29.369163156930966 29.369163156930966 29.369163156930966 29.369163156930966 29.369163156930966 29.369163156930966 29.369163156930966 29.369163156930966 29.369163156930966 29.369163156930966 29.369163156930966 29.369163156930966 29.369163156930966 29.369163156930966 29.338399560520052 29.369163156930966 29.369163156930966 29.369163156930966 29.369163156930966 29.369163156930966 29.369163156930966 29.369163156930966 29.369163156930966 29.369163156930966 29.369163156930966 29.369163156930966 29.369163156930966 29.369163156930966 29.369163156930966 29.369163156930966 29.369163156930966 29.369163156930966 29.369163156930966 29.369163156930966 29.369163156930966 29.369163156930966 29.369163156930966 29.369163156930966 29.369163156930966 29.369163156930966 29.369163156930966 29.369163156930966 29.369163156930966 29.369163156930966 29.369163156930966 29.369163156930966 29.369163156930966 29.369163156930966 29.369163156930966 29.369163156930966 29.369163156930966 29.369163156930966 29.369163156930966 29.369163156930966 29.369163156930966 29.369163156930966 29.369163156930966 29.369163156930966 29.369163156930966 29.369163156930966 29.369163156930966 29.369163156930966 29.369163156930966 29.369163156930966 29.39992675334188 29.39992675334188 29.39992675334188 29.39992675334188 29.430690349752794 29.430690349752794 29.430690349752794 29.430690349752794 29.430690349752794 29.430690349752794 29.461453946163708 29.461453946163708 29.461453946163708 29.49221754257462 29.49221754257462 29.553744735396446 29.58450833180736 29.646035524629188 29.73832631386193 29.799853506683757 29.8921442959165 29.98443508514924 30.199780260025637 30.38436183849112 30.507416224134772 30.630470609778428 30.784288591832997 30.938106573887566 31.12268815235305 31.27650613440762 31.430324116462188 31.64566929133858 31.768723676982237 31.922541659036806 32.04559604468046 32.19941402673503 32.38399560520051 32.53781358725508 32.906976744186046 33.15308551547336 33.42995788317158 33.64530305804798 33.860648232924376 34.16828419703351 34.50668375755356 34.783556125251785 35.27577366782641 35.64493682475737 35.952572788866505 36.22944515656473 36.598608313495696 37.36769822376854 37.98297015198681 38.44442409815052 39.0596960263688 39.70573155099798 40.22871268998352 40.936275407434536 41.459256546420065 42.259110053103825 42.99743636696576 43.52041750595129 44.25874381981322 44.96630653726424 45.48928767624977 46.07379600805713 46.53524995422084 47.15052188243911 47.95037538912287 48.411829335286576 48.780992492217536 49.61160959531221 50.07306354147592 50.50375389122871 50.87291704815968 51.703534151254345 52.288042483061716 52.718732832814496 53.303241164621866 53.918513092840136 54.34920344259293 54.9644753708112 55.395165720563995 56.01043764878227 56.56418238417872 56.994872733931516 57.57938106573887 58.19465299395715 58.68687053653177 59.17908807910639 59.54825123603735 60.132759567844715 60.901849478117555 61.27101263504852 61.855520966855885 62.31697491301959 62.77842885918329 63.39370078740157 63.54751876945614 64.87035341512544 65.14722578282365 65.51638893975462 65.85478850027468 66.19318806079472 66.50082402490386 66.86998718183483 67.14685954953305 67.51602270646401 67.88518586339498 68.3774034059696 68.56198498443507 68.77733015931148 69.08496612342061 69.42336568394066 69.54642006958431 69.85405603369347 70.22321919062442 70.6231459439663 71.02307269730818 71.36147225782824 71.66910822193736 72.03827137886833 72.19208936092289 72.68430690349753 73.0842336568394 73.36110602453763 73.79179637429041 74.09943233839957 74.53012268815235 75.11463101995972 75.48379417689067 75.729902948178 76.12982970151987 76.43746566562899 76.8681560153818 77.17579197949092 77.72953671488739 78.09869987181834 78.28328145028382 78.65244460721479 79.02160776414576 79.26771653543307 79.66764328877494 79.94451565647316 80.19062442776048 80.4674967954587 80.65207837392418 80.8981871452115 81.1442959164988 81.29811389855337 81.54422266984068 81.69804065189524 81.91338582677164 82.06720380882622 82.2517853872917 82.34407617652444 82.40560336934627 82.4671305621681 82.52865775498992 82.55942135140083 82.59018494781176 82.59018494781176 82.59018494781176 82.59018494781176 82.59018494781176 82.59018494781176 82.59018494781176 82.59018494781176 82.59018494781176 82.59018494781176 82.59018494781176 82.55942135140083 82.59018494781176 82.59018494781176 82.59018494781176 82.59018494781176 82.59018494781176 82.59018494781176 82.59018494781176 82.59018494781176 82.55942135140083 82.59018494781176 82.59018494781176 82.59018494781176 82.59018494781176 82.59018494781176 82.59018494781176 82.59018494781176 82.59018494781176 82.59018494781176 82.59018494781176 82.59018494781176 82.55942135140083 82.55942135140083 82.55942135140083 82.55942135140083 82.55942135140083 82.52865775498992 82.52865775498992 82.52865775498992 82.52865775498992 82.52865775498992 82.52865775498992 82.52865775498992 82.52865775498992 82.52865775498992 82.52865775498992 82.52865775498992 82.52865775498992 82.52865775498992 82.52865775498992 82.52865775498992 82.49789415857902 82.49789415857902 82.4671305621681 82.4671305621681 82.4671305621681 82.43636696575717 82.40560336934627 82.37483977293536 82.34407617652444 82.34407617652444 82.28254898370261 82.2517853872917 82.22102179088078 82.19025819446988 82.15949459805896 82.09796740523714 82.09796740523714 82.09796740523714 82.0364402124153 82.0364402124153 81.97491301959349 81.97491301959349 81.91338582677164 81.88262223036074 81.88262223036074 81.85185863394983 81.8210950375389 81.8210950375389 81.8210950375389 81.79033144112799 81.8210950375389 81.79033144112799 81.8210950375389 81.8210950375389 81.8210950375389 81.8210950375389 81.8210950375389 81.85185863394983 81.85185863394983 81.8210950375389 81.8210950375389 81.85185863394983 81.8210950375389 81.8210950375389 81.8210950375389 81.79033144112799 81.79033144112799 81.79033144112799 81.79033144112799 81.79033144112799 81.79033144112799 81.79033144112799 81.79033144112799 81.79033144112799 81.79033144112799 81.79033144112799 81.75956784471708 81.72880424830618 81.72880424830618 81.69804065189524 81.66727705548433 81.66727705548433 81.66727705548433 81.66727705548433 81.66727705548433 81.66727705548433 81.66727705548433 81.66727705548433 81.66727705548433 81.66727705548433 81.66727705548433 81.66727705548433 81.66727705548433 81.66727705548433 81.66727705548433 81.66727705548433 81.63651345907343 81.6057498626625 81.54422266984068 81.48269547701886 81.48269547701886 81.42116828419702 81.42116828419702 81.42116828419702 81.39040468778612 81.42116828419702 81.42116828419702 81.42116828419702 81.42116828419702 81.42116828419702 81.42116828419702 81.42116828419702 81.39040468778612 81.39040468778612 81.39040468778612 81.35964109137521 81.35964109137521 81.35964109137521 81.35964109137521 81.35964109137521 81.35964109137521 81.35964109137521 81.35964109137521 81.35964109137521 81.35964109137521 81.35964109137521 81.35964109137521 81.35964109137521 81.35964109137521 81.35964109137521 81.35964109137521 81.35964109137521 81.32887749496429 81.29811389855337 81.29811389855337 81.29811389855337 81.26735030214246 81.26735030214246 81.23658670573155 81.23658670573155 81.23658670573155 81.23658670573155 81.23658670573155 81.20582310932063 81.23658670573155 81.20582310932063 81.20582310932063 81.20582310932063 81.20582310932063 81.17505951290971 81.17505951290971 81.17505951290971 81.1442959164988 81.1442959164988 81.1135323200879 81.08276872367698 81.08276872367698 81.05200512726607 81.02124153085515 80.99047793444424 80.95971433803334 80.95971433803334 80.9289507416224 80.9289507416224 80.9289507416224 80.9289507416224 80.9289507416224 80.9289507416224 80.9289507416224 80.9289507416224 80.9289507416224 80.9289507416224 80.9289507416224 80.9289507416224 80.9289507416224 80.9289507416224 80.95971433803334 80.95971433803334 80.95971433803334 80.95971433803334 80.95971433803334 80.95971433803334 80.95971433803334 80.95971433803334 80.95971433803334 80.95971433803334 80.95971433803334 80.95971433803334 80.95971433803334 80.9289507416224 80.9289507416224 80.9289507416224 80.9289507416224 80.9289507416224 80.95971433803334 80.9289507416224 80.95971433803334 80.95971433803334 80.9289507416224 80.95971433803334 80.95971433803334 80.95971433803334 80.95971433803334 80.95971433803334 80.95971433803334 80.95971433803334 80.95971433803334 80.95971433803334 80.95971433803334 80.95971433803334 80.9289507416224 80.9289507416224 80.9289507416224 80.9289507416224 80.86742354880059 80.80589635597875 80.71360556674601 80.68284197033509 80.59055118110236 80.49826039186962 80.4367331990478 80.31367881340414 80.2213880241714 80.12909723493865 80.006042849295 79.82146127082952 79.66764328877494 79.51382530672038 79.36000732466582 79.14466214978941 78.92931697491301 78.83702618568027 78.71397180003662 78.52939022157113 78.40633583592748 78.28328145028382 78.12946346822926 77.91411829335286 77.72953671488739 77.57571873283281 77.36037355795642 77.11426478666911 76.74510162973814 76.34517487639626 75.91448452664346 75.45303058047976 75.05310382713789 74.71470426661784 74.34554110968686 73.79179637429041 73.26881523530488 72.89965207837392 72.37667093938839 71.85368980040286 71.4845266434719 70.93078190807545 70.59238234755539 70.03863761215894 69.57718366599524 69.23878410547519 68.90038454495513 68.56198498443507 68.19282182750412 67.94671305621681 67.73136788134042 67.45449551364219 67.05456876030031 66.83922358542392 66.5931148141366 66.25471525361655 65.9163156930965 65.54715253616553 65.33180736128914 64.87035341512544 64.47042666178355 64.1012635048526 63.70133675151071 63.17835561252517 62.74766526277239 62.347738509430506 61.91704815967771 61.33253982787035 60.778795092473906 60.28657754989928 59.85588720014648 59.425196850393704 58.809924922175426 57.97930781908075 57.73319904779344 57.179454312397 56.441127998535066 56.041201245193186 55.51822010620765 55.33363852774217 54.68760300311298 54.226149056949275 53.980040285661964 53.45705914667643 53.057132393334555 52.718732832814496 52.34956967588353 52.0419337117744 51.58047976561069 51.11902581944699 50.842153451748764 50.380699505585056 49.980772752243176 49.580845998901296 49.08862845632668 48.75022889580663 48.319538546053835 47.98113898553378 47.67350302142465 47.27357626808276 46.658304339864486 46.31990477934444 45.79692364035891 45.427760483427946 44.874015748031496 44.227980223402305 43.79728987364952 43.15125434902033 42.47445522798022 41.9822376854056 41.3054385643655 40.81322102179088 40.1979490935726 39.428859183299764 39.028932429957884 38.65976927302692 38.29060611609595 37.767624977110415 37.306171030946714 36.87548068119392 36.506317524262954 36.13715436733199 35.9218091924556 35.737227613990115 35.583409631935545 35.24501007141549 34.96813770371727 34.75279252884087 34.41439296832082 34.075993407800766 34.01446621497894 33.89141182933528 33.76835744369163 33.614539461637065 33.42995788317158 33.33766709393884 33.2453763047061 33.060794726240616 32.968503937007874 32.906976744186046 32.78392235854239 32.63010437648782 32.44552279802234 32.32246841237868 32.107123237502286 31.984068851858634 31.922541659036806 31.86101446621498 31.830250869804065 31.737960080571323 31.676432887749495 31.614905694927668 31.522614905694926 31.399560520051274 31.307269730818533 31.184215345174877 31.12268815235305 31.030397363120308 30.938106573887566 30.907342977476652 30.81505218824391 30.691997802600255 30.5689434169566 30.538179820545686 30.47665262772386 30.38436183849112 30.29207104925838 30.23054385643655 30.13825306720381 29.98443508514924 29.922907892327412 29.83061710309467 29.769089910272843 29.707562717451015 29.615271928218274 29.522981138985532 29.49221754257462 29.461453946163708 29.39992675334188 29.39992675334188 29.369163156930966 29.369163156930966 29.369163156930966 29.369163156930966 29.369163156930966 29.369163156930966 29.369163156930966 29.369163156930966 29.369163156930966 29.369163156930966 29.338399560520052 29.338399560520052 29.338399560520052 29.338399560520052 29.338399560520052 29.338399560520052 29.338399560520052 29.30763596410914 29.338399560520052 29.338399560520052 29.30763596410914 29.30763596410914 29.30763596410914 29.30763596410914 29.30763596410914 29.30763596410914 29.30763596410914 29.30763596410914 29.30763596410914 29.30763596410914 29.30763596410914 29.30763596410914 29.30763596410914 29.30763596410914 29.30763596410914 29.30763596410914 29.30763596410914 29.30763596410914 29.30763596410914 29.276872367698225 29.30763596410914 29.30763596410914 29.30763596410914 29.30763596410914 29.30763596410914 29.276872367698225 29.30763596410914 29.30763596410914 29.30763596410914 29.30763596410914 29.276872367698225 29.30763596410914 29.30763596410914 29.276872367698225 29.30763596410914 29.30763596410914 29.276872367698225 29.30763596410914 29.30763596410914 29.276872367698225 29.30763596410914 29.276872367698225 29.30763596410914 29.276872367698225 29.276872367698225 29.276872367698225 29.276872367698225 29.276872367698225 29.276872367698225 29.276872367698225 29.276872367698225 29.276872367698225 29.30763596410914 29.276872367698225 29.276872367698225 29.276872367698225 29.276872367698225 29.276872367698225 29.276872367698225 29.276872367698225 29.276872367698225 29.276872367698225 29.276872367698225 29.276872367698225 29.276872367698225 29.276872367698225 29.276872367698225 29.276872367698225 29.276872367698225 29.276872367698225 29.276872367698225 29.276872367698225 29.276872367698225 29.276872367698225 29.276872367698225 29.276872367698225 29.276872367698225 29.276872367698225 29.276872367698225 29.276872367698225 29.276872367698225 29.276872367698225 29.276872367698225 29.276872367698225 29.276872367698225 29.276872367698225 29.276872367698225 29.276872367698225 29.276872367698225 29.276872367698225 29.276872367698225 29.276872367698225 29.276872367698225 29.276872367698225 29.276872367698225 29.276872367698225 29.276872367698225 29.276872367698225 29.276872367698225 29.276872367698225 29.276872367698225 29.276872367698225 29.276872367698225 29.276872367698225 29.276872367698225 29.276872367698225 29.276872367698225 29.276872367698225 29.276872367698225 29.276872367698225 29.276872367698225 29.276872367698225 29.276872367698225 29.276872367698225 29.276872367698225 29.276872367698225 29.276872367698225 29.276872367698225 29.276872367698225 29.276872367698225 29.276872367698225 29.276872367698225 29.276872367698225 29.24610877128731 29.276872367698225 29.276872367698225 29.276872367698225 29.276872367698225 29.276872367698225 29.276872367698225 29.276872367698225 29.276872367698225 29.276872367698225 29.276872367698225 29.276872367698225 29.276872367698225 29.276872367698225 29.276872367698225 29.276872367698225 29.276872367698225 29.276872367698225 29.276872367698225 29.276872367698225 29.276872367698225 29.276872367698225 29.276872367698225 29.24610877128731 29.24610877128731 29.276872367698225 29.276872367698225 29.276872367698225 29.24610877128731 29.276872367698225 29.276872367698225 29.24610877128731 29.24610877128731 29.24610877128731 29.276872367698225 29.24610877128731 29.276872367698225 29.24610877128731 29.276872367698225 29.24610877128731 29.276872367698225 29.276872367698225 29.276872367698225 29.276872367698225 29.24610877128731 29.276872367698225 29.24610877128731 29.24610877128731 29.276872367698225 29.24610877128731 29.24610877128731 29.276872367698225 29.24610877128731 29.276872367698225 29.276872367698225 29.276872367698225 29.276872367698225 29.276872367698225 29.276872367698225 29.24610877128731 29.276872367698225 29.276872367698225 29.276872367698225 29.276872367698225 29.276872367698225 29.276872367698225 29.276872367698225 29.276872367698225 29.276872367698225 29.276872367698225 29.276872367698225 29.276872367698225 29.276872367698225 29.276872367698225 29.276872367698225 29.276872367698225 29.276872367698225 29.276872367698225 29.276872367698225 29.276872367698225 29.276872367698225 29.276872367698225 29.276872367698225 29.276872367698225 29.276872367698225 29.276872367698225 29.276872367698225 29.276872367698225 29.276872367698225 29.276872367698225 29.276872367698225 29.30763596410914 29.30763596410914 29.30763596410914 29.30763596410914 29.30763596410914 29.30763596410914 29.30763596410914 29.30763596410914 29.30763596410914 29.30763596410914 29.30763596410914 29.338399560520052 29.338399560520052 29.338399560520052 29.338399560520052 29.338399560520052 29.338399560520052 29.369163156930966 29.369163156930966 29.369163156930966 29.39992675334188 29.39992675334188 29.39992675334188 29.430690349752794 29.461453946163708 29.522981138985532 29.58450833180736 29.646035524629188 29.73832631386193 29.799853506683757 29.953671488738326 30.107489470792896 30.29207104925838 30.507416224134772 30.691997802600255 30.87657938106574 31.153451748763963 31.338033327229446 31.614905694927668 31.79948727339315 32.014832448269544 32.23017762314594 32.47628639443325 32.63010437648782 32.87621314777513 33.09155832265153 33.42995788317158 33.7068302508698 34.10675700421168 34.383629371909905 34.56821095037539 34.96813770371727 35.30653726423732 35.583409631935545 35.98333638527742 36.32173594579747 36.84471708478301 37.398461820179456 37.89067936275407 38.38289690532869 38.99816883354697 39.39809558688884 39.982603918696206 40.413294268449 41.05932979307819 41.67460172129647 42.16681926387108 42.84361838491119 43.274308734663975 43.981871452114994 44.90477934444241 45.396996887017025 45.88921442959165 46.84288591832997 47.33510346090459 47.82732100347921 48.35030214246475 49.334737227613985 50.10382713788683 50.62680827687237 51.27284380150155 51.98040651895257 52.56491485075993 53.14942318256729 53.610877128731005 54.2876762497711 54.90294817798937 55.36440212415309 56.16425563083684 56.656473173411456 57.08716352316425 57.517853872917044 57.88701702984801 58.40999816883354 59.05603369346274 59.425196850393704 59.886650796557404 60.3173411463102 60.62497711041934 60.932613074528476 61.240249038637614 61.79399377403406 62.255447720197765 62.5630836843069 63.055301226881525 63.516755173045226 63.88591832997619 64.25508148690716 64.71653543307087 65.27028016846731 65.79326130745284 66.1316608679729 66.71616919978025 67.45449551364219 67.88518586339498 68.31587621314777 68.68503937007873 69.300311298297 69.91558322651528 70.53085515473356 71.11536348654093 71.66910822193736 72.13056216810108 72.49972532503205 72.86888848196301 73.5149240065922 74.03790514557772 74.43783189891961 74.89928584508331 75.23768540560337 75.69913935176706 76.28364768357443 76.43746566562899 76.83739241897088 77.26808276872367 77.63724592565464 78.09869987181834 78.4370994323384 79.0831349569676 79.54458890313128 79.69840688518586 80.09833363852775 80.49826039186962 80.86742354880059 81.39040468778612 81.72880424830618 82.12873100164805 82.55942135140083 82.71323933345542 83.20545687603003 83.54385643655007 83.75920161142648 84.00531038271379 84.15912836476835 84.34370994323385 84.43600073246657 84.4667643288775 84.49752792528841 84.49752792528841 84.49752792528841 84.49752792528841 84.49752792528841 84.49752792528841 84.49752792528841 84.49752792528841 84.49752792528841 84.4667643288775 84.4667643288775 84.49752792528841 84.4667643288775 84.4667643288775 84.4667643288775 84.49752792528841 84.49752792528841 84.49752792528841 84.49752792528841 84.4667643288775 84.49752792528841 84.49752792528841 84.4667643288775 84.4667643288775 84.4667643288775 84.4667643288775 84.4667643288775 84.43600073246657 84.37447353964475 84.31294634682291 84.31294634682291 84.2514191540011 84.22065555759018 84.18989196117926 84.15912836476835 84.09760117194652 84.06683757553562 84.0360739791247 83.97454678630287 83.94378318989196 83.91301959348104 83.88225599707013 83.85149240065923 83.78996520783738 83.75920161142648 83.69767441860465 83.69767441860465 83.66691082219373 83.63614722578282 83.60538362937191 83.60538362937191 83.54385643655007 83.51309284013917 83.48232924372826 83.45156564731735 83.45156564731735 83.42080205090642 83.39003845449551 83.39003845449551 83.39003845449551 83.39003845449551 83.39003845449551 83.39003845449551 83.39003845449551 83.39003845449551 83.39003845449551 83.39003845449551 83.39003845449551 83.39003845449551 83.39003845449551 83.39003845449551 83.39003845449551 83.39003845449551 83.39003845449551 83.39003845449551 83.39003845449551 83.39003845449551 83.42080205090642 83.39003845449551 83.42080205090642 83.42080205090642 83.42080205090642 83.42080205090642 83.39003845449551 83.42080205090642 83.39003845449551 83.42080205090642 83.42080205090642 83.42080205090642 83.42080205090642 83.42080205090642 83.42080205090642 83.45156564731735 83.45156564731735 83.45156564731735 83.45156564731735 83.48232924372826 83.48232924372826 83.51309284013917 83.54385643655007 83.57462003296098 83.57462003296098 83.60538362937191 83.60538362937191 83.60538362937191 83.60538362937191 83.60538362937191 83.60538362937191 83.60538362937191 83.60538362937191 83.60538362937191 83.60538362937191 83.60538362937191 83.60538362937191 83.60538362937191 83.60538362937191 83.60538362937191 83.60538362937191 83.60538362937191 83.60538362937191 83.60538362937191 83.60538362937191 83.60538362937191 83.60538362937191 83.60538362937191 83.57462003296098 83.60538362937191 83.57462003296098 83.57462003296098 83.57462003296098 83.57462003296098 83.57462003296098 83.57462003296098 83.57462003296098 83.57462003296098 83.57462003296098 83.60538362937191 83.60538362937191 83.60538362937191 83.60538362937191 83.60538362937191 83.60538362937191 83.63614722578282 83.63614722578282 83.63614722578282 83.63614722578282 83.63614722578282 83.63614722578282 83.63614722578282 83.63614722578282 83.63614722578282 83.63614722578282 83.63614722578282 83.63614722578282 83.63614722578282 83.63614722578282 83.63614722578282 83.63614722578282 83.63614722578282 83.63614722578282 83.63614722578282 83.63614722578282 83.63614722578282 83.60538362937191 83.63614722578282 83.63614722578282 83.63614722578282 83.63614722578282 83.63614722578282 83.60538362937191 83.60538362937191 83.60538362937191 83.60538362937191 83.63614722578282 83.60538362937191 83.63614722578282 83.60538362937191 83.63614722578282 83.60538362937191 83.60538362937191 83.57462003296098 83.57462003296098 83.57462003296098 83.54385643655007 83.54385643655007 83.54385643655007 83.54385643655007 83.54385643655007 83.54385643655007 83.54385643655007 83.54385643655007 83.57462003296098 83.54385643655007 83.51309284013917 83.51309284013917 83.51309284013917 83.48232924372826 83.48232924372826 83.48232924372826 83.48232924372826 83.45156564731735 83.45156564731735 83.45156564731735 83.45156564731735 83.45156564731735 83.45156564731735 83.45156564731735 83.45156564731735 83.48232924372826 83.48232924372826 83.48232924372826 83.45156564731735 83.48232924372826 83.48232924372826 83.48232924372826 83.48232924372826 83.48232924372826 83.48232924372826 83.48232924372826 83.48232924372826 83.45156564731735 83.48232924372826 83.48232924372826 83.45156564731735 83.48232924372826 83.48232924372826 83.45156564731735 83.45156564731735 83.45156564731735 83.45156564731735 83.48232924372826 83.45156564731735 83.48232924372826 83.48232924372826 83.48232924372826 83.48232924372826 83.48232924372826 83.45156564731735 83.45156564731735 83.45156564731735 83.45156564731735 83.45156564731735 83.45156564731735 83.45156564731735 83.45156564731735 83.45156564731735 83.45156564731735 83.45156564731735 83.45156564731735 83.45156564731735 83.45156564731735 83.45156564731735 83.45156564731735 83.45156564731735 83.42080205090642 83.35927485808459 83.32851126167368 83.29774766526276 83.29774766526276 83.26698406885185 83.20545687603003 83.1439296832082 83.11316608679729 82.99011170115364 82.86705731550998 82.77476652627723 82.65171214063358 82.49789415857902 82.37483977293536 82.19025819446988 82.06720380882622 81.85185863394983 81.69804065189524 81.48269547701886 81.1442959164988 80.9289507416224 80.74436916315693 80.52902398828053 80.28291521699322 79.97527925288409 79.75993407800769 79.36000732466582 79.05237136055666 78.80626258926935 78.59091741439296 78.37557223951657 78.03717267899651 77.57571873283281 77.23731917231275 76.92968320820361 76.49899285845083 76.16059329793077 75.66837575535615 75.23768540560337 74.74546786302875 74.34554110968686 74.06866874198865 73.57645119941402 73.05347006042848 72.46896172862114 72.00750778245742 71.63834462552646 71.20765427577366 70.59238234755539 70.25398278703534 69.45412928035158 68.86962094854422 68.53122138802416 68.1620582310932 67.76213147775132 67.08533235671122 66.50082402490386 66.00860648232924 65.57791613257645 64.99340780076909 64.5627174510163 64.03973631203075 63.60904596227797 63.08606482329243 62.50155649148507 61.855520966855885 61.48635780992492 60.901849478117555 60.440395531953854 59.732832814502835 59.24061527192821 58.7483977293536 58.1023622047244 57.4255630836843 56.77952755905512 56.13349203442593 55.70280168467313 55.27211133492034 54.68760300311298 54.19538546053836 53.67240432155283 53.24171397180004 52.811023622047244 52.44186046511628 51.91887932613075 51.42666178355613 51.05749862662516 50.62680827687237 50.16535433070866 49.85771836659953 49.21168284197033 48.84251968503936 48.35030214246475 47.95037538912287 47.61197582860282 47.304339864493684 46.84288591832997 46.38143197216627 45.91997802600257 45.643105658304336 45.21241530855154 44.81248855520967 44.56637978392236 44.16645303058048 43.79728987364952 43.48965390954038 43.21278154184215 42.966672770554844 42.505218824391136 42.16681926387108 42.04376487822743 41.7668925105292 41.490020142830986 41.27467496795458 40.997802600256364 40.690166636147225 40.444057864859914 40.1979490935726 40.044131111518034 39.79802234023072 39.5211499725325 39.18275041201245 38.90587804431423 38.629005676616 38.35213330891778 38.04449734480864 37.798388573521336 37.4907526094122 37.18311664530306 36.906244277604834 36.62937190990661 36.444790331441126 36.106390770921074 35.706464017579194 35.52188243911371 35.337300860648234 35.12195568577184 34.937374107306354 34.66050173960813 34.50668375755356 34.29133858267716 34.16828419703351 34.04522981138985 33.95293902215711 33.860648232924376 33.64530305804798 33.460721479582496 33.2453763047061 33.060794726240616 32.906976744186046 32.75315876213148 32.507049990844166 32.32246841237868 32.107123237502286 31.95330525544772 31.86101446621498 31.70719648416041 31.584142098516754 31.461087712873102 31.399560520051274 31.36879692364036 31.307269730818533 31.21497894158579 31.153451748763963 31.091924555942136 30.938106573887566 30.81505218824391 30.691997802600255 30.5689434169566 30.38436183849112 30.322834645669293 30.261307452847465 30.199780260025637 30.107489470792896 30.07672587438198 30.015198681560154 29.98443508514924 29.953671488738326 29.922907892327412 29.8921442959165 29.8921442959165 29.861380699505585 29.861380699505585 29.861380699505585 29.861380699505585 29.861380699505585 29.83061710309467 29.83061710309467 29.83061710309467 29.799853506683757 29.799853506683757 29.769089910272843 29.769089910272843 29.73832631386193 29.73832631386193 29.707562717451015 29.707562717451015 29.707562717451015 29.6767991210401 29.6767991210401 29.707562717451015 29.6767991210401 29.6767991210401 29.6767991210401 29.6767991210401 29.6767991210401 29.6767991210401 29.646035524629188 29.646035524629188 29.6767991210401 29.646035524629188 29.646035524629188 29.646035524629188 29.646035524629188 29.646035524629188 29.646035524629188 29.646035524629188 29.646035524629188 29.646035524629188 29.646035524629188 29.646035524629188 29.615271928218274 29.646035524629188 29.615271928218274 29.646035524629188 29.615271928218274 29.615271928218274 29.615271928218274 29.58450833180736 29.58450833180736 29.58450833180736 29.58450833180736 29.58450833180736 29.553744735396446 29.58450833180736 29.553744735396446 29.553744735396446 29.553744735396446 29.553744735396446 29.553744735396446 29.553744735396446 29.553744735396446 29.553744735396446 29.553744735396446 29.553744735396446 29.553744735396446 29.553744735396446 29.553744735396446 29.522981138985532 29.522981138985532 29.553744735396446 29.553744735396446 29.522981138985532 29.522981138985532 29.522981138985532 29.522981138985532 29.522981138985532 29.522981138985532 29.522981138985532 29.522981138985532 29.522981138985532 29.522981138985532 29.522981138985532 29.522981138985532 29.522981138985532 29.522981138985532 29.522981138985532 29.522981138985532 29.522981138985532 29.522981138985532 29.49221754257462 29.522981138985532 29.49221754257462 29.49221754257462 29.49221754257462 29.49221754257462 29.49221754257462 29.49221754257462 29.49221754257462 29.49221754257462 29.461453946163708 29.461453946163708 29.49221754257462 29.49221754257462 29.461453946163708 29.430690349752794 29.430690349752794 29.430690349752794 29.430690349752794 29.39992675334188 29.39992675334188 29.430690349752794 29.430690349752794 29.39992675334188 29.430690349752794 29.430690349752794 29.39992675334188 29.39992675334188 29.39992675334188 29.39992675334188 29.39992675334188 29.39992675334188 29.39992675334188 29.39992675334188 29.39992675334188 29.39992675334188 29.39992675334188 29.39992675334188 29.39992675334188 29.39992675334188 29.39992675334188 29.39992675334188 29.39992675334188 29.39992675334188 29.39992675334188 29.39992675334188 29.39992675334188 29.39992675334188 29.39992675334188 29.39992675334188 29.39992675334188 29.39992675334188 29.39992675334188 29.39992675334188 29.39992675334188 29.39992675334188 29.39992675334188 29.39992675334188 29.39992675334188 29.39992675334188 29.39992675334188 29.39992675334188 29.39992675334188 29.39992675334188 29.39992675334188 29.39992675334188 29.39992675334188 29.39992675334188 29.39992675334188 29.39992675334188 29.39992675334188 29.39992675334188 29.39992675334188 29.39992675334188 29.39992675334188 29.39992675334188 29.369163156930966 29.369163156930966 29.369163156930966 29.369163156930966 29.369163156930966 29.369163156930966 29.338399560520052 29.338399560520052 29.369163156930966 29.338399560520052 29.338399560520052 29.338399560520052 29.338399560520052 29.338399560520052 29.338399560520052 29.338399560520052 29.338399560520052 29.30763596410914 29.338399560520052 29.30763596410914 29.30763596410914 29.30763596410914 29.30763596410914 29.30763596410914 29.30763596410914 29.30763596410914 29.30763596410914 29.30763596410914 29.276872367698225 29.276872367698225 29.276872367698225 29.276872367698225 29.276872367698225 29.276872367698225 29.276872367698225 29.24610877128731 29.276872367698225 29.24610877128731 29.276872367698225 29.276872367698225 29.24610877128731 29.276872367698225 29.276872367698225 29.276872367698225 29.276872367698225 29.24610877128731 29.276872367698225 29.276872367698225 29.276872367698225 29.276872367698225 29.24610877128731 29.276872367698225 29.276872367698225 29.24610877128731 29.276872367698225 29.276872367698225 29.276872367698225 29.276872367698225 29.276872367698225 29.276872367698225 29.276872367698225 29.276872367698225 29.276872367698225 29.276872367698225 29.276872367698225 29.276872367698225 29.276872367698225 29.276872367698225 29.276872367698225 29.276872367698225 29.276872367698225 29.276872367698225 29.276872367698225 29.276872367698225 29.276872367698225 29.276872367698225 29.276872367698225 29.276872367698225 29.276872367698225 29.24610877128731 29.276872367698225 29.276872367698225 29.276872367698225 29.276872367698225 29.276872367698225 29.276872367698225 29.276872367698225 29.276872367698225 29.276872367698225 29.276872367698225 29.276872367698225 29.30763596410914 29.30763596410914 29.30763596410914 29.30763596410914 29.338399560520052 29.338399560520052 29.369163156930966 29.39992675334188 29.39992675334188 29.430690349752794 29.430690349752794 29.49221754257462 29.553744735396446 29.615271928218274 29.73832631386193 29.83061710309467 30.015198681560154 30.23054385643655 30.38436183849112 30.5689434169566 30.72276139901117 31.06116095953122 31.338033327229446 31.55337850210584 31.70719648416041 31.95330525544772 32.04559604468046 32.168650430324114 32.3532320087896 32.568577183665994 32.78392235854239 32.906976744186046 33.2453763047061 33.49148507599341 33.7068302508698 34.01446621497894 34.32210217908808 34.5989745467863 34.937374107306354 35.183482878593665 35.61417322834646 36.106390770921074 36.506317524262954 37.306171030946714 37.767624977110415 38.19831532686321 39.028932429957884 39.582677165354326 40.044131111518034 40.78245742537997 41.27467496795458 41.951474088994686 42.38216443874748 43.0897271561985 43.73576268082768 44.19721662699139 44.874015748031496 45.5508148690716 46.07379600805713 46.750595129097235 47.36586705731551 48.165720563999265 48.62717451016297 49.05786485991577 49.70390038454495 50.31917231276323 50.71909906610511 51.51895257278886 51.88811572971983 52.47262406152719 53.026368796923634 53.48782274308734 53.85698590001831 54.25691265336019 54.872184581578466 55.395165720563995 55.79509247390588 56.25654642006958 56.77952755905512 57.117927119575164 57.6409082585607 57.97930781908075 58.47152536165537 58.93297930781908 59.332906061160955 59.732832814502835 60.40963193554294 60.778795092473906 61.17872184581578 61.701702984801315 62.07086614173228 62.62461087712873 63.14759201611426 63.63980955868888 64.1320271012635 64.53195385460538 64.77806262589269 65.08569859000184 65.63944332539828 66.10089727156199 66.37776963926021 66.83922358542392 67.2699139351767 67.60831349569676 68.06976744186046 68.40816700238051 68.93114814136604 69.4848928767625 69.9463468229262 70.43856436550081 71.17689067936274 71.57681743270463 72.00750778245742 72.34590734297747 72.89965207837392 73.48416041018129 73.94561435634498 74.49935909174144 75.02234023072697 75.36073979124703 75.729902948178 76.1913568943417 76.62204724409449 77.05273759384727 77.36037355795642 77.72953671488739 78.12946346822926 78.40633583592748 78.77549899285845 79.05237136055666 79.45229811389855 79.82146127082952 80.12909723493865 80.49826039186962 80.74436916315693 81.1135323200879 81.63651345907343 81.75956784471708 82.09796740523714 82.55942135140083 82.77476652627723 83.08240249038637 83.32851126167368 83.60538362937191 83.88225599707013 84.09760117194652 84.37447353964475 84.65134590734297 84.86669108221938 85.08203625709577 85.23585423915033 85.45119941402672 85.60501739608131 85.72807178172496 85.8203625709577 85.94341695660134 86.00494414942318 86.09723493865592 86.15876213147774 86.18952572788865 86.22028932429959 86.22028932429959 86.2818165171214 86.2818165171214 86.2818165171214 86.3125801135323 86.34334370994324 86.34334370994324 86.34334370994324 86.34334370994324 86.37410730635415 86.37410730635415 86.34334370994324 86.37410730635415 86.37410730635415 86.37410730635415 86.34334370994324 86.34334370994324 86.34334370994324 86.34334370994324 86.34334370994324 86.34334370994324 86.3125801135323 86.2818165171214 86.25105292071049 86.18952572788865 86.15876213147774 86.12799853506684 86.09723493865592 86.09723493865592 86.09723493865592 86.066471342245 86.03570774583409 86.03570774583409 86.03570774583409 86.00494414942318 86.00494414942318 85.97418055301226 85.97418055301226 85.94341695660134 85.91265336019043 85.88188976377953 85.8511261673686 85.8511261673686 85.8203625709577 85.78959897454678 85.72807178172496 85.72807178172496 85.69730818531404 85.66654458890312 85.66654458890312 85.63578099249222 85.63578099249222 85.63578099249222 85.63578099249222 85.63578099249222 85.63578099249222 85.60501739608131 85.60501739608131 85.60501739608131 85.60501739608131 85.57425379967039 85.54349020325947 85.54349020325947 85.54349020325947 85.51272660684856 85.51272660684856 85.48196301043765 85.45119941402672 85.3896722212049 85.358908624794 85.32814502838306 85.29738143197216 85.23585423915033 85.23585423915033 85.1743270463285 85.1435634499176 85.11279985350667 85.11279985350667 85.08203625709577 85.05127266068484 85.05127266068484 85.05127266068484 85.02050906427394 85.02050906427394 84.98974546786303 84.98974546786303 85.02050906427394 84.98974546786303 85.02050906427394 85.02050906427394 85.02050906427394 85.02050906427394 85.02050906427394 85.02050906427394 85.02050906427394 85.02050906427394 85.02050906427394 84.98974546786303 85.02050906427394 84.98974546786303 84.95898187145211 84.92821827504119 84.89745467863028 84.86669108221938 84.83592748580845 84.80516388939753 84.77440029298663 84.74363669657572 84.68210950375389 84.65134590734297 84.55905511811024 84.4667643288775 84.37447353964475 84.31294634682291 84.282182750412 84.18989196117926 84.12836476835744 84.09760117194652 84.06683757553562 84.0360739791247 84.00531038271379 84.0360739791247 84.00531038271379 84.0360739791247 84.0360739791247 84.06683757553562 84.06683757553562 84.06683757553562 84.09760117194652 84.09760117194652 84.09760117194652 84.12836476835744 84.12836476835744 84.12836476835744 84.12836476835744 84.12836476835744 84.12836476835744 84.09760117194652 84.09760117194652 84.09760117194652 84.09760117194652 84.06683757553562 84.06683757553562 84.06683757553562 84.06683757553562 84.06683757553562 84.06683757553562 84.06683757553562 84.06683757553562 84.06683757553562 84.06683757553562 84.06683757553562 84.06683757553562 84.06683757553562 84.06683757553562 84.06683757553562 84.06683757553562 84.06683757553562 84.06683757553562 84.0360739791247 84.00531038271379 83.97454678630287 83.94378318989196 83.91301959348104 83.85149240065923 83.8207288042483 83.75920161142648 83.72843801501557 83.66691082219373 83.63614722578282 83.60538362937191 83.60538362937191 83.60538362937191 83.60538362937191 83.60538362937191 83.57462003296098 83.57462003296098 83.60538362937191 83.60538362937191 83.60538362937191 83.60538362937191 83.60538362937191 83.60538362937191 83.57462003296098 83.57462003296098 83.57462003296098 83.57462003296098 83.57462003296098 83.57462003296098 83.57462003296098 83.57462003296098 83.57462003296098 83.57462003296098 83.60538362937191 83.60538362937191 83.60538362937191 83.63614722578282 83.63614722578282 83.63614722578282 83.63614722578282 83.63614722578282 83.63614722578282 83.66691082219373 83.63614722578282 83.66691082219373 83.66691082219373 83.69767441860465 83.66691082219373 83.66691082219373 83.69767441860465 83.69767441860465 83.66691082219373 83.69767441860465 83.66691082219373 83.69767441860465 83.66691082219373 83.66691082219373 83.66691082219373 83.66691082219373 83.66691082219373 83.66691082219373 83.66691082219373 83.66691082219373 83.66691082219373 83.66691082219373 83.66691082219373 83.69767441860465 83.69767441860465 83.69767441860465 83.66691082219373 83.69767441860465 83.66691082219373 83.69767441860465 83.66691082219373 83.66691082219373 83.66691082219373 83.69767441860465 83.66691082219373 83.69767441860465 83.69767441860465 83.75920161142648 83.75920161142648 83.75920161142648 83.78996520783738 83.78996520783738 83.8207288042483 83.8207288042483 83.8207288042483 83.78996520783738 83.8207288042483 83.78996520783738 83.8207288042483 83.78996520783738 83.78996520783738 83.78996520783738 83.78996520783738 83.78996520783738 83.78996520783738 83.78996520783738 83.78996520783738 83.78996520783738 83.78996520783738 83.78996520783738 83.78996520783738 83.75920161142648 83.75920161142648 83.75920161142648 83.63614722578282 83.48232924372826 83.39003845449551 83.1746932796191 83.02087529756454 82.83629371909906 82.68247573704448 82.37483977293536 82.12873100164805 81.97491301959349 81.85185863394983 81.6057498626625 81.42116828419702 81.17505951290971 80.99047793444424 80.71360556674601 80.4674967954587 80.28291521699322 80.006042849295 79.7906976744186 79.5753524995422 79.3292437282549 79.20618934261125 78.99084416773485 78.77549899285845 78.62168101080388 78.34480864310567 78.19099066105107 77.91411829335286 77.5449551364219 77.29884636513458 77.08350119025819 76.80662882255997 76.56052005127265 76.37593847280718 76.09906610510895 75.79143014099981 75.45303058047976 75.20692180919245 74.8377586522615 74.43783189891961 74.16095953122138 73.7610327778795 73.36110602453763 73.02270646401757 72.56125251785386 72.28438015015564 71.66910822193736 71.20765427577366 70.90001831166452 70.59238234755539 70.28474638344625 69.82329243728255 69.17725691265336 68.8080937557224 68.40816700238051 67.97747665262773 67.63907709210767 67.30067753158761 66.99304156747849 66.3470060428493 65.9163156930965 65.57791613257645 65.17798937923456 64.77806262589269 64.5627174510163 64.22431789049625 64.00897271561985 63.79362754074345 63.54751876945614 63.33217359457974 63.08606482329243 62.77842885918329 62.50155649148507 62.19392052737594 62.04010254532137 61.82475737044497 61.547885002746746 61.27101263504852 60.96337667093938 60.778795092473906 60.47115912836477 60.16352316425563 59.91741439296832 59.67130562168101 59.332906061160955 59.086797289873644 58.779161325764505 58.533052554477194 58.22541659036806 57.79472624061527 57.6409082585607 57.39479948727339 57.056399926753336 56.87181834828786 56.53341878776781 56.28731001648049 55.85661966672771 55.48745650979674 55.27211133492034 54.99523896722212 54.53378502105841 54.25691265336019 53.980040285661964 53.73393151437466 53.27247756821095 53.057132393334555 52.811023622047244 52.47262406152719 52.19575169382897 51.949642922541656 51.54971616919978 51.42666178355613 51.11902581944699 50.78062625892693 50.442226698406884 50.16535433070866 49.79619117377769 49.51931880607947 48.96557407068302 48.65793810657389 48.35030214246475 47.765793810657385 47.42739425013734 47.15052188243911 46.56601355063175 46.196850393700785 45.85845083318073 45.61234206189343 45.21241530855154 44.84325215162058 44.59714338033327 44.25874381981322 44.01263504852591 43.70499908441677 43.366599523896724 43.15125434902033 42.75132759567845 42.47445522798022 42.259110053103825 42.013001281816514 41.82841970335103 41.5207837392419 41.15162058231093 40.936275407434536 40.6286394433254 40.290239882805345 40.07489470792895 39.82878593664164 39.49038637612159 39.09045962277971 38.78282365867057 38.53671488738326 38.167551730452296 37.859915766343164 37.4907526094122 37.24464383812489 36.998535066837576 36.66013550631752 36.32173594579747 36.044863578099246 35.55264603552463 35.183482878593665 34.96813770371727 34.783556125251785 34.5989745467863 34.29133858267716 34.16828419703351 33.983702618568024 33.860648232924376 33.67606665445889 33.55301226881524 33.460721479582496 33.30690349752793 33.15308551547336 32.99926753341879 32.906976744186046 32.72239516572056 32.507049990844166 32.32246841237868 32.107123237502286 31.984068851858634 31.830250869804065 31.70719648416041 31.64566929133858 31.55337850210584 31.430324116462188 31.36879692364036 31.27650613440762 31.245742537996705 31.153451748763963 31.091924555942136 30.999633766709394 30.96887017029848 30.938106573887566 30.907342977476652 30.845815784654825 30.81505218824391 30.753524995422083 30.66123420618934 30.630470609778428 30.538179820545686 30.47665262772386 30.415125434902034 30.29207104925838 30.261307452847465 30.169016663614723 30.045962277971068 29.98443508514924 29.8921442959165 29.861380699505585 29.799853506683757 29.73832631386193 29.707562717451015 29.646035524629188 29.615271928218274 29.615271928218274 29.58450833180736 29.58450833180736 29.553744735396446 29.522981138985532 29.49221754257462 29.461453946163708 29.461453946163708 29.430690349752794 29.430690349752794 29.430690349752794 29.430690349752794 29.39992675334188 29.39992675334188 29.39992675334188 29.430690349752794 29.39992675334188 29.39992675334188 29.430690349752794 29.39992675334188 29.39992675334188 29.39992675334188 29.39992675334188 29.39992675334188 29.39992675334188 29.39992675334188 29.39992675334188 29.39992675334188 29.39992675334188 29.369163156930966 29.39992675334188 29.39992675334188 29.39992675334188 29.39992675334188 29.39992675334188 29.39992675334188 29.39992675334188 29.39992675334188 29.39992675334188 29.39992675334188 29.39992675334188 29.39992675334188 29.39992675334188 29.39992675334188 29.39992675334188 29.39992675334188 29.39992675334188 29.369163156930966 29.39992675334188 29.39992675334188 29.369163156930966 29.39992675334188 29.369163156930966 29.39992675334188 29.39992675334188 29.369163156930966 29.369163156930966 29.39992675334188 29.369163156930966 29.369163156930966 29.369163156930966 29.39992675334188 29.369163156930966 29.369163156930966 29.369163156930966 29.369163156930966 29.369163156930966 29.39992675334188 29.369163156930966 29.369163156930966 29.369163156930966 29.369163156930966 29.39992675334188 29.39992675334188 29.369163156930966 29.369163156930966 29.369163156930966 29.369163156930966 29.39992675334188 29.369163156930966 29.39992675334188 29.369163156930966 29.39992675334188 29.369163156930966 29.369163156930966 29.39992675334188 29.369163156930966 29.39992675334188 29.39992675334188 29.369163156930966 29.39992675334188 29.39992675334188 29.369163156930966 29.369163156930966 29.369163156930966 29.39992675334188 29.369163156930966 29.39992675334188 29.369163156930966 29.369163156930966 29.39992675334188 29.369163156930966 29.39992675334188 29.369163156930966 29.39992675334188 29.369163156930966 29.369163156930966 29.39992675334188 29.369163156930966 29.39992675334188 29.369163156930966 29.369163156930966 29.39992675334188 29.369163156930966 29.39992675334188 29.369163156930966 29.39992675334188 29.39992675334188 29.39992675334188 29.369163156930966 29.369163156930966 29.39992675334188 29.39992675334188 29.39992675334188 29.369163156930966 29.369163156930966 29.369163156930966 29.369163156930966 29.369163156930966 29.369163156930966 29.369163156930966 29.369163156930966 29.39992675334188 29.369163156930966 29.369163156930966 29.369163156930966 29.39992675334188 29.369163156930966 29.369163156930966 29.369163156930966 29.369163156930966 29.369163156930966 29.369163156930966 29.369163156930966 29.369163156930966 29.369163156930966 29.369163156930966 29.369163156930966 29.369163156930966 29.369163156930966 29.369163156930966 29.369163156930966 29.369163156930966 29.369163156930966 29.369163156930966 29.369163156930966 29.369163156930966 29.369163156930966 29.369163156930966 29.369163156930966 29.369163156930966 29.369163156930966 29.369163156930966 29.369163156930966 29.369163156930966 29.369163156930966 29.369163156930966 29.369163156930966 29.369163156930966 29.369163156930966 29.369163156930966 29.369163156930966 29.369163156930966 29.369163156930966 29.369163156930966 29.369163156930966 29.369163156930966 29.369163156930966 29.369163156930966 29.369163156930966 29.369163156930966 29.369163156930966 29.369163156930966 29.369163156930966 29.369163156930966 29.369163156930966 29.369163156930966 29.369163156930966 29.369163156930966 29.369163156930966 29.369163156930966 29.369163156930966 29.369163156930966 29.369163156930966 29.369163156930966 29.369163156930966 29.369163156930966 29.369163156930966 29.369163156930966 29.369163156930966 29.369163156930966 29.369163156930966 29.369163156930966 29.369163156930966 29.369163156930966 29.369163156930966 29.369163156930966 29.369163156930966 29.369163156930966 29.369163156930966 29.369163156930966 29.369163156930966 29.369163156930966 29.369163156930966 29.369163156930966 29.369163156930966 29.369163156930966 29.369163156930966 29.369163156930966 29.369163156930966 29.369163156930966 29.39992675334188 29.39992675334188 29.39992675334188 29.39992675334188 29.39992675334188 29.430690349752794 29.49221754257462 29.49221754257462 29.522981138985532 29.522981138985532 29.553744735396446 29.58450833180736 29.615271928218274 29.646035524629188 29.6767991210401 29.707562717451015 29.769089910272843 29.83061710309467 29.953671488738326 30.045962277971068 30.169016663614723 30.353598242080206 30.47665262772386 30.630470609778428 30.784288591832997 30.938106573887566 31.153451748763963 31.307269730818533 31.522614905694926 31.614905694927668 31.737960080571323 31.86101446621498 32.014832448269544 32.168650430324114 32.44552279802234 32.59934078007691 32.75315876213148 32.99926753341879 33.2453763047061 33.42995788317158 33.67606665445889 33.89141182933528 34.19904779344442 34.66050173960813 34.99890130012818 35.337300860648234 35.79875480681194 36.13715436733199 36.62937190990661 37.18311664530306 37.67533418787768 38.19831532686321 38.65976927302692 39.028932429957884 39.45962277971067 39.982603918696206 40.50558505768174 40.997802600256364 41.490020142830986 42.07452847463834 42.47445522798022 43.058963559787585 43.42812671671855 43.981871452114994 44.59714338033327 45.089360922907886 45.48928767624977 46.196850393700785 46.56601355063175 46.996703900384546 47.36586705731551 47.85808459989013 48.411829335286576 48.719465299395715 49.39626442043581 49.91924555942135 50.34993590917414 50.74986266251602 51.18055301226882 51.76506134407617 52.288042483061716 52.718732832814496 53.18018677897821 53.67240432155283 54.01080388207288 54.47225782823658 54.81065738875664 55.21058414209851 55.61051089544039 55.91814685954953 56.348837209302324 56.77952755905512 57.056399926753336 57.517853872917044 57.94854422266984 58.317707379600805 58.96374290422999 59.30214246475004 59.732832814502835 60.22505035707745 60.594213514008416 60.901849478117555 61.17872184581578 61.609412195568574 62.13239333455411 62.31697491301959 62.65537447353964 63.055301226881525 63.36293719099066 63.85515473356528 64.19355429408533 64.71653543307087 65.17798937923456 65.54715253616553 66.25471525361655 66.74693279619117 67.14685954953305 67.51602270646401 67.82365867057315 68.28511261673685 68.93114814136604 69.300311298297 69.79252884087163 70.16169199780259 70.68467313678812 71.20765427577366 71.54605383629371 72.06903497527925 72.56125251785386 72.96117927119576 73.39186962094854 73.7302691814686 74.37630470609778 74.80699505585056 74.99157663431606 75.42226698406884 75.85295733382165 76.12982970151987 76.56052005127265 76.99121040102546 77.39113715436733 77.82182750412012 78.0064090825856 78.34480864310567 78.71397180003662 79.0831349569676 79.42153451748763 79.63687969236403 79.94451565647316 80.2213880241714 80.40596960263687 80.71360556674601 80.99047793444424 81.17505951290971 81.45193188060794 81.66727705548433 81.97491301959349 82.40560336934627 82.52865775498992 82.80553012268815 83.11316608679729 83.32851126167368 83.63614722578282 83.8207288042483 84.2514191540011 84.55905511811024 84.7128731001648 85.05127266068484 85.42043581761581 85.63578099249222 85.91265336019043 86.09723493865592 86.34334370994324 86.58945248123054 86.7125068668742 86.89708844533968 87.02014283098333 87.11243362021608 87.2047244094488 87.26625160227064 87.29701519868155 87.32777879509247 87.32777879509247 87.32777879509247 87.32777879509247 87.32777879509247 87.32777879509247 87.35854239150339 87.32777879509247 87.32777879509247 87.32777879509247 87.32777879509247 87.32777879509247 87.32777879509247 87.32777879509247 87.32777879509247 87.3893059879143 87.51236037355795 87.57388756637978 87.69694195202344 87.75846914484526 87.850759934078 87.97381431972167 88.06610510895439 88.21992309100898 88.2814502838308 88.40450466947445 88.55832265152901 88.65061344076176 88.80443142281632 88.95824940487088 89.01977659769273 89.08130379051455 89.11206738692547 89.14283098333638 89.14283098333638 89.17359457974729 89.17359457974729 89.23512177256913 89.26588536898004 89.29664896539094 89.35817615821279 89.4197033510346 89.4197033510346 89.48123054385643 89.51199414026735 89.54275773667825 89.57352133308916 89.60428492950008 89.635048525911 89.66581212232191 89.66581212232191 89.66581212232191 89.69657571873282 89.66581212232191 89.69657571873282 89.66581212232191 89.66581212232191 89.66581212232191 89.66581212232191 89.66581212232191 89.635048525911 89.635048525911 89.60428492950008 89.51199414026735 89.4197033510346 89.32741256180186 89.20435817615821 89.14283098333638 89.08130379051455 89.05054019410363 89.01977659769273 89.01977659769273 88.98901300128182 89.01977659769273 89.01977659769273 89.05054019410363 89.05054019410363 89.05054019410363 89.08130379051455 89.08130379051455 89.08130379051455 89.08130379051455 89.08130379051455 89.11206738692547 89.11206738692547 89.08130379051455 89.11206738692547 89.08130379051455 89.11206738692547 89.08130379051455 89.08130379051455 89.08130379051455 89.08130379051455 89.08130379051455 89.08130379051455 89.08130379051455 89.08130379051455 89.05054019410363 89.05054019410363 89.05054019410363 89.05054019410363 89.05054019410363 89.01977659769273 89.01977659769273 88.98901300128182 88.86595861563816 88.7429042299945 88.68137703717267 88.55832265152901 88.46603186229628 88.43526826588536 88.34297747665262 88.34297747665262 88.34297747665262 88.34297747665262 88.34297747665262 88.31221388024171 88.34297747665262 88.34297747665262 88.37374107306354 88.34297747665262 88.34297747665262 88.34297747665262 88.37374107306354 88.34297747665262 88.37374107306354 88.37374107306354 88.34297747665262 88.34297747665262 88.34297747665262 88.34297747665262 88.31221388024171 88.31221388024171 88.31221388024171 88.25068668741989 88.25068668741989 88.25068668741989 88.21992309100898 88.21992309100898 88.21992309100898 88.25068668741989 88.21992309100898 88.21992309100898 88.25068668741989 88.25068668741989 88.21992309100898 88.25068668741989 88.25068668741989 88.25068668741989 88.25068668741989 88.25068668741989 88.21992309100898 88.25068668741989 88.25068668741989 88.25068668741989 88.25068668741989 88.21992309100898 88.21992309100898 88.25068668741989 88.18915949459806 88.18915949459806 88.15839589818714 88.15839589818714 88.15839589818714 88.15839589818714 88.12763230177623 88.12763230177623 88.15839589818714 88.12763230177623 88.12763230177623 88.06610510895439 88.06610510895439 88.03534151254348 88.00457791613258 87.97381431972167 87.94305072331073 87.94305072331073 87.91228712689983 87.88152353048892 87.88152353048892 87.88152353048892 87.88152353048892 87.88152353048892 87.88152353048892 87.91228712689983 87.88152353048892 87.88152353048892 87.91228712689983 87.88152353048892 87.88152353048892 87.88152353048892 87.81999633766708 87.81999633766708 87.72770554843434 87.66617835561252 87.60465116279069 87.54312396996886 87.51236037355795 87.45083318073613 87.3893059879143 87.35854239150339 87.32777879509247 87.26625160227064 87.26625160227064 87.23548800585974 87.2047244094488 87.2047244094488 87.1739608130379 87.14319721662699 87.14319721662699 87.14319721662699 87.14319721662699 87.14319721662699 87.1739608130379 87.14319721662699 87.14319721662699 87.1739608130379 87.1739608130379 87.1739608130379 87.14319721662699 87.1739608130379 87.14319721662699 87.1739608130379 87.1739608130379 87.1739608130379 87.14319721662699 87.1739608130379 87.14319721662699 87.14319721662699 87.14319721662699 87.14319721662699 87.1739608130379 87.14319721662699 87.14319721662699 87.14319721662699 87.14319721662699 87.14319721662699 87.14319721662699 87.14319721662699 87.1739608130379 87.1739608130379 87.1739608130379 87.14319721662699 87.14319721662699 87.14319721662699 87.14319721662699 87.14319721662699 87.14319721662699 87.14319721662699 87.14319721662699 87.14319721662699 87.14319721662699 87.14319721662699 87.14319721662699 87.14319721662699 87.14319721662699 87.14319721662699 87.14319721662699 87.14319721662699 87.14319721662699 87.14319721662699 87.14319721662699 87.14319721662699 87.14319721662699 87.11243362021608 87.08167002380517 87.08167002380517 87.08167002380517 87.05090642739424 87.08167002380517 87.05090642739424 87.05090642739424 87.05090642739424 87.08167002380517 87.05090642739424 87.05090642739424 87.08167002380517 87.08167002380517 87.08167002380517 87.08167002380517 87.08167002380517 87.08167002380517 87.05090642739424 87.05090642739424 87.02014283098333 86.98937923457241 86.98937923457241 86.9586156381615 86.89708844533968 86.89708844533968 86.86632484892877 86.86632484892877 86.83556125251785 86.77403405969602 86.74327046328511 86.7125068668742 86.68174327046327 86.65097967405237 86.62021607764146 86.55868888481963 86.4971616919978 86.43563449917598 86.40487090276505 86.37410730635415 86.3125801135323 86.2818165171214 86.25105292071049 86.22028932429959 86.22028932429959 86.15876213147774 86.15876213147774 86.15876213147774 86.12799853506684 86.09723493865592 86.066471342245 86.00494414942318 85.91265336019043 85.78959897454678 85.63578099249222 85.48196301043765 85.20509064273942 84.92821827504119 84.74363669657572 84.34370994323385 84.15912836476835 83.97454678630287 83.63614722578282 83.45156564731735 83.23622047244095 82.86705731550998 82.68247573704448 82.43636696575717 82.2517853872917 81.97491301959349 81.66727705548433 81.39040468778612 81.05200512726607 80.68284197033509 80.40596960263687 79.97527925288409 79.63687969236403 79.02160776414576 78.71397180003662 78.40633583592748 77.91411829335286 77.42190075077824 77.05273759384727 76.37593847280718 76.03753891228712 75.57608496612343 75.0838674235488 74.74546786302875 74.40706830250869 73.7302691814686 73.39186962094854 72.93041567478483 72.6227797106757 72.19208936092289 71.60758102911555 71.33070866141732 71.08459989013001 70.68467313678812 70.377037172679 69.91558322651528 69.57718366599524 69.05420252700969 68.3774034059696 68.03900384544954 67.7006042849295 67.39296832082036 66.93151437465664 66.50082402490386 66.07013367515107 65.67020692180918 65.08569859000184 64.93188060794725 64.43966306537264 64.1012635048526 63.578282365867054 63.055301226881525 62.77842885918329 62.22468412378685 61.91704815967771 61.609412195568574 61.20948544222669 60.901849478117555 60.50192272477568 60.1019959714338 59.82512360373558 59.425196850393704 58.90221571140816 58.65610694012086 58.40999816883354 58.163889397546235 57.61014466214979 57.48709027650613 57.27174510162973 56.93334554110969 56.62570957700055 56.41036440212415 56.16425563083684 55.85661966672771 55.45669291338582 55.026002563633035 54.74913019593481 54.31843984618202 53.85698590001831 53.518586339498256 53.118659586156376 52.87255081486907 52.44186046511628 52.0419337117744 51.73429774766526 51.3651345907343 50.995971433803334 50.71909906610511 50.31917231276323 50.07306354147592 49.673136788134045 49.1501556491485 48.9040468778612 48.565647317341146 48.19648416041018 47.95037538912287 47.67350302142465 47.33510346090459 46.996703900384546 46.658304339864486 46.38143197216627 46.0122688152353 45.76616004394799 45.36623329060612 44.935542940853324 44.6586705731551 44.227980223402305 43.79728987364952 43.48965390954038 42.99743636696576 42.659036806445705 42.35140084233657 41.88994689617286 41.64383812488555 41.42849295000916 41.05932979307819 40.81322102179088 40.444057864859914 40.16718549716169 39.7364951474089 39.39809558688884 39.09045962277971 38.629005676616 38.013733748397726 37.859915766343164 37.42922541659037 37.12158945248123 36.56784471708478 36.1679179637429 36.01409998168833 35.64493682475737 35.27577366782641 35.029664896539096 34.56821095037539 34.383629371909905 34.19904779344442 34.04522981138985 33.983702618568024 33.76835744369163 33.614539461637065 33.49148507599341 33.368430690349754 33.2453763047061 33.060794726240616 32.906976744186046 32.75315876213148 32.568577183665994 32.38399560520051 32.107123237502286 32.04559604468046 31.95330525544772 31.830250869804065 31.737960080571323 31.64566929133858 31.584142098516754 31.491851309284012 31.399560520051274 31.338033327229446 31.27650613440762 31.21497894158579 31.12268815235305 31.06116095953122 31.030397363120308 30.96887017029848 30.87657938106574 30.845815784654825 30.753524995422083 30.66123420618934 30.630470609778428 30.5689434169566 30.507416224134772 30.445889031312948 30.38436183849112 30.353598242080206 30.322834645669293 30.29207104925838 30.261307452847465 30.23054385643655 30.23054385643655 30.199780260025637 30.13825306720381 30.07672587438198 30.015198681560154 29.98443508514924 29.953671488738326 29.922907892327412 29.922907892327412 29.8921442959165 29.8921442959165 29.861380699505585 29.861380699505585 29.861380699505585 29.861380699505585 29.83061710309467 29.83061710309467 29.83061710309467 29.799853506683757 29.769089910272843 29.769089910272843 29.73832631386193 29.73832631386193 29.707562717451015 