25.0 25.0 25.0 25.0 25.0 25.0 25.0 25.0 25.0 25.0 25.0 25.0 25.0 25.0 25.0 25.0 25.0 25.0 25.0 25.0 25.0 25.0 25.0 25.0 25.0 25.0 25.0 25.0 25.0 25.0 25.0 25.0 25.0 25.0 25.0 25.0 25.0 25.0 25.0 25.0 25.0 25.0 25.0 25.0 25.0 25.0 25.0 25.0 25.0 25.0 25.021973997436366 25.0 25.0 25.0 25.0 25.0 25.0 25.0 25.0 25.0 25.0 25.0 25.0 25.0 25.0 25.0 25.0 25.0 25.0 25.0 25.0 25.0 25.0 25.0 25.0 25.0 25.0 25.0 25.0 25.0 25.0 25.0 25.021973997436366 25.0 25.0 25.0 25.0 25.0 25.0 25.0 25.0 25.0 25.0 25.0 25.0 25.0 25.0 25.021973997436366 25.0 25.0 25.0 25.0 25.0 25.0 25.0 25.0 25.0 25.0 25.0 25.0 25.0 25.0 25.0 25.0 25.0 25.0 25.0 25.0 25.0 25.0 25.0 25.0 25.0 25.0 25.0 25.0 25.0 25.0 25.0 25.0 25.0 25.0 25.0 25.0 25.0 25.0 25.0 25.0 25.0 25.0 25.0 25.0 25.0 25.0 25.0 25.0 25.0 25.0 25.0 25.0 25.0 25.0 25.0 25.0 25.0 25.0 25.0 25.0 25.0 25.0 25.0 25.0 25.0 25.0 25.0 25.0 25.0 25.0 25.0 25.0 25.0 25.0 25.0 25.0 25.0 25.0 25.0 25.0 25.0 25.0 25.0 25.0 25.0 25.0 25.0 25.0 25.021973997436366 25.0 25.0 25.0 25.0 25.0 25.0 25.0 25.0 25.0 25.0 25.0 25.0 25.0 25.0 25.0 25.0 25.0 25.0 25.0 25.0 25.0 25.0 25.0 25.0 25.0 25.0 25.0 25.0 25.0 25.0 25.0 25.0 25.0 25.0 25.0 25.0 25.0 25.0 25.0 25.0 25.0 25.0 25.0 25.0 25.0 25.0 25.0 25.021973997436366 25.0 25.0 25.0 25.0 25.0 25.0 25.0 25.0 25.0 25.0 25.0 25.0 25.0 25.0 25.0 25.0 25.0 25.0 25.0 25.0 25.0 25.0 25.0 25.0 25.021973997436366 25.0 25.0 25.0 25.0 25.0 25.0 25.0 25.0 25.0 25.0 25.0 25.0 25.0 25.0 25.0 25.0 25.0 25.0 25.0 25.0 25.0 25.0 25.0 25.0 25.0 25.0 25.0 25.0 25.0 25.0 25.0 25.0 25.0 25.0 25.0 25.0 25.0 25.0 25.0 25.0 25.0 25.0 25.0 25.0 25.0 25.0 25.0 25.0 25.0 25.0 25.0 25.0 25.0 25.0 25.0 25.0 25.0 25.0 25.0 25.0 25.0 25.0 25.0 25.0 25.0 25.0 25.0 25.021973997436366 25.0 25.0 25.0 25.0 25.0 25.0 25.0 25.0 25.0 25.0 25.0 25.0 25.0 25.0 25.0 25.0 25.0 25.0 25.0 25.0 25.0 25.0 25.0 25.0 25.0 25.0 25.0 25.0 25.0 25.0 25.0 25.0 25.0 25.0 25.0 25.0 25.0 25.0 25.0 25.0 25.0 25.0 25.0 25.0 25.0 25.0 25.0 25.0 25.0 25.0 25.0 25.0 25.0 25.0 25.0 25.0 25.0 25.0 25.0 25.0 25.0 25.0 25.0 25.0 25.0 25.0 25.0 25.0 25.0 25.0 25.0 25.0 25.0 25.0 25.0 25.0 25.0 25.0 25.0 25.0 25.021973997436366 25.0 25.0 25.0 25.0 25.0 25.0 25.0 25.0 25.0 25.0 25.0 25.0 25.0 25.0 25.0 25.0 25.0 25.0 25.0 25.0 25.0 25.0 25.0 25.0 25.0 25.0 25.021973997436366 25.0 25.0 25.0 25.0 25.0 25.0 25.0 25.0 25.0 25.0 25.0 25.0 25.0 25.0 25.0 25.0 25.0 25.0 25.0 25.0 25.0 25.0 25.0 25.0 25.0 25.0 25.0 25.0 25.0 25.0 25.0 25.0 25.0 25.0 25.0 25.0 25.0 25.0 25.0 25.0 25.0 25.0 25.0 25.0 25.0 25.0 25.0 25.021973997436366 25.0 25.0 25.0 25.0 25.0 25.0 25.0 25.0 25.0 25.0 25.0 25.0 25.0 25.0 25.0 25.0 25.0 25.0 25.0 25.0 25.0 25.0 25.0 25.0 25.0 25.0 25.0 25.0 25.0 25.0 25.0 25.0 25.0 25.0 25.0 25.0 25.0 25.0 25.0 25.0 25.0 25.0 25.0 25.0 25.0 25.0 25.0 25.0 25.0 25.0 25.0 25.0 25.0 25.0 25.0 25.0 25.0 25.0 25.0 25.0 25.0 25.0 25.0 25.0 25.0 25.0 25.0 25.0 25.0 25.0 25.0 25.0 25.0 25.0 25.0 25.0 25.0 25.0 25.0 25.0 25.0 25.0 25.0 25.0 25.0 25.0 25.0 25.021973997436366 25.0 25.0 25.0 25.0 25.0 25.0 25.0 25.0 25.0 25.0 25.0 25.0 25.021973997436366 25.0 25.0 25.0 25.0 25.0 25.021973997436366 25.021973997436366 25.021973997436366 25.021973997436366 25.021973997436366 25.0659219923091 25.0659219923091 25.109869987181835 25.1318439846182 25.15381798205457 25.197765976927304 25.21973997436367 25.263687969236404 25.28566196667277 25.329609961545504 25.37355795641824 25.43947994872734 25.50540194103644 25.549349935909174 25.593297930781908 25.681193920527377 25.72514191540011 25.813037905145578 25.922907892327412 25.988829884636512 26.07672587438198 26.164621864127447 26.274491851309286 26.36238784105475 26.45028383080022 26.560153817982055 26.648049807727524 26.779893792345725 26.867789782091194 26.95568577183666 27.04358176158213 27.131477751327594 27.197399743636698 27.263321735945798 27.351217725691264 27.417139718000367 27.461087712873102 27.548983702618568 27.592931697491302 27.658853689800402 27.702801684673137 27.768723676982237 27.834645669291337 27.944515656473172 28.12030763596411 28.18622962827321 28.296099615455045 28.427943600073245 28.62570957700055 28.77952755905512 28.97729353598242 29.131111518036988 29.328877494964292 29.504669474455227 29.680461453946165 29.834279436000735 29.966123420618935 30.119941402673504 30.22981138985534 30.36165537447354 30.471525361655374 30.603369346273574 30.735213330891778 30.845083318073613 30.998901300128182 31.15271928218275 31.328511261673686 31.46035524629189 31.65812122321919 31.78996520783739 31.94378318989196 32.07562717451016 32.20747115912837 32.3832631386193 32.53708112067387 32.69089910272844 32.800769089910276 32.932613074528476 33.086431056583045 33.240249038637614 33.350119025819446 33.48196301043765 33.635780992492215 33.789598974546784 33.943416956601354 34.09723493865592 34.29500091558323 34.44881889763779 34.6465848745651 34.82237685405603 35.02014283098333 35.19593481047427 35.34975279252884 35.50357077458341 35.67936275407435 35.85515473356528 36.03094671305622 36.20673869254715 36.404504669474456 36.58029664896539 36.712140633583594 36.909906610510895 37.041750595129095 37.3054385643655 37.59110053103827 37.72294451565647 37.89873649514741 38.11847646951108 38.29426844900202 38.55795641823842 38.84361838491119 39.12928035158396 39.41494231825673 39.612708295184035 39.920344259293174 40.118110236220474 40.403772202893244 40.71140816700238 40.953122138802414 41.26075810291155 41.63431605932979 41.89800402856619 42.44735396447537 42.842885918329976 43.08459989013001 43.414209851675515 43.74381981322102 44.205273759384724 44.7546236952939 45.0842336568394 45.58963559787585 45.96319355429409 46.534517487639626 46.973997436366965 47.4134773850943 48.29243728254899 48.84178721845816 49.654825123603736 50.55575901849478 51.19300494414942 52.0719648416041 52.863028749313315 53.412378685222485 54.35726057498627 54.86266251602271 55.67570042116829 56.466764328877495 57.235854239150335 58.20271012635048 58.42245010071415 58.9278520417506 59.521149972532506 60.004577916132575 60.729719831532684 61.32301776231459 61.7185497161692 62.487639626442046 62.72935359824208 63.10291155466032 63.87200146493316 64.53122138802416 65.1684673136788 65.62992125984252 66.06940120856986 66.92638710858817 67.27797106757004 67.71745101629739 68.35469694195203 69.05786485991577 69.58524079838858 70.55209668558872 71.18934261124336 71.84856253433438 73.2329243728255 73.8262223036074 74.35359824208021 75.27650613440761 75.6940120856986 76.72678996520784 77.34206189342612 78.17707379600806 78.77037172678996 79.29774766526278 80.33052554477202 80.85790148324483 81.53909540377221 82.22028932429959 82.70371726789965 83.58267716535434 84.0001831166453 84.43966306537266 85.07690899102728 85.64823292437282 85.9998168833547 86.5271928218275 86.74693279619117 86.87877678080937 86.94469877311849 86.94469877311849 86.9227247756821 86.57114081670024 86.21955685771837 85.88994689617286 85.42849295000916 84.96703900384546 84.48361106024538 83.97820911920894 82.98937923457243 82.24226332173595 81.53909540377221 80.79197949093573 80.19868156015382 79.18787767808094 78.5506317524263 77.60574986266252 76.52902398828054 75.75993407800769 74.72715619849845 73.03515839589818 72.50778245742538 71.69474455227981 71.2332906061161 70.37630470609778 69.40944881889763 68.48654092657023 67.65152902398827 66.83849111884271 66.28914118293352 65.52005127266068 64.97070133675152 64.09174143929684 63.410547518769455 62.66343160593298 61.9822376854056 61.16919978026002 60.597875846914484 59.587071964841606 59.08167002380517 58.55429408533236 57.89507416224135 57.41164621864127 56.664530305804796 55.96136238784105 55.14832448269547 54.31331258011353 53.500274674967955 53.170664713422454 52.357626808276876 51.78630287493133 50.75352499542208 50.050357077458344 49.39113715436733 49.01757919794909 48.60007324665812 48.05072331074895 47.523347372276135 47.127815418421534 46.71030946713056 46.358725508148694 45.853323567112255 45.32594762863944 44.44698773118476 44.22724775682109 43.87566379783922 43.436183849111885 43.150521882439115 42.798937923457245 42.2276139901117 41.78813404138436 41.45852407983885 41.019044131111514 40.71140816700238 40.184032228529574 39.678630287493135 39.305072331074896 38.77769639260209 38.29426844900202 37.94268449002014 37.45925654642007 37.019776597692726 36.690166636147225 36.184764695110786 35.89910272843802 35.65738875663798 35.23988280534701 34.86632484892877 34.49276689251053 34.16315693096502 33.89946896172862 33.635780992492215 33.32814502838308 33.04248306171031 32.800769089910276 32.5151071232375 32.20747115912837 32.03167917963743 31.74601721296466 31.43838124885552 31.21864127449185 30.889031312946347 30.603369346273574 30.383629371909905 30.119941402673504 29.834279436000735 29.61453946163706 29.350851492400658 29.131111518036988 28.84544955136422 28.71360556674602 28.64768357443692 28.603735579564184 28.515839589818714 28.49386559238235 28.427943600073245 28.362021607764145 28.296099615455045 28.208203625709576 28.142281633400476 28.076359641091376 28.03241164621864 27.988463651345906 27.922541659036806 27.87859366416407 27.834645669291337 27.790697674418606 27.768723676982237 27.74674967954587 27.724775682109502 27.702801684673137 27.68082768723677 27.658853689800402 27.636879692364037 27.548983702618568 27.548983702618568 27.527009705182202 27.483061710309467 27.461087712873102 27.439113715436733 27.417139718000367 27.373191723127633 27.351217725691264 27.329243728254898 27.285295733382164 27.263321735945798 27.241347738509432 27.219373741073063 27.197399743636698 27.17542574620033 27.153451748763963 27.131477751327594 27.087529756454863 27.065555759018494 27.02160776414576 26.999633766709394 26.97765976927303 26.933711774400294 26.911737776963925 26.88976377952756 26.867789782091194 26.845815784654825 26.845815784654825 26.82384178721846 26.779893792345725 26.757919794909355 26.73594579747299 26.713971800036624 26.713971800036624 26.691997802600255 26.691997802600255 26.67002380516389 26.648049807727524 26.626075810291155 26.60410181285479 26.58212781541842 26.560153817982055 26.51620582310932 26.51620582310932 26.494231825672955 26.472257828236586 26.45028383080022 26.45028383080022 26.42830983336385 26.406335835927486 26.38436183849112 26.36238784105475 26.36238784105475 26.36238784105475 26.36238784105475 26.36238784105475 26.36238784105475 26.36238784105475 26.340413843618386 26.36238784105475 26.36238784105475 26.36238784105475 26.340413843618386 26.36238784105475 26.340413843618386 26.340413843618386 26.340413843618386 26.340413843618386 26.318439846182017 26.318439846182017 26.29646584874565 26.29646584874565 26.29646584874565 26.29646584874565 26.274491851309286 26.274491851309286 26.274491851309286 26.274491851309286 26.274491851309286 26.274491851309286 26.274491851309286 26.274491851309286 26.274491851309286 26.252517853872916 26.252517853872916 26.274491851309286 26.252517853872916 26.252517853872916 26.252517853872916 26.252517853872916 26.23054385643655 26.23054385643655 26.208569859000182 26.208569859000182 26.208569859000182 26.208569859000182 26.186595861563816 26.186595861563816 26.186595861563816 26.14264786669108 26.120673869254716 26.098699871818347 26.032777879509247 26.01080388207288 25.988829884636512 25.966855887200147 25.966855887200147 25.966855887200147 25.944881889763778 25.944881889763778 25.944881889763778 25.922907892327412 25.900933894891047 25.900933894891047 25.878959897454678 25.878959897454678 25.878959897454678 25.856985900018312 25.835011902581943 25.835011902581943 25.835011902581943 25.813037905145578 25.791063907709212 25.769089910272843 25.769089910272843 25.747115912836477 25.72514191540011 25.72514191540011 25.72514191540011 25.72514191540011 25.72514191540011 25.72514191540011 25.72514191540011 25.703167917963743 25.703167917963743 25.703167917963743 25.703167917963743 25.703167917963743 25.681193920527377 25.681193920527377 25.65921992309101 25.65921992309101 25.65921992309101 25.637245925654643 25.637245925654643 25.615271928218274 25.615271928218274 25.593297930781908 25.593297930781908 25.593297930781908 25.571323933345543 25.571323933345543 25.571323933345543 25.549349935909174 25.549349935909174 25.527375938472808 25.527375938472808 25.50540194103644 25.50540194103644 25.50540194103644 25.50540194103644 25.483427943600073 25.483427943600073 25.483427943600073 25.483427943600073 25.483427943600073 25.483427943600073 25.483427943600073 25.483427943600073 25.483427943600073 25.483427943600073 25.483427943600073 25.483427943600073 25.483427943600073 25.483427943600073 25.483427943600073 25.483427943600073 25.483427943600073 25.483427943600073 25.483427943600073 25.483427943600073 25.483427943600073 25.483427943600073 25.483427943600073 25.483427943600073 25.483427943600073 25.50540194103644 25.50540194103644 25.527375938472808 25.549349935909174 25.571323933345543 25.637245925654643 25.72514191540011 25.813037905145578 25.966855887200147 26.120673869254716 26.274491851309286 26.560153817982055 26.67002380516389 26.82384178721846 27.10950375389123 27.351217725691264 27.724775682109502 28.669657571873284 28.801501556491484 29.19703351034609 29.54861746932796 30.119941402673504 30.493499359091743 31.08679728987365 31.636147225782825 32.185497161692 32.60300311298297 33.086431056583045 33.459989013001284 33.877494964292254 34.58066288225599 34.99816883354697 35.56949276689251 36.118842702801686 36.44845266434719 36.865958615638164 37.327412561801864 37.54715253616554 37.98663248489288 38.29426844900202 38.73374839772936 39.21717634132943 39.722578282365866 40.513642190075075 40.645486174693275 41.19483611060245 41.54642006958433 41.94195202343893 42.864859915766345 43.48013184398462 43.831715802966485 44.33711774400293 44.73264969785754 45.26002563633034 46.07306354147592 46.534517487639626 47.43545138253067 47.85295733382164 48.35835927485809 48.95165720563999 49.610877128731005 50.028383080021975 50.643655008240245 51.06116095953122 51.96209485442226 52.57736678264054 53.14869071598608 53.87383263138619 54.55502655191357 54.77476652627723 55.54385643655009 56.356894341695664 57.104010254532135 57.82915216993224 58.59824208020509 59.03772202893243 59.56509796740524 60.202343893059876 61.05932979307819 61.38893975462369 62.24592565464201 62.55356161875115 62.94909357260575 63.542391503387655 63.95989745467863 64.39937740340596 64.9047793444424 65.52005127266068 65.93755722395166 66.75059512909723 67.32191906244277 67.69547701886101 68.15693096502471 68.7062809009339 69.2995788317158 69.95879875480682 70.59604468046146 71.2332906061161 71.71671854971618 72.35396447537082 72.85936641640725 73.51858633949826 74.17780626258927 74.63926020875297 75.40835011902581 76.26533601904413 76.72678996520784 77.38600988829884 77.9573338216444 78.37483977293536 79.03405969602638 79.47353964475371 80.28657754989928 80.98974546786303 81.56106940120857 82.19831532686322 82.63779527559055 83.23109320637246 83.58267716535434 84.1320271012635 84.59348104742722 84.92309100897272 85.36257095770006 85.7361289141183 85.95586888848196 86.30745284746384 86.43929683208204 86.57114081670024 86.76890679362754 86.90075077824574 87.05456876030031 87.14246475004578 87.14246475004578 87.12049075260941 87.07654275773669 86.96667277055485 86.7908807910639 86.83482878593665 86.41732283464567 85.97784288591834 85.62625892693646 85.07690899102728 84.72532503204542 84.11005310382714 83.49478117560886 82.9454312396997 82.04449734480863 81.58304339864495 80.98974546786303 80.30855154733565 79.49551364219008 78.81431972166271 77.71561984984436 77.38600988829884 76.4850759934078 75.5621681010804 74.04596227797106 73.60648232924373 72.90331441127998 72.1561984984435 71.51895257278886 70.53012268815235 69.91485075993407 68.68430690349753 68.02508698040651 67.14612708295184 66.5088811572972 65.30031129829702 64.70701336751512 64.06976744186046 62.86119758286028 61.96026368796924 61.69657571873283 60.81761582127815 59.916681926387106 59.2574620032961 58.42245010071415 57.78520417505951 56.9282182750412 56.00531038271379 55.43398644936825 54.335286577549894 53.67606665445889 53.126716718549716 52.51144479033144 51.7423548800586 51.01721296465848 50.336019044131106 49.83061710309467 49.171397180003666 48.64402124153085 47.74308734663981 47.259659403039734 46.820179454312395 46.13898553378502 45.45779161325764 45.06225965940304 44.205273759384724 43.765793810657385 43.326313861930046 42.55722395165721 42.33748397729354 41.59036806445706 40.97509613623878 40.645486174693275 40.118110236220474 39.678630287493135 39.305072331074896 38.88756637978392 38.20637245925654 37.85478850027467 37.34938655923823 36.843984618201794 36.338582677165356 36.03094671305622 35.67936275407435 35.19593481047427 34.86632484892877 34.42684490020143 34.009338948910454 33.789598974546784 33.350119025819446 33.020509064273945 32.84471708478301 32.69089910272844 32.53708112067387 32.33931514374657 32.1195751693829 31.89983519501923 31.65812122321919 31.46035524629189 31.196667277055482 31.020875297564547 30.779161325764512 30.29573338216444 30.07599340780077 29.70243545138253 29.372825489837027 29.043215528291523 28.735579564182384 28.603735579564184 28.53781358725508 28.47189159494598 28.40596960263688 28.362021607764145 28.296099615455045 28.230177623145945 28.16425563083684 28.09833363852774 28.076359641091376 28.010437648782275 27.96648965390954 27.922541659036806 27.87859366416407 27.81267167185497 27.724775682109502 27.658853689800402 27.548983702618568 27.461087712873102 27.373191723127633 27.241347738509432 27.10950375389123 27.065555759018494 26.999633766709394 26.95568577183666 26.933711774400294 26.911737776963925 26.911737776963925 26.911737776963925 26.88976377952756 26.88976377952756 26.845815784654825 26.845815784654825 26.80186778978209 26.757919794909355 26.713971800036624 26.67002380516389 26.626075810291155 26.58212781541842 26.538179820545686 26.45028383080022 26.406335835927486 26.36238784105475 26.340413843618386 26.29646584874565 26.274491851309286 26.274491851309286 26.252517853872916 26.252517853872916 26.23054385643655 26.186595861563816 26.164621864127447 26.120673869254716 26.098699871818347 26.07672587438198 26.032777879509247 25.988829884636512 25.966855887200147 25.944881889763778 25.900933894891047 25.878959897454678 25.856985900018312 25.835011902581943 25.813037905145578 25.791063907709212 25.791063907709212 25.791063907709212 25.791063907709212 25.769089910272843 25.769089910272843 25.769089910272843 25.769089910272843 25.769089910272843 25.747115912836477 25.747115912836477 25.747115912836477 25.747115912836477 25.72514191540011 25.72514191540011 25.703167917963743 25.681193920527377 25.681193920527377 25.65921992309101 25.637245925654643 25.637245925654643 25.615271928218274 25.615271928218274 25.615271928218274 25.615271928218274 25.615271928218274 25.615271928218274 25.615271928218274 25.593297930781908 25.593297930781908 25.593297930781908 25.593297930781908 25.593297930781908 25.571323933345543 25.593297930781908 25.571323933345543 25.571323933345543 25.593297930781908 25.571323933345543 25.571323933345543 25.571323933345543 25.571323933345543 25.571323933345543 25.571323933345543 25.571323933345543 25.571323933345543 25.571323933345543 25.571323933345543 25.571323933345543 25.571323933345543 25.571323933345543 25.571323933345543 25.571323933345543 25.571323933345543 25.571323933345543 25.571323933345543 25.549349935909174 25.571323933345543 25.571323933345543 25.571323933345543 25.549349935909174 25.571323933345543 25.571323933345543 25.571323933345543 25.571323933345543 25.549349935909174 25.549349935909174 25.571323933345543 25.571323933345543 25.549349935909174 25.549349935909174 25.549349935909174 25.571323933345543 25.549349935909174 25.549349935909174 25.549349935909174 25.549349935909174 25.549349935909174 25.549349935909174 25.549349935909174 25.549349935909174 25.549349935909174 25.549349935909174 25.549349935909174 25.549349935909174 25.549349935909174 25.549349935909174 25.549349935909174 25.549349935909174 25.549349935909174 25.549349935909174 25.549349935909174 25.549349935909174 25.549349935909174 25.549349935909174 25.549349935909174 25.549349935909174 25.549349935909174 25.527375938472808 25.549349935909174 25.549349935909174 25.549349935909174 25.549349935909174 25.549349935909174 25.549349935909174 25.549349935909174 25.549349935909174 25.549349935909174 25.549349935909174 25.549349935909174 25.549349935909174 25.549349935909174 25.549349935909174 25.549349935909174 25.549349935909174 25.549349935909174 25.549349935909174 25.549349935909174 25.549349935909174 25.527375938472808 25.549349935909174 25.549349935909174 25.549349935909174 25.549349935909174 25.549349935909174 25.549349935909174 25.527375938472808 25.549349935909174 25.549349935909174 25.549349935909174 25.549349935909174 25.549349935909174 25.549349935909174 25.549349935909174 25.549349935909174 25.527375938472808 25.549349935909174 25.549349935909174 25.527375938472808 25.549349935909174 25.549349935909174 25.549349935909174 25.549349935909174 25.527375938472808 25.527375938472808 25.549349935909174 25.527375938472808 25.527375938472808 25.527375938472808 25.549349935909174 25.527375938472808 25.549349935909174 25.549349935909174 25.549349935909174 25.549349935909174 25.527375938472808 25.549349935909174 25.527375938472808 25.527375938472808 25.549349935909174 25.549349935909174 25.549349935909174 25.549349935909174 25.549349935909174 25.549349935909174 25.549349935909174 25.549349935909174 25.549349935909174 25.549349935909174 25.549349935909174 25.549349935909174 25.571323933345543 25.571323933345543 25.571323933345543 25.593297930781908 25.65921992309101 25.681193920527377 25.791063907709212 25.835011902581943 25.922907892327412 25.988829884636512 26.07672587438198 26.186595861563816 26.274491851309286 26.38436183849112 26.494231825672955 26.560153817982055 26.691997802600255 26.82384178721846 26.911737776963925 27.04358176158213 27.197399743636698 27.285295733382164 27.483061710309467 27.570957700054933 27.702801684673137 27.90056766160044 28.09833363852774 28.38399560520051 28.69163156930965 28.97729353598242 29.284929500091557 29.504669474455227 29.900201428309835 30.185863394982604 31.020875297564547 31.37245925654642 31.74601721296466 32.07562717451016 32.42721113349204 32.84471708478301 33.108405054019414 33.438015015564915 33.767624977110415 34.11920893609229 34.44881889763779 34.9102728438015 35.50357077458341 36.00897271561985 36.404504669474456 36.778062625892694 37.1076725874382 37.4372825489837 37.89873649514741 38.36019044131112 38.77769639260209 39.08533235671123 39.5028383080022 39.810474272111335 40.074162241347736 40.68943416956601 41.04101812854789 41.54642006958433 42.07379600805713 42.667093938839045 43.238417872184584 43.699871818348285 44.073429774766524 44.66672770554844 45.12818165171214 45.853323567112255 46.468595495330526 47.17176341329427 47.83098333638527 48.31441127998535 48.81981322102179 49.56692913385827 50.138253067203806 51.03918696209485 51.8082768723677 52.31367881340414 53.03882072880425 53.61014466214979 54.15949459805896 55.08240249038637 55.60977842885919 56.422816334004764 57.169932246841235 57.71928218275041 58.48837209302326 59.27943600073247 60.114447903314414 60.641823841787215 61.14722578282366 61.9163156930965 62.993041567478485 63.366599523896724 64.42135140084233 65.12451931880608 65.73979124702436 66.7725691265336 67.36586705731551 68.15693096502471 69.12378685222487 69.67313678813403 70.46420069584326 71.01355063175242 71.7606665445889 72.44186046511629 73.14502838308002 73.6284563266801 74.13385826771653 74.55136421900751 75.14466214978941 75.58414209851676 76.15546603186229 76.79271195751694 77.23219190624428 77.82548983702618 78.50668375755356 79.1439296832082 79.56143563449919 80.70408350119027 81.20948544222671 81.53909540377221 81.62699139351767 82.02252334737227 82.44002929866325 83.12122321919063 83.89031312946346 84.3297930781908 84.96703900384546 85.56033693462736 86.10968687053654 86.46127082951841 86.70298480131844 86.9227247756821 87.23036073979125 87.25233473722761 87.27430873466398 87.27430873466398 87.27430873466398 87.27430873466398 87.09851675517305 86.83482878593665 86.50521882439114 86.1316608679729 85.78007690899102 85.38454495513642 84.90111701153634 84.5275590551181 84.3297930781908 83.9342611243362 83.38491118842703 82.96740523713606 82.06647134224502 81.64896539095403 81.1435634499176 80.35249954220839 79.75920161142648 79.47353964475371 78.72642373191724 78.2210217908808 77.12232191906244 76.39718000366233 75.84783006775316 75.12268815235305 74.57333821644387 73.91411829335286 72.99121040102546 72.61765244460722 71.91448452664348 71.167368613807 70.13459073429775 68.81615088811573 68.44259293169749 67.89324299578831 67.49771104193371 67.14612708295184 66.48690715986083 65.76176524446072 65.01464933162424 64.4433253982787 63.850027467496794 63.080937557223955 62.24592565464201 61.43288774949643 60.68577183665995 60.202343893059876 59.76286394433254 59.08167002380517 58.37850210584142 57.65336019044131 56.7304522981139 56.181102362204726 55.76359641091375 55.28016846731368 54.55502655191357 53.80791063907709 53.390404687786116 52.64328877494964 51.96209485442226 51.45669291338582 50.73155099798572 50.248123054385644 49.56692913385827 48.88573521333089 48.40230726973082 47.83098333638527 47.193737410730634 46.79820545687603 46.00714154916682 45.61160959531222 45.19410364402124 44.64475370811206 44.073429774766524 43.54605383629372 43.01867789782091 42.68906793627541 42.13971800036623 41.85405603369347 41.32668009522065 40.88720014649331 40.579564182384175 40.096136238784105 39.6346822926204 38.97546236952939 38.75572239516572 38.36019044131112 38.05255447720198 37.2395165720564 37.063724592565464 36.778062625892694 36.536348654092656 36.250686687419886 35.921076725874386 35.67936275407435 35.34975279252884 35.15198681560154 34.82237685405603 34.51474088994689 34.27302691814686 33.92144295916499 33.591832997619484 33.350119025819446 32.97656106940121 32.62497711041934 32.40523713605567 31.987731184764694 31.74601721296466 31.35048525911005 31.15271928218275 30.932979307819082 30.603369346273574 30.44955136421901 30.22981138985534 29.9221754257462 29.592565464200696 29.328877494964292 29.043215528291523 28.91137154367332 28.823475553927853 28.735579564182384 28.69163156930965 28.64768357443692 28.603735579564184 28.55978758469145 28.515839589818714 28.49386559238235 28.427943600073245 28.40596960263688 28.34004761032778 28.296099615455045 28.25215162058231 28.208203625709576 28.142281633400476 28.076359641091376 28.05438564365501 28.010437648782275 27.988463651345906 27.944515656473172 27.90056766160044 27.834645669291337 27.768723676982237 27.74674967954587 27.724775682109502 27.68082768723677 27.658853689800402 27.592931697491302 27.570957700054933 27.548983702618568 27.527009705182202 27.505035707745833 27.483061710309467 27.461087712873102 27.439113715436733 27.417139718000367 27.395165720564 27.351217725691264 27.329243728254898 27.285295733382164 27.241347738509432 27.197399743636698 27.153451748763963 27.131477751327594 27.087529756454863 27.065555759018494 27.065555759018494 27.04358176158213 27.04358176158213 27.02160776414576 26.999633766709394 26.97765976927303 26.95568577183666 26.911737776963925 26.88976377952756 26.867789782091194 26.845815784654825 26.779893792345725 26.779893792345725 26.73594579747299 26.73594579747299 26.691997802600255 26.67002380516389 26.648049807727524 26.626075810291155 26.60410181285479 26.60410181285479 26.60410181285479 26.60410181285479 26.60410181285479 26.58212781541842 26.58212781541842 26.58212781541842 26.560153817982055 26.560153817982055 26.560153817982055 26.538179820545686 26.538179820545686 26.51620582310932 26.51620582310932 26.494231825672955 26.494231825672955 26.472257828236586 26.472257828236586 26.472257828236586 26.45028383080022 26.45028383080022 26.45028383080022 26.45028383080022 26.45028383080022 26.45028383080022 26.42830983336385 26.42830983336385 26.45028383080022 26.45028383080022 26.42830983336385 26.45028383080022 26.45028383080022 26.42830983336385 26.42830983336385 26.42830983336385 26.42830983336385 26.42830983336385 26.42830983336385 26.42830983336385 26.42830983336385 26.42830983336385 26.42830983336385 26.42830983336385 26.42830983336385 26.42830983336385 26.42830983336385 26.406335835927486 26.406335835927486 26.406335835927486 26.406335835927486 26.406335835927486 26.406335835927486 26.406335835927486 26.406335835927486 26.406335835927486 26.406335835927486 26.406335835927486 26.406335835927486 26.406335835927486 26.406335835927486 26.406335835927486 26.406335835927486 26.406335835927486 26.406335835927486 26.406335835927486 26.406335835927486 26.406335835927486 26.406335835927486 26.406335835927486 26.406335835927486 26.406335835927486 26.38436183849112 26.38436183849112 26.38436183849112 26.38436183849112 26.38436183849112 26.38436183849112 26.38436183849112 26.36238784105475 26.36238784105475 26.36238784105475 26.36238784105475 26.36238784105475 26.36238784105475 26.36238784105475 26.36238784105475 26.36238784105475 26.36238784105475 26.36238784105475 26.36238784105475 26.36238784105475 26.36238784105475 26.36238784105475 26.340413843618386 26.36238784105475 26.340413843618386 26.36238784105475 26.36238784105475 26.340413843618386 26.340413843618386 26.340413843618386 26.36238784105475 26.340413843618386 26.340413843618386 26.340413843618386 26.340413843618386 26.340413843618386 26.340413843618386 26.340413843618386 26.340413843618386 26.340413843618386 26.340413843618386 26.340413843618386 26.340413843618386 26.340413843618386 26.340413843618386 26.340413843618386 26.340413843618386 26.340413843618386 26.340413843618386 26.340413843618386 26.340413843618386 26.340413843618386 26.340413843618386 26.340413843618386 26.340413843618386 26.340413843618386 26.340413843618386 26.318439846182017 26.340413843618386 26.340413843618386 26.340413843618386 26.318439846182017 26.340413843618386 26.318439846182017 26.318439846182017 26.340413843618386 26.318439846182017 26.318439846182017 26.318439846182017 26.340413843618386 26.318439846182017 26.318439846182017 26.318439846182017 26.318439846182017 26.318439846182017 26.318439846182017 26.318439846182017 26.318439846182017 26.318439846182017 26.318439846182017 26.318439846182017 26.318439846182017 26.318439846182017 26.318439846182017 26.318439846182017 26.29646584874565 26.29646584874565 26.29646584874565 26.318439846182017 26.29646584874565 26.29646584874565 26.29646584874565 26.318439846182017 26.29646584874565 26.318439846182017 26.29646584874565 26.318439846182017 26.318439846182017 26.318439846182017 26.29646584874565 26.318439846182017 26.29646584874565 26.29646584874565 26.318439846182017 26.318439846182017 26.29646584874565 26.318439846182017 26.318439846182017 26.318439846182017 26.318439846182017 26.318439846182017 26.318439846182017 26.318439846182017 26.318439846182017 26.318439846182017 26.318439846182017 26.340413843618386 26.340413843618386 26.36238784105475 26.36238784105475 26.406335835927486 26.42830983336385 26.45028383080022 26.538179820545686 26.58212781541842 26.626075810291155 26.713971800036624 26.779893792345725 26.867789782091194 27.02160776414576 27.087529756454863 27.219373741073063 27.417139718000367 27.483061710309467 27.636879692364037 27.856619666727706 28.142281633400476 28.515839589818714 28.823475553927853 29.109137520600623 29.460721479582496 29.746383446255265 30.119941402673504 30.42757736678264 30.801135323200878 31.35048525911005 31.57022523347372 31.855887200146494 32.1195751693829 32.66892510529207 33.020509064273945 33.372093023255815 33.635780992492215 34.25105292071049 34.44881889763779 34.73448086431057 34.75645486174693 35.06409082585607 35.45962277971068 35.921076725874386 36.690166636147225 36.80003662332906 37.15162058231093 37.61307452847464 37.94268449002014 38.33821644387475 38.95348837209302 39.34902032594763 39.7665262772386 40.184032228529574 40.513642190075075 41.084966123420614 41.52444607214796 41.83208203625709 42.55722395165721 42.776963926020876 43.106573887566384 43.414209851675515 43.721845815784654 44.18329976194836 44.4909357260575 44.84251968503937 45.34792162607581 45.94121955685772 46.490569492766895 47.259659403039734 47.56729536714887 48.00677531587621 48.40230726973082 48.97363120307636 49.52298113898553 50.006409082585606 50.55575901849478 51.17103094671306 51.72038088262223 52.1378868339132 52.68723676982238 53.08276872367698 53.588170664713424 54.071598608313494 54.4671305621681 54.99450650064091 55.45596044680461 56.00531038271379 56.378868339132026 56.9941402673503 57.389672221204904 58.26863211865959 58.66416407251419 59.10364402124153 59.740889946896175 60.33418787767808 60.75169382896905 61.36696575718733 61.93828969053287 62.42171763413294 63.146859549533055 63.630287493133125 64.04779344442409 64.48727339315144 64.9047793444424 65.54202527009704 66.06940120856986 66.5088811572972 67.36586705731551 67.82732100347921 68.75022889580663 69.16773484709759 69.87090276506135 70.39827870353415 70.88170664713422 71.40908258560702 72.2880424830617 72.74949642922542 73.16700238051638 73.7603003112983 74.11188427028017 74.74913019593481 75.43032411646219 75.80388207288043 76.44112799853508 76.92455594213514 77.58377586522616 78.5506317524263 78.8802417139718 79.80314960629921 80.37447353964475 80.85790148324483 81.62699139351767 82.04449734480863 82.61582127815419 83.16517121406336 83.4728071781725 83.8683391320271 84.2638710858817 84.46163706280902 84.70335103460906 84.81322102179088 84.92309100897272 85.01098699871818 85.03296099615454 85.05493499359092 85.07690899102728 85.07690899102728 85.16480498077274 85.23072697308186 85.3405969602637 85.49441494231826 85.56033693462736 85.6702069218092 85.7361289141183 85.8020509064274 85.82402490386376 85.82402490386376 85.84599890130013 85.82402490386376 85.8020509064274 85.78007690899102 85.6702069218092 85.42849295000916 85.16480498077274 84.90111701153634 84.48361106024538 84.0661051089544 83.71452114997254 83.16517121406336 82.57187328328145 82.17634132942685 81.49514740889947 81.05566746017213 80.35249954220839 79.60538362937191 78.81431972166271 78.04522981138985 77.45193188060796 76.9465299395715 76.28731001648049 75.65006409082585 74.70518220106207 73.91411829335286 73.32082036257097 72.55173045229812 71.80461453946164 71.18934261124336 70.31038271378868 69.7610327778795 68.90404687786119 68.00311298297015 67.1681010803882 66.35506317524263 65.78373924189708 65.21241530855156 64.48727339315144 63.981871452114994 62.971067570042116 62.50961362387841 61.9822376854056 60.99340780076909 60.444057864859914 59.916681926387106 59.27943600073247 58.51034609045962 57.82915216993224 57.08203625709577 56.620582310932065 55.983336385277426 55.45596044680461 54.77476652627723 53.566196667277055 53.368430690349754 52.775132759567846 52.2038088262223 51.23695293902216 50.55575901849478 49.91851309284014 49.14942318256729 48.64402124153085 48.13861930049441 47.1497894158579 46.66636147225783 45.985167551730456 45.54568760300312 44.93041567478484 44.40303973631203 44.05145577733016 43.45815784654825 42.996703900384546 42.64511994140267 42.07379600805713 41.43655008240249 41.12891411829335 40.77733015931148 40.29390221571141 39.920344259293174 39.34902032594763 39.01941036440212 38.53598242080205 37.87676249771104 37.61307452847464 37.129646584874564 36.756088628456325 36.426478666910825 36.09686870536532 35.85515473356528 35.50357077458341 35.17396081303791 34.95422083867423 34.62461087712873 34.42684490020143 33.877494964292254 33.81157297198315 33.306171030946714 33.086431056583045 32.866691082219376 32.62497711041934 32.16352316425563 31.767991210401025 31.52627723860099 31.28456326680095 30.998901300128182 30.51547335652811 30.032045412928035 29.812305438564366 29.592565464200696 29.41677348470976 29.131111518036988 28.999267533418788 28.91137154367332 28.801501556491484 28.69163156930965 28.55978758469145 28.515839589818714 28.449917597509614 28.38399560520051 28.31807361289141 28.25215162058231 28.16425563083684 28.076359641091376 28.010437648782275 27.944515656473172 27.87859366416407 27.856619666727706 27.834645669291337 27.81267167185497 27.790697674418606 27.724775682109502 27.702801684673137 27.658853689800402 27.614905694927668 27.592931697491302 27.548983702618568 27.483061710309467 27.439113715436733 27.395165720564 27.351217725691264 27.307269730818533 27.263321735945798 27.197399743636698 27.153451748763963 27.087529756454863 27.065555759018494 27.02160776414576 26.999633766709394 26.95568577183666 26.911737776963925 26.867789782091194 26.82384178721846 26.779893792345725 26.713971800036624 26.691997802600255 26.67002380516389 26.60410181285479 26.560153817982055 26.538179820545686 26.494231825672955 26.45028383080022 26.38436183849112 26.36238784105475 26.318439846182017 26.274491851309286 26.252517853872916 26.186595861563816 26.098699871818347 26.098699871818347 26.07672587438198 26.032777879509247 26.032777879509247 26.01080388207288 26.01080388207288 26.01080388207288 26.01080388207288 26.01080388207288 26.01080388207288 26.01080388207288 26.01080388207288 26.01080388207288 26.01080388207288 25.988829884636512 26.01080388207288 26.01080388207288 25.988829884636512 25.988829884636512 25.988829884636512 25.988829884636512 25.966855887200147 25.988829884636512 25.966855887200147 25.988829884636512 25.966855887200147 25.966855887200147 25.988829884636512 25.966855887200147 25.966855887200147 25.966855887200147 25.966855887200147 25.966855887200147 25.966855887200147 25.966855887200147 25.966855887200147 25.944881889763778 25.944881889763778 25.944881889763778 25.944881889763778 25.944881889763778 25.944881889763778 25.966855887200147 25.944881889763778 25.944881889763778 25.944881889763778 25.966855887200147 25.966855887200147 25.944881889763778 25.966855887200147 25.944881889763778 25.944881889763778 25.944881889763778 25.944881889763778 25.966855887200147 25.944881889763778 25.944881889763778 25.966855887200147 25.966855887200147 25.966855887200147 25.966855887200147 25.966855887200147 25.966855887200147 25.944881889763778 25.966855887200147 25.944881889763778 25.944881889763778 25.944881889763778 25.944881889763778 25.944881889763778 25.944881889763778 25.944881889763778 25.966855887200147 25.944881889763778 25.944881889763778 25.944881889763778 25.944881889763778 25.944881889763778 25.944881889763778 25.944881889763778 25.944881889763778 25.944881889763778 25.944881889763778 25.944881889763778 25.944881889763778 25.944881889763778 25.944881889763778 25.944881889763778 25.944881889763778 25.922907892327412 25.944881889763778 25.944881889763778 25.944881889763778 25.922907892327412 25.922907892327412 25.922907892327412 25.922907892327412 25.922907892327412 25.922907892327412 25.922907892327412 25.922907892327412 25.922907892327412 25.922907892327412 25.922907892327412 25.922907892327412 25.922907892327412 25.922907892327412 25.922907892327412 25.922907892327412 25.922907892327412 25.922907892327412 25.922907892327412 25.922907892327412 25.922907892327412 25.922907892327412 25.922907892327412 25.922907892327412 25.922907892327412 25.922907892327412 25.922907892327412 25.922907892327412 25.922907892327412 25.922907892327412 25.922907892327412 25.944881889763778 25.944881889763778 25.922907892327412 25.944881889763778 25.944881889763778 25.944881889763778 25.944881889763778 25.944881889763778 25.944881889763778 25.944881889763778 25.944881889763778 25.944881889763778 25.944881889763778 25.966855887200147 25.944881889763778 25.966855887200147 25.966855887200147 25.966855887200147 25.966855887200147 25.966855887200147 25.966855887200147 25.966855887200147 25.966855887200147 25.966855887200147 25.988829884636512 25.988829884636512 26.01080388207288 26.032777879509247 26.032777879509247 26.054751876945616 26.098699871818347 26.164621864127447 26.186595861563816 26.274491851309286 26.29646584874565 26.36238784105475 26.42830983336385 26.494231825672955 26.538179820545686 26.626075810291155 26.648049807727524 26.713971800036624 26.779893792345725 26.845815784654825 26.911737776963925 26.97765976927303 27.02160776414576 27.10950375389123 27.219373741073063 27.329243728254898 27.570957700054933 27.768723676982237 28.076359641091376 28.40596960263688 28.64768357443692 28.955319538546053 29.372825489837027 29.658487456509796 29.966123420618935 30.22981138985534 30.603369346273574 30.932979307819082 31.196667277055482 31.548251236037355 31.767991210401025 31.96575718732833 32.185497161692 32.36128914118294 32.778795092473906 33.108405054019414 33.350119025819446 33.67972898736495 34.16315693096502 34.62461087712873 35.10803882072881 35.41567478483794 35.83318073612892 36.14081670023805 36.536348654092656 36.865958615638164 37.08569859000183 37.3713605566746 37.635048525911 37.96465848745651 38.20637245925654 38.44808643105658 38.86559238234756 39.26112433620216 39.5687603003113 39.964292254165905 40.645486174693275 40.99707013367515 41.56839406702069 42.00787401574803 42.40340596960264 42.90880791063908 43.48013184398462 43.98553378502106 44.53488372093023 44.90844167734847 45.50173960813038 46.07306354147592 46.402673503021425 46.886101446621495 47.23768540560337 47.80900933894891 48.22651529023988 48.66599523896723 49.105475187694566 49.43508514924007 49.742721113349205 50.248123054385644 50.577733015931145 51.083134956967584 51.85222486724043 52.22578282365867 52.841054751876946 53.324482695477016 53.763962644204355 54.269364585240794 54.97253250320454 55.67570042116829 56.400842336568395 56.950192272477565 57.93902215711408 58.31258011353232 59.23548800585973 59.740889946896175 60.33418787767808 61.43288774949643 61.82841970335103 62.53158762131478 63.410547518769455 64.22358542391504 64.94872733931514 65.95953122138803 66.28914118293352 66.81651712140633 67.29994506500641 68.15693096502471 68.86009888298847 69.34352682658854 70.02472074711591 70.42025270097052 71.25526460355246 71.67277055484342 72.13422450100714 72.72752243178905 73.34279436000733 73.78227430873466 74.39754623695293 75.49624610877129 75.71598608313496 76.13349203442593 76.63889397546237 77.23219190624428 77.9573338216444 78.352865775499 79.23182567295368 79.69327961911739 80.06683757553562 80.68210950375389 81.34132942684491 81.78080937557223 82.50595129097235 82.90148324482695 83.58267716535434 83.95623512177258 84.2638710858817 84.57150704999086 84.85716901666362 85.23072697308186 85.56033693462736 85.8679728987365 86.15363486540927 86.43929683208204 86.74693279619117 86.9227247756821 87.07654275773669 87.38417872184581 87.66984068851858 87.73576268082769 87.88958066288225 88.10932063724593 88.21919062442777 88.39498260391869 88.592748580846 88.68064457059147 88.7245925654642 88.7245925654642 88.7245925654642 88.7245925654642 88.7245925654642 88.7245925654642 88.7245925654642 88.7245925654642 88.68064457059147 88.54880058597325 88.19721662699139 88.04339864493683 87.53799670390038 87.20838674235489 86.85680278337301 86.24153085515474 85.69218091924556 85.31862296282733 84.74729902948178 84.3297930781908 83.89031312946346 83.23109320637246 82.46200329609962 81.75883537813587 80.9457974729903 80.08881157297199 79.51748763962644 78.85826771653544 78.2210217908808 77.0783739241897 76.11151803698957 75.51822010620765 74.26570225233473 73.84819630104377 72.66160043947995 72.0243545138253 71.27723860098882 70.53012268815235 69.6951107855704 68.8381248855521 67.78337300860647 66.94836110602454 66.42098516755172 65.89360922907892 65.27833730086064 64.72898736495148 64.02581944698773 63.344625526460355 62.64145760849661 62.15802966489654 61.47683574436916 60.99340780076909 60.004577916132575 59.521149972532506 58.9937740340597 58.22468412378685 57.34572422633217 56.77440029298663 56.07123237502289 55.30214246475005 54.57700054934993 54.04962461087713 53.500274674967955 52.57736678264054 51.89617286211316 51.36879692364036 50.599707013367514 50.116279069767444 49.45705914667643 48.95165720563999 48.46822926203992 47.67716535433071 47.2816334004761 46.776231459439664 46.20490752609412 45.78740157480315 45.0842336568394 44.33711774400293 43.941585790148324 43.216443874748215 42.68906793627541 41.89800402856619 41.17286211316609 40.667460172129644 39.7665262772386 39.28309833363853 38.79967039003846 38.03058047976561 37.261490569492764 36.80003662332906 36.470426661783556 36.16279069767442 35.921076725874386 35.63541475920161 35.30580479765611 34.9761948361106 34.47079289507416 34.38289690532869 34.009338948910454 33.74565097967405 33.350119025819446 32.91063907709211 32.62497711041934 32.00970518220106 31.767991210401025 31.28456326680095 30.86705731550998 30.58139534883721 30.317707379600805 29.8562534334371 29.76835744369163 29.41677348470976 29.219007507782457 29.087163523164257 29.043215528291523 28.955319538546053 28.867423548800588 28.801501556491484 28.735579564182384 28.64768357443692 28.49386559238235 28.427943600073245 28.362021607764145 28.296099615455045 28.208203625709576 28.16425563083684 28.09833363852774 28.03241164621864 27.96648965390954 27.90056766160044 27.768723676982237 27.702801684673137 27.614905694927668 27.461087712873102 27.395165720564 27.329243728254898 27.263321735945798 27.197399743636698 27.153451748763963 27.10950375389123 27.065555759018494 27.04358176158213 27.02160776414576 26.999633766709394 26.999633766709394 26.999633766709394 26.97765976927303 26.97765976927303 26.95568577183666 26.95568577183666 26.95568577183666 26.911737776963925 26.88976377952756 26.867789782091194 26.845815784654825 26.80186778978209 26.757919794909355 26.73594579747299 26.713971800036624 26.648049807727524 26.60410181285479 26.560153817982055 26.51620582310932 26.494231825672955 26.45028383080022 26.42830983336385 26.42830983336385 26.406335835927486 26.38436183849112 26.38436183849112 26.38436183849112 26.36238784105475 26.340413843618386 26.340413843618386 26.340413843618386 26.340413843618386 26.318439846182017 26.29646584874565 26.274491851309286 26.274491851309286 26.252517853872916 26.274491851309286 26.252517853872916 26.252517853872916 26.252517853872916 26.252517853872916 26.252517853872916 26.23054385643655 26.23054385643655 26.208569859000182 26.186595861563816 26.164621864127447 26.164621864127447 26.14264786669108 26.120673869254716 26.098699871818347 26.098699871818347 26.07672587438198 26.07672587438198 26.07672587438198 26.07672587438198 26.054751876945616 26.054751876945616 26.054751876945616 26.054751876945616 26.054751876945616 26.054751876945616 26.054751876945616 26.032777879509247 26.032777879509247 26.032777879509247 26.032777879509247 26.032777879509247 26.01080388207288 26.01080388207288 26.01080388207288 26.032777879509247 26.01080388207288 26.01080388207288 26.01080388207288 26.01080388207288 26.01080388207288 26.01080388207288 26.01080388207288 25.988829884636512 25.988829884636512 25.988829884636512 25.988829884636512 25.988829884636512 25.966855887200147 25.966855887200147 25.966855887200147 25.966855887200147 25.966855887200147 25.966855887200147 25.966855887200147 25.966855887200147 25.966855887200147 25.966855887200147 25.944881889763778 25.944881889763778 25.944881889763778 25.944881889763778 25.944881889763778 25.966855887200147 25.944881889763778 25.944881889763778 25.944881889763778 25.922907892327412 25.922907892327412 25.922907892327412 25.922907892327412 25.900933894891047 25.878959897454678 25.856985900018312 25.835011902581943 25.835011902581943 25.813037905145578 25.791063907709212 25.813037905145578 25.791063907709212 25.791063907709212 25.791063907709212 25.769089910272843 25.769089910272843 25.769089910272843 25.769089910272843 25.769089910272843 25.769089910272843 25.747115912836477 25.769089910272843 25.747115912836477 25.747115912836477 25.747115912836477 25.747115912836477 25.747115912836477 25.747115912836477 25.747115912836477 25.747115912836477 25.747115912836477 25.72514191540011 25.747115912836477 25.747115912836477 25.72514191540011 25.703167917963743 25.72514191540011 25.703167917963743 25.681193920527377 25.681193920527377 25.681193920527377 25.681193920527377 25.65921992309101 25.65921992309101 25.65921992309101 25.65921992309101 25.65921992309101 25.65921992309101 25.65921992309101 25.637245925654643 25.637245925654643 25.637245925654643 25.65921992309101 25.637245925654643 25.637245925654643 25.637245925654643 25.637245925654643 25.637245925654643 25.637245925654643 25.637245925654643 25.65921992309101 25.65921992309101 25.637245925654643 25.637245925654643 25.65921992309101 25.637245925654643 25.637245925654643 25.637245925654643 25.637245925654643 25.637245925654643 25.637245925654643 25.65921992309101 25.65921992309101 25.65921992309101 25.65921992309101 25.65921992309101 25.65921992309101 25.65921992309101 25.65921992309101 25.65921992309101 25.65921992309101 25.65921992309101 25.65921992309101 25.65921992309101 25.65921992309101 25.65921992309101 25.65921992309101 25.65921992309101 25.65921992309101 25.65921992309101 25.65921992309101 25.65921992309101 25.65921992309101 25.65921992309101 25.65921992309101 25.65921992309101 25.65921992309101 25.681193920527377 25.681193920527377 25.703167917963743 25.72514191540011 25.747115912836477 25.769089910272843 25.835011902581943 25.856985900018312 25.878959897454678 25.922907892327412 25.944881889763778 26.01080388207288 26.120673869254716 26.186595861563816 26.252517853872916 26.318439846182017 26.340413843618386 26.472257828236586 26.51620582310932 26.60410181285479 26.691997802600255 26.80186778978209 26.845815784654825 26.911737776963925 26.999633766709394 27.17542574620033 27.219373741073063 27.395165720564 27.570957700054933 27.724775682109502 27.96648965390954 28.296099615455045 28.49386559238235 28.91137154367332 29.570591466764327 30.010071415491666 30.339681377037174 30.713239333455412 31.43838124885552 31.87786119758286 32.20747115912837 32.49313312580114 32.932613074528476 33.262223036073976 33.54788500274675 33.789598974546784 34.075260941219554 34.29500091558323 34.6465848745651 34.9761948361106 35.21790880791064 35.56949276689251 36.03094671305622 36.316608679728986 36.58029664896539 36.865958615638164 37.3054385643655 37.74491851309284 38.16242446438381 38.42611243362022 39.06335835927486 39.39296832082036 39.788500274674966 40.227980223402305 40.601538179820544 41.23878410547519 41.59036806445706 42.13971800036623 42.667093938839045 43.08459989013001 43.655923823475554 43.98553378502106 44.57883171580296 45.15015564914851 45.54568760300312 46.182933528657756 46.86412744918513 47.58926936458524 48.31441127998535 48.81981322102179 49.3471891594946 50.050357077458344 50.577733015931145 51.21497894158579 51.85222486724043 52.46749679545871 53.03882072880425 53.61014466214979 53.93975462369529 54.269364585240794 54.73081853140451 55.32411646218641 55.71964841604102 56.29097234938656 56.906244277604834 57.34572422633217 58.20271012635048 59.03772202893243 59.47720197765977 59.938655923823475 60.378135872550814 60.81761582127815 61.6526277238601 62.11408167002381 62.75132759567845 63.256729536714886 63.67423548800586 64.3774034059696 64.88280534700604 65.8496612342062 66.5748031496063 67.10217908807911 67.89324299578831 68.57443691631569 69.27760483427943 70.06866874198866 70.63999267533418 71.45303058047976 72.24409448818898 72.81541842153452 73.8262223036074 74.30965024720747 74.83702618568029 75.5621681010804 76.3532320087896 76.90258194469877 77.47390587804432 78.24299578831716 78.92418970884452 79.47353964475371 79.97894158579015 80.70408350119027 81.38527742171763 81.93462735762681 82.85753524995422 83.38491118842703 84.02215711408166 84.63742904229994 85.05493499359092 85.6042849295001 85.97784288591834 86.46127082951841 86.87877678080937 87.14246475004578 87.49404870902765 87.75773667826405 88.08734663980957 88.37300860648233 88.52682658853689 88.6586705731551 88.7245925654642 88.7245925654642 88.70261856802784 88.68064457059147 88.61472257828237 88.37300860648233 88.10932063724593 87.77971067570043 87.45010071415491 86.98864676799121 86.63706280900934 86.35140084233657 85.82402490386376 85.2087529756455 84.79124702435452 84.08807910639078 83.36293719099066 82.54989928584509 81.89067936275407 81.34132942684491 80.68210950375389 79.84709760117195 79.25379967039004 78.37483977293536 77.21021790880792 76.57297198315328 75.6940120856986 75.03479216260759 74.33162424464385 73.45266434718917 72.46383446255265 71.47500457791614 70.55209668558872 69.78300677531587 68.92602087529757 67.87126899835195 66.92638710858817 66.1133492034426 65.43215528291522 64.66306537264236 63.52041750595129 62.707379600805716 61.89434169566014 61.16919978026002 60.46603186229628 59.54312396996887 58.15876213147775 57.609412195568574 56.686504303241165 56.00531038271379 55.06042849295001 54.44515656473173 53.632118659586155 53.060794726240616 52.57736678264054 51.39077092107672 51.149056949276684 50.248123054385644 49.83061710309467 49.39113715436733 48.84178721845816 48.31441127998535 47.94085332356711 47.43545138253067 47.061893426112434 46.556491485075995 45.985167551730456 45.28199963376671 44.90844167734847 44.53488372093023 44.16132576451199 43.370261856802784 43.172495879875484 42.38143197216627 41.81010803882073 41.17286211316609 40.82127815418421 40.447720197765975 39.7006042849295 39.370994323384 38.71177440029299 38.49203442592932 38.25032045412928 38.00860648232924 37.7009705182201 37.45925654642007 37.28346456692913 37.041750595129095 36.865958615638164 36.624244643838125 36.38253067203809 36.118842702801686 35.76725874381981 35.54751876945615 35.30580479765611 34.80040285661967 34.53671488738326 34.207104925837754 33.855520966855885 33.635780992492215 33.306171030946714 32.84471708478301 32.800769089910276 32.5151071232375 32.33931514374657 32.09760117194653 31.72404321552829 31.636147225782825 31.35048525911005 31.042849295000916 30.845083318073613 30.537447353964474 30.339681377037174 29.900201428309835 29.592565464200696 29.372825489837027 29.153085515473357 28.889397546236953 28.84544955136422 28.71360556674602 28.64768357443692 28.581761582127815 28.49386559238235 28.449917597509614 28.362021607764145 28.296099615455045 28.208203625709576 28.12030763596411 28.03241164621864 27.944515656473172 27.856619666727706 27.81267167185497 27.68082768723677 27.636879692364037 27.592931697491302 27.548983702618568 27.483061710309467 27.417139718000367 27.307269730818533 27.263321735945798 27.241347738509432 27.219373741073063 27.17542574620033 27.131477751327594 27.087529756454863 27.02160776414576 26.97765976927303 26.933711774400294 26.88976377952756 26.845815784654825 26.80186778978209 26.73594579747299 26.691997802600255 26.626075810291155 26.538179820545686 26.51620582310932 26.42830983336385 26.38436183849112 26.318439846182017 26.274491851309286 26.252517853872916 26.23054385643655 26.186595861563816 26.14264786669108 26.120673869254716 26.098699871818347 26.098699871818347 26.098699871818347 26.098699871818347 26.07672587438198 26.07672587438198 26.07672587438198 26.07672587438198 26.054751876945616 26.032777879509247 26.032777879509247 26.032777879509247 26.032777879509247 26.032777879509247 26.01080388207288 26.01080388207288 26.01080388207288 25.988829884636512 25.988829884636512 25.966855887200147 25.944881889763778 25.922907892327412 25.922907892327412 25.922907892327412 25.900933894891047 25.900933894891047 25.900933894891047 25.900933894891047 25.900933894891047 25.900933894891047 25.900933894891047 25.900933894891047 25.900933894891047 25.900933894891047 25.878959897454678 25.900933894891047 25.878959897454678 25.878959897454678 25.878959897454678 25.900933894891047 25.878959897454678 25.878959897454678 25.878959897454678 25.878959897454678 25.878959897454678 25.878959897454678 25.878959897454678 25.878959897454678 25.878959897454678 25.878959897454678 25.878959897454678 25.878959897454678 25.856985900018312 25.878959897454678 25.878959897454678 25.878959897454678 25.878959897454678 25.856985900018312 25.878959897454678 25.878959897454678 25.878959897454678 25.856985900018312 25.878959897454678 25.856985900018312 25.856985900018312 25.878959897454678 25.878959897454678 25.856985900018312 25.856985900018312 25.856985900018312 25.856985900018312 25.856985900018312 25.878959897454678 25.856985900018312 25.856985900018312 25.856985900018312 25.856985900018312 25.856985900018312 25.856985900018312 25.856985900018312 25.856985900018312 25.856985900018312 25.856985900018312 25.856985900018312 25.856985900018312 25.856985900018312 25.856985900018312 25.856985900018312 25.856985900018312 25.856985900018312 25.835011902581943 25.856985900018312 25.856985900018312 25.835011902581943 25.835011902581943 25.835011902581943 25.835011902581943 25.835011902581943 25.835011902581943 25.835011902581943 25.835011902581943 25.835011902581943 25.835011902581943 25.835011902581943 25.835011902581943 25.835011902581943 25.835011902581943 25.835011902581943 25.835011902581943 25.813037905145578 25.813037905145578 25.835011902581943 25.835011902581943 25.813037905145578 25.813037905145578 25.835011902581943 25.813037905145578 25.813037905145578 25.813037905145578 25.813037905145578 25.813037905145578 25.813037905145578 25.813037905145578 25.813037905145578 25.813037905145578 25.813037905145578 25.813037905145578 25.813037905145578 25.813037905145578 25.813037905145578 25.813037905145578 25.813037905145578 25.813037905145578 25.813037905145578 25.813037905145578 25.813037905145578 25.813037905145578 25.813037905145578 25.813037905145578 25.813037905145578 25.813037905145578 25.813037905145578 25.813037905145578 25.813037905145578 25.813037905145578 25.813037905145578 25.813037905145578 25.813037905145578 25.813037905145578 25.813037905145578 25.813037905145578 25.813037905145578 25.813037905145578 25.813037905145578 25.813037905145578 25.813037905145578 25.813037905145578 25.813037905145578 25.813037905145578 25.813037905145578 25.813037905145578 25.813037905145578 25.813037905145578 25.813037905145578 25.813037905145578 25.813037905145578 25.813037905145578 25.813037905145578 25.813037905145578 25.813037905145578 25.813037905145578 25.813037905145578 25.791063907709212 25.813037905145578 25.813037905145578 25.813037905145578 25.813037905145578 25.791063907709212 25.791063907709212 25.791063907709212 25.813037905145578 25.813037905145578 25.813037905145578 25.813037905145578 25.813037905145578 25.813037905145578 25.813037905145578 25.835011902581943 25.835011902581943 25.856985900018312 25.856985900018312 25.878959897454678 25.922907892327412 25.988829884636512 26.032777879509247 26.14264786669108 26.208569859000182 26.274491851309286 26.38436183849112 26.472257828236586 26.626075810291155 26.911737776963925 26.999633766709394 27.131477751327594 27.263321735945798 27.417139718000367 27.74674967954587 28.03241164621864 28.38399560520051 28.735579564182384 29.087163523164257 29.306903497527927 29.526643471891596 29.8562534334371 30.119941402673504 30.339681377037174 30.603369346273574 30.932979307819082 31.15271928218275 31.614173228346456 31.87786119758286 32.14154916681926 32.5151071232375 32.91063907709211 33.438015015564915 33.569859000183115 33.855520966855885 34.51474088994689 34.8443508514924 35.23988280534701 35.85515473356528 36.250686687419886 36.756088628456325 37.3054385643655 38.18439846182018 38.55795641823842 38.82164438747482 39.19520234389306 39.524812305438566 39.876396264420436 40.315876213147774 40.82127815418421 41.21681010803882 41.83208203625709 42.27156198498443 42.930781908075446 43.52407983885735 44.007507782457424 44.90844167734847 45.61160959531222 46.117011536348656 46.73228346456693 47.23768540560337 47.91887932613075 48.81981322102179 49.19337117744003 49.742721113349205 50.226149056949275 50.84142098516755 51.4786669108222 51.96209485442226 52.53341878776781 53.14869071598608 53.654092657022524 54.35726057498627 55.17029848013185 55.983336385277426 56.796374290423 57.389672221204904 57.93902215711408 58.77403405969603 59.3893059879143 60.597875846914484 61.23512177256912 62.13605566746017 63.366599523896724 64.2455594213514 64.94872733931514 65.5859732649698 66.2451931880608 67.08020509064274 67.69547701886101 68.66233290606115 69.58524079838858 70.53012268815235 71.40908258560702 72.11225050357078 72.74949642922542 73.38674235488006 73.93609229078925 74.72715619849845 75.6940120856986 76.6828419703351 77.1442959164988 77.62772386009888 78.11115180369896 78.57260574986266 79.05603369346274 80.00091558322652 80.68210950375389 81.38527742171763 81.86870536531771 82.59384728071782 83.09924922175426 83.69254715253618 84.1320271012635 84.76927302691814 85.42849295000916 85.82402490386376 86.28547885002747 86.83482878593665 87.14246475004578 87.55997070133675 87.84563266800953 88.17524262955503 88.50485259110053 88.8564365500824 89.14209851675518 89.31789049624611 89.47170847830067 89.64750045779161 89.77934444240981 89.82329243728255 89.82329243728255 89.84526643471892 89.82329243728255 89.82329243728255 89.69144845266435 89.47170847830067 89.29591649880975 88.76854056033693 88.43893059879144 87.99945065006409 87.47207471159129 86.7908807910639 86.19758286028201 85.71415491668193 85.23072697308186 84.48361106024538 83.7364951474089 83.01135323200879 82.26423731917231 81.58304339864495 80.85790148324483 79.82512360373559 79.09998168833548 78.5506317524263 77.51785387291704 77.21021790880792 76.37520600622597 75.78190807544406 74.90294817798939 74.17780626258927 73.65043032411646 72.92528840871636 72.17817249587988 71.40908258560702 70.8377586522615 70.37630470609778 69.58524079838858 68.8381248855521 68.31074894707929 67.45376304706097 66.55282915216993 66.02545321369712 65.27833730086064 64.72898736495148 64.1137154367332 63.146859549533055 62.59750961362388 61.7185497161692 60.88353781358725 60.26826588536898 59.367331990477936 58.46639809558689 57.80717817249588 56.9941402673503 56.15912836476836 55.60977842885919 54.90661051089544 54.15949459805896 53.01684673136788 52.291704815967776 51.63248489287676 51.10510895440396 50.314045046694744 49.808643105658305 48.73191723127633 48.38033327229445 47.74308734663981 47.30360739791247 46.66636147225783 46.02911554660319 45.34792162607581 44.84251968503937 44.38106573887566 43.897637795275585 43.282365867057315 42.842885918329976 42.13971800036623 41.76616004394799 41.17286211316609 40.79930415674785 40.447720197765975 39.876396264420436 39.173228346456696 38.90954037722029 38.07452847463834 37.45925654642007 37.327412561801864 36.997802600256364 36.58029664896539 36.07489470792895 35.54751876945615 34.9761948361106 34.42684490020143 33.877494964292254 33.459989013001284 33.064457059146676 32.69089910272844 32.3173411463102 31.87786119758286 31.57022523347372 31.174693279619117 30.757187328328143 30.471525361655374 30.29573338216444 30.119941402673504 29.966123420618935 29.658487456509796 29.460721479582496 29.284929500091557 29.087163523164257 28.889397546236953 28.77952755905512 28.71360556674602 28.64768357443692 28.603735579564184 28.55978758469145 28.515839589818714 28.49386559238235 28.427943600073245 28.362021607764145 28.31807361289141 28.27412561801868 28.208203625709576 28.16425563083684 28.12030763596411 28.09833363852774 28.03241164621864 27.96648965390954 27.922541659036806 27.856619666727706 27.74674967954587 27.724775682109502 27.68082768723677 27.658853689800402 27.614905694927668 27.548983702618568 27.527009705182202 27.461087712873102 27.395165720564 27.351217725691264 27.307269730818533 27.263321735945798 27.241347738509432 27.197399743636698 27.17542574620033 27.153451748763963 27.10950375389123 27.087529756454863 27.087529756454863 27.065555759018494 27.02160776414576 26.999633766709394 26.97765976927303 26.97765976927303 26.95568577183666 26.933711774400294 26.867789782091194 26.82384178721846 26.80186778978209 26.757919794909355 26.713971800036624 26.67002380516389 26.626075810291155 26.560153817982055 26.538179820545686 26.494231825672955 26.472257828236586 26.45028383080022 26.42830983336385 26.406335835927486 26.38436183849112 26.38436183849112 26.36238784105475 26.340413843618386 26.340413843618386 26.318439846182017 26.318439846182017 26.318439846182017 26.274491851309286 26.23054385643655 26.164621864127447 26.14264786669108 26.14264786669108 26.120673869254716 26.120673869254716 26.098699871818347 26.07672587438198 26.054751876945616 26.01080388207288 25.988829884636512 25.944881889763778 25.922907892327412 25.900933894891047 25.835011902581943 25.813037905145578 25.791063907709212 25.791063907709212 25.769089910272843 25.769089910272843 25.747115912836477 25.747115912836477 25.747115912836477 25.747115912836477 25.747115912836477 25.747115912836477 25.747115912836477 25.747115912836477 25.747115912836477 25.72514191540011 25.72514191540011 25.72514191540011 25.703167917963743 25.703167917963743 25.703167917963743 25.703167917963743 25.703167917963743 25.703167917963743 25.681193920527377 25.681193920527377 25.681193920527377 25.681193920527377 25.681193920527377 25.65921992309101 25.637245925654643 25.637245925654643 25.637245925654643 25.615271928218274 25.615271928218274 25.593297930781908 25.593297930781908 25.571323933345543 25.571323933345543 25.549349935909174 25.549349935909174 25.549349935909174 25.549349935909174 25.527375938472808 25.527375938472808 25.50540194103644 25.50540194103644 25.50540194103644 25.50540194103644 25.50540194103644 25.50540194103644 25.50540194103644 25.50540194103644 25.50540194103644 25.50540194103644 25.50540194103644 25.50540194103644 25.50540194103644 25.483427943600073 25.50540194103644 25.483427943600073 25.50540194103644 25.483427943600073 25.50540194103644 25.50540194103644 25.483427943600073 25.483427943600073 25.483427943600073 25.483427943600073 25.50540194103644 25.483427943600073 25.483427943600073 25.483427943600073 25.483427943600073 25.483427943600073 25.483427943600073 25.483427943600073 25.461453946163708 25.483427943600073 25.483427943600073 25.483427943600073 25.483427943600073 25.483427943600073 25.483427943600073 25.483427943600073 25.483427943600073 25.483427943600073 25.483427943600073 25.461453946163708 25.483427943600073 25.483427943600073 25.461453946163708 25.461453946163708 25.461453946163708 25.461453946163708 25.461453946163708 25.461453946163708 25.461453946163708 25.461453946163708 25.461453946163708 25.461453946163708 25.461453946163708 25.461453946163708 25.461453946163708 25.461453946163708 25.461453946163708 25.461453946163708 25.461453946163708 25.461453946163708 25.461453946163708 25.461453946163708 25.461453946163708 25.461453946163708 25.461453946163708 25.461453946163708 25.461453946163708 25.461453946163708 25.461453946163708 25.461453946163708 25.461453946163708 25.461453946163708 25.461453946163708 25.461453946163708 25.461453946163708 25.461453946163708 25.461453946163708 25.461453946163708 25.461453946163708 25.461453946163708 25.461453946163708 25.461453946163708 25.461453946163708 25.461453946163708 25.461453946163708 25.461453946163708 25.461453946163708 25.461453946163708 25.461453946163708 25.461453946163708 25.461453946163708 25.461453946163708 25.461453946163708 25.461453946163708 25.461453946163708 25.461453946163708 25.461453946163708 25.461453946163708 25.461453946163708 25.461453946163708 25.461453946163708 25.461453946163708 25.461453946163708 25.461453946163708 25.461453946163708 25.461453946163708 25.461453946163708 25.461453946163708 25.461453946163708 25.461453946163708 25.461453946163708 25.461453946163708 25.461453946163708 25.483427943600073 25.483427943600073 25.461453946163708 25.483427943600073 25.483427943600073 25.483427943600073 25.483427943600073 25.50540194103644 25.527375938472808 25.549349935909174 25.593297930781908 25.65921992309101 25.681193920527377 25.769089910272843 25.856985900018312 25.944881889763778 26.032777879509247 26.120673869254716 26.23054385643655 26.406335835927486 26.51620582310932 26.73594579747299 26.82384178721846 26.97765976927303 27.065555759018494 27.153451748763963 27.329243728254898 27.68082768723677 27.87859366416407 28.208203625709576 28.449917597509614 28.801501556491484 29.19703351034609 29.526643471891596 30.010071415491666 30.493499359091743 30.86705731550998 31.43838124885552 32.27339315143747 32.49313312580114 33.020509064273945 33.416041018128546 34.075260941219554 34.82237685405603 35.10803882072881 35.67936275407435 36.44845266434719 36.778062625892694 37.1735945797473 37.5691265336019 38.11847646951108 38.66782640542025 39.39296832082036 39.876396264420436 40.249954220838674 40.535616187511444 40.86522614905695 41.30470609778429 41.81010803882073 42.24958798754807 42.733015931148145 43.370261856802784 43.85368980040286 44.51290972349386 45.19410364402124 45.69950558505768 46.424647500457795 46.93004944149423 47.67716535433071 48.33638527742171 48.84178721845816 49.852591100531036 50.29207104925838 51.4786669108222 51.72038088262223 52.18183482878594 52.68723676982238 53.324482695477016 53.785936641640724 54.48910455960447 55.17029848013185 55.71964841604102 56.51071232375023 57.060062259659404 58.15876213147775 58.66416407251419 59.21351400842337 60.04852591100531 60.97143380333272 61.82841970335103 62.39974363669658 63.036989562351216 63.915949459805894 65.38820728804248 66.02545321369712 66.68467313678813 67.25599707013367 67.78337300860647 69.01391686504303 69.67313678813403 70.42025270097052 71.2332906061161 71.73869254715254 72.50778245742538 73.47463834462553 74.08991027284381 74.52939022157113 74.99084416773485 75.51822010620765 76.11151803698957 76.52902398828054 77.276139901117 77.69364585240798 78.04522981138985 78.6165537447354 79.18787767808094 79.56143563449919 80.28657754989928 80.74803149606299 81.2754074345358 81.84673136788135 81.97857535249955 82.52792528840871 83.05530122688153 83.58267716535434 84.0661051089544 84.43966306537266 84.87914301409998 85.16480498077274 85.51638893975462 85.95586888848196 86.10968687053654 86.28547885002747 86.48324482695477 86.54916681926387 86.6590368064457 86.68101080388207 86.70298480131844 86.72495879875481 86.72495879875481 86.70298480131844 86.68101080388207 86.57114081670024 86.41732283464567 86.2635048525911 86.06573887566381 85.82402490386376 85.56033693462736 85.27467496795458 84.96703900384546 84.70335103460906 84.30781908075444 84.0001831166453 83.56070316791798 83.0772752243179 82.70371726789965 82.24226332173595 81.69291338582677 81.29738143197216 80.74803149606299 80.11078557040835 79.71525361655375 79.12195568577184 78.66050173960812 77.9573338216444 77.21021790880792 76.46310199597144 75.75993407800769 75.21058414209853 74.63926020875297 73.6284563266801 73.1010803882073 72.22212049075262 71.40908258560702 70.8377586522615 69.6951107855704 69.38747482146127 68.55246291887933 67.71745101629739 67.03625709577 66.3111151803699 65.19044131111518 64.5751693828969 64.04779344442409 63.190807544405786 62.09210767258744 61.67460172129647 60.99340780076909 59.521149972532506 59.14759201611427 58.31258011353232 57.82915216993224 57.257828236586704 56.466764328877495 55.71964841604102 55.14832448269547 54.42318256729537 53.895806628822555 53.170664713422454 52.423548800585976 51.65445889031313 51.17103094671306 50.40194103644021 49.69877311847647 49.08350119025819 48.57809924922175 47.50137337483977 46.688335469694195 46.13898553378502 45.41384361838491 44.77659769273027 44.38106573887566 43.568027833730085 43.128547885002746 42.51327595678447 41.9639260208753 41.56839406702069 40.99707013367515 40.601538179820544 40.074162241347736 39.524812305438566 39.107306354147596 38.62387841054752 38.03058047976561 37.65702252334737 36.865958615638164 36.426478666910825 36.052920710492586 35.56949276689251 35.19593481047427 34.6465848745651 33.98736495147409 33.723676982237684 33.372093023255815 33.064457059146676 32.84471708478301 32.60300311298297 32.3832631386193 31.89983519501923 31.548251236037355 31.30653726423732 30.911005310382713 30.603369346273574 30.20783739241897 29.746383446255265 29.438747482146127 28.999267533418788 28.735579564182384 28.62570957700055 28.47189159494598 28.34004761032778 28.25215162058231 28.16425563083684 28.05438564365501 27.988463651345906 27.944515656473172 27.90056766160044 27.856619666727706 27.81267167185497 27.790697674418606 27.724775682109502 27.702801684673137 27.636879692364037 27.592931697491302 27.570957700054933 27.527009705182202 27.483061710309467 27.417139718000367 27.351217725691264 27.307269730818533 27.263321735945798 27.219373741073063 27.17542574620033 27.10950375389123 27.065555759018494 27.02160776414576 26.97765976927303 26.95568577183666 26.88976377952756 26.867789782091194 26.845815784654825 26.82384178721846 26.82384178721846 26.80186778978209 26.73594579747299 26.691997802600255 26.626075810291155 26.538179820545686 26.494231825672955 26.45028383080022 26.38436183849112 26.36238784105475 26.318439846182017 26.29646584874565 26.274491851309286 26.252517853872916 26.23054385643655 26.208569859000182 26.208569859000182 26.208569859000182 26.186595861563816 26.164621864127447 26.14264786669108 26.120673869254716 26.098699871818347 26.07672587438198 26.032777879509247 26.01080388207288 25.988829884636512 25.966855887200147 25.966855887200147 25.944881889763778 25.944881889763778 25.944881889763778 25.944881889763778 25.944881889763778 25.922907892327412 25.944881889763778 25.922907892327412 25.922907892327412 25.922907892327412 25.922907892327412 25.900933894891047 25.922907892327412 25.900933894891047 25.900933894891047 25.900933894891047 25.900933894891047 25.878959897454678 25.878959897454678 25.878959897454678 25.878959897454678 25.878959897454678 25.878959897454678 25.878959897454678 25.878959897454678 25.878959897454678 25.856985900018312 25.878959897454678 25.856985900018312 25.856985900018312 25.856985900018312 25.856985900018312 25.856985900018312 25.856985900018312 25.856985900018312 25.856985900018312 25.856985900018312 25.856985900018312 25.856985900018312 25.835011902581943 25.835011902581943 25.835011902581943 25.835011902581943 25.835011902581943 25.835011902581943 25.835011902581943 25.835011902581943 25.835011902581943 25.835011902581943 25.835011902581943 25.835011902581943 25.835011902581943 25.835011902581943 25.835011902581943 25.835011902581943 25.835011902581943 25.835011902581943 25.835011902581943 25.835011902581943 25.835011902581943 25.835011902581943 25.835011902581943 25.835011902581943 25.835011902581943 25.835011902581943 25.835011902581943 25.835011902581943 25.835011902581943 25.835011902581943 25.835011902581943 25.835011902581943 25.835011902581943 25.835011902581943 25.835011902581943 25.835011902581943 25.835011902581943 25.835011902581943 25.835011902581943 25.835011902581943 25.835011902581943 25.835011902581943 25.835011902581943 25.835011902581943 25.835011902581943 25.835011902581943 25.835011902581943 25.835011902581943 25.835011902581943 25.835011902581943 25.835011902581943 25.835011902581943 25.835011902581943 25.835011902581943 25.835011902581943 25.835011902581943 25.835011902581943 25.835011902581943 25.835011902581943 25.835011902581943 25.835011902581943 25.835011902581943 25.835011902581943 25.835011902581943 25.835011902581943 25.835011902581943 25.835011902581943 25.835011902581943 25.835011902581943 25.835011902581943 25.835011902581943 25.835011902581943 25.835011902581943 25.835011902581943 25.835011902581943 25.835011902581943 25.835011902581943 25.835011902581943 25.835011902581943 25.835011902581943 25.835011902581943 25.835011902581943 25.835011902581943 25.835011902581943 25.835011902581943 25.835011902581943 25.835011902581943 25.835011902581943 25.835011902581943 25.835011902581943 25.835011902581943 25.835011902581943 25.835011902581943 25.835011902581943 25.835011902581943 25.835011902581943 25.835011902581943 25.835011902581943 25.835011902581943 25.835011902581943 25.835011902581943 25.835011902581943 25.835011902581943 25.835011902581943 25.835011902581943 25.835011902581943 25.835011902581943 25.835011902581943 25.835011902581943 25.813037905145578 25.835011902581943 25.835011902581943 25.835011902581943 25.835011902581943 25.835011902581943 25.835011902581943 25.835011902581943 25.835011902581943 25.835011902581943 25.813037905145578 25.813037905145578 25.835011902581943 25.813037905145578 25.835011902581943 25.813037905145578 25.813037905145578 25.813037905145578 25.835011902581943 25.813037905145578 25.835011902581943 25.813037905145578 25.835011902581943 25.813037905145578 25.813037905145578 25.813037905145578 25.813037905145578 25.813037905145578 25.813037905145578 25.813037905145578 25.813037905145578 25.813037905145578 25.813037905145578 25.813037905145578 25.813037905145578 25.813037905145578 25.813037905145578 25.813037905145578 25.813037905145578 25.813037905145578 25.813037905145578 25.813037905145578 25.813037905145578 25.813037905145578 25.813037905145578 25.813037905145578 25.813037905145578 25.813037905145578 25.813037905145578 25.813037905145578 25.813037905145578 25.835011902581943 25.813037905145578 25.813037905145578 25.813037905145578 25.813037905145578 25.835011902581943 25.835011902581943 25.835011902581943 25.835011902581943 25.856985900018312 25.856985900018312 25.900933894891047 25.944881889763778 26.032777879509247 26.120673869254716 26.252517853872916 26.36238784105475 26.494231825672955 26.648049807727524 26.779893792345725 27.02160776414576 27.285295733382164 27.505035707745833 27.87859366416407 28.208203625709576 28.603735579564184 29.19703351034609 29.790331441127996 30.471525361655374 31.108771287310017 31.614173228346456 32.33931514374657 32.82274308734664 33.48196301043765 34.11920893609229 34.49276689251053 35.10803882072881 35.43764878227431 35.76725874381981 36.404504669474456 36.73411463101996 37.1735945797473 37.4372825489837 37.65702252334737 38.03058047976561 38.29426844900202 39.08533235671123 39.4369163156931 39.744552279802235 40.184032228529574 40.645486174693275 40.97509613623878 41.54642006958433 41.94195202343893 42.49130195934811 43.062625892693646 43.48013184398462 44.02948177989379 44.60080571323933 45.04028566196667 45.50173960813038 45.89727156198498 46.380699505585056 46.842153451748764 47.325581395348834 47.74308734663981 48.09467130562168 48.40230726973082 48.88573521333089 49.39113715436733 49.720747115912836 50.204175059512906 50.577733015931145 51.17103094671306 51.76432887749496 52.2697308185314 52.88500274674968 53.390404687786116 54.02765061344076 54.75279252884087 55.28016846731368 56.400842336568395 56.972166269913934 57.54349020325947 58.22468412378685 58.79600805713239 59.872733931514375 60.729719831532684 61.36696575718733 62.11408167002381 63.01501556491485 63.476469511078555 64.33345541109688 64.88280534700604 65.73979124702436 66.83849111884271 67.49771104193371 68.09100897271563 68.7062809009339 69.27760483427943 70.09064273942502 70.61801867789782 71.3651345907343 72.11225050357078 72.8373924189709 73.58450833180737 74.04596227797106 74.52939022157113 75.10071415491669 75.58414209851676 76.46310199597144 77.18824391137156 77.69364585240798 78.46273576268084 79.12195568577184 79.671305621681 80.24262955502655 81.0117194652994 81.75883537813587 82.83556125251786 83.40688518586339 83.9342611243362 84.41768906793627 84.85716901666362 85.49441494231826 85.9338948910456 86.41732283464567 86.94469877311849 87.29628273210035 87.91155466031863 88.21919062442777 88.50485259110053 88.9223585423915 89.18604651162791 89.55960446804615 90.10895440395532 90.17487639626442 90.19685039370079 90.19685039370079 90.19685039370079 90.17487639626442 90.17487639626442 90.10895440395532 89.91118842702802 89.71342245010072 89.42776048342795 89.22999450650065 88.9223585423915 88.57077458340964 88.28511261673685 87.86760666544589 87.20838674235489 87.01062076542757 86.46127082951841 85.84599890130013 85.4065189525728 84.83519501922726 84.3957150704999 83.45083318073613 82.98937923457243 82.22028932429959 81.51712140633583 80.70408350119027 80.22065555759019 79.47353964475371 78.90221571140816 78.11115180369896 77.29811389855337 76.77073796008057 75.93572605749863 75.36440212415309 74.59531221388025 73.80424830617103 73.03515839589818 72.4198864676799 71.78264054202528 70.77183665995238 70.15656473173412 69.60721479582494 68.39864493682475 67.80534700604285 67.12415308551547 65.80571323933346 65.10254532136972 64.13568943416956 63.16883354696942 62.42171763413294 61.43288774949643 60.444057864859914 59.718915949459806 58.70811206738693 57.71928218275041 57.038088262223035 56.00531038271379 54.97253250320454 54.35726057498627 53.456326680095216 52.906976744186046 52.15986083134957 51.41274491851309 50.79747299029482 50.116279069767444 49.654825123603736 49.19337117744003 48.53415125434902 48.00677531587621 46.79820545687603 46.64438747482146 45.853323567112255 45.15015564914851 44.57883171580296 43.91961179271196 43.194469877311846 42.667093938839045 41.72221204907526 41.54642006958433 40.953122138802414 39.898370261856805 39.612708295184035 39.26112433620216 38.93151437465666 38.62387841054752 38.33821644387475 38.05255447720198 37.7009705182201 37.1076725874382 36.822010620765425 36.38253067203809 36.052920710492586 35.74528474638345 35.28383080021974 34.82237685405603 34.33894891045596 33.877494964292254 33.503937007874015 33.086431056583045 32.75682109503754 32.33931514374657 31.89983519501923 31.59219923091009 31.08679728987365 30.647317341146312 30.317707379600805 29.724409448818896 29.41677348470976 29.109137520600623 28.801501556491484 28.75755356161875 28.62570957700055 28.49386559238235 28.40596960263688 28.34004761032778 28.296099615455045 28.25215162058231 28.16425563083684 28.09833363852774 28.03241164621864 27.988463651345906 27.944515656473172 27.87859366416407 27.834645669291337 27.790697674418606 27.74674967954587 27.724775682109502 27.68082768723677 27.592931697491302 27.570957700054933 27.527009705182202 27.439113715436733 27.373191723127633 27.307269730818533 27.241347738509432 27.153451748763963 27.131477751327594 27.087529756454863 27.02160776414576 26.97765976927303 26.911737776963925 26.82384178721846 26.80186778978209 26.757919794909355 26.73594579747299 26.713971800036624 26.67002380516389 26.626075810291155 26.60410181285479 26.560153817982055 26.538179820545686 26.472257828236586 26.42830983336385 26.36238784105475 26.318439846182017 26.29646584874565 26.274491851309286 26.252517853872916 26.208569859000182 26.186595861563816 26.164621864127447 26.164621864127447 26.14264786669108 26.14264786669108 26.14264786669108 26.120673869254716 26.120673869254716 26.098699871818347 26.098699871818347 26.120673869254716 26.098699871818347 26.098699871818347 26.098699871818347 26.098699871818347 26.098699871818347 26.098699871818347 26.098699871818347 26.098699871818347 26.098699871818347 26.098699871818347 26.07672587438198 26.098699871818347 26.07672587438198 26.07672587438198 26.07672587438198 26.07672587438198 26.07672587438198 26.07672587438198 26.07672587438198 26.07672587438198 26.07672587438198 26.07672587438198 26.054751876945616 26.07672587438198 26.07672587438198 26.054751876945616 26.054751876945616 26.054751876945616 26.054751876945616 26.054751876945616 26.054751876945616 26.054751876945616 26.054751876945616 26.054751876945616 26.054751876945616 26.054751876945616 26.054751876945616 26.054751876945616 26.054751876945616 26.054751876945616 26.054751876945616 26.054751876945616 26.054751876945616 26.054751876945616 26.054751876945616 26.054751876945616 26.054751876945616 26.032777879509247 26.054751876945616 26.054751876945616 26.054751876945616 26.032777879509247 26.054751876945616 26.054751876945616 26.054751876945616 26.054751876945616 26.054751876945616 26.032777879509247 26.032777879509247 26.032777879509247 26.054751876945616 26.054751876945616 26.054751876945616 26.032777879509247 26.032777879509247 26.032777879509247 26.054751876945616 26.032777879509247 26.032777879509247 26.032777879509247 26.032777879509247 26.032777879509247 26.032777879509247 26.032777879509247 26.032777879509247 26.032777879509247 26.032777879509247 26.032777879509247 26.032777879509247 26.032777879509247 26.032777879509247 26.032777879509247 26.032777879509247 26.032777879509247 26.032777879509247 26.032777879509247 26.032777879509247 26.032777879509247 26.01080388207288 26.01080388207288 26.01080388207288 26.01080388207288 26.01080388207288 26.01080388207288 25.988829884636512 25.988829884636512 25.988829884636512 25.966855887200147 25.966855887200147 25.944881889763778 25.966855887200147 25.944881889763778 25.944881889763778 25.944881889763778 25.944881889763778 25.944881889763778 25.944881889763778 25.944881889763778 25.944881889763778 25.922907892327412 25.944881889763778 25.944881889763778 25.944881889763778 25.944881889763778 25.944881889763778 25.944881889763778 25.944881889763778 25.944881889763778 25.944881889763778 25.944881889763778 25.944881889763778 25.944881889763778 25.922907892327412 25.944881889763778 25.944881889763778 25.944881889763778 25.944881889763778 25.944881889763778 25.944881889763778 25.944881889763778 25.922907892327412 25.922907892327412 25.922907892327412 25.922907892327412 25.944881889763778 25.944881889763778 25.922907892327412 25.944881889763778 25.922907892327412 25.944881889763778 25.922907892327412 25.922907892327412 25.922907892327412 25.922907892327412 25.922907892327412 25.922907892327412 25.922907892327412 25.922907892327412 25.922907892327412 25.922907892327412 25.922907892327412 25.922907892327412 25.922907892327412 25.922907892327412 25.922907892327412 25.922907892327412 25.922907892327412 25.922907892327412 25.922907892327412 25.900933894891047 25.900933894891047 25.878959897454678 25.878959897454678 25.878959897454678 25.878959897454678 25.856985900018312 25.856985900018312 25.856985900018312 25.856985900018312 25.856985900018312 25.856985900018312 25.856985900018312 25.856985900018312 25.856985900018312 25.856985900018312 25.856985900018312 25.856985900018312 25.856985900018312 25.856985900018312 25.856985900018312 25.856985900018312 25.856985900018312 25.856985900018312 25.856985900018312 25.856985900018312 25.856985900018312 25.856985900018312 25.835011902581943 25.835011902581943 25.835011902581943 25.835011902581943 25.835011902581943 25.856985900018312 25.856985900018312 25.878959897454678 25.900933894891047 25.922907892327412 25.944881889763778 26.032777879509247 26.164621864127447 26.252517853872916 26.340413843618386 26.45028383080022 26.626075810291155 26.73594579747299 26.867789782091194 26.95568577183666 27.10950375389123 27.307269730818533 27.505035707745833 27.768723676982237 28.230177623145945 28.69163156930965 29.109137520600623 29.438747482146127 30.20783739241897 30.779161325764512 31.21864127449185 31.81193920527376 32.42721113349204 32.84471708478301 33.284197033510345 33.789598974546784 34.22907892327412 34.86632484892877 35.48159677714705 35.96502472074712 36.624244643838125 37.327412561801864 37.7668925105292 38.62387841054752 39.21717634132943 39.788500274674966 40.118110236220474 40.75535616187511 41.21681010803882 42.11774400292987 42.71104193371177 44.271195751693824 44.51290972349386 44.99633766709394 45.63358359274858 46.20490752609412 47.017945431239696 47.87493133125801 48.49020325947629 49.237319172312766 50.072331074894706 50.665629005676614 51.50064090825856 51.96209485442226 52.68723676982238 53.390404687786116 53.87383263138619 54.5330525544772 55.21424647500458 55.65372642373192 56.33492034425929 56.818348287859365 57.52151620582311 58.22468412378685 59.03772202893243 59.784837941768906 60.40010986998718 60.83958981871452 61.82841970335103 62.37776963926021 63.124885552096686 63.87200146493316 64.59714338033328 65.08057132393334 65.80571323933346 66.3111151803699 67.10217908807911 67.71745101629739 68.55246291887933 69.32155282915217 70.04669474455227 70.68394067020692 71.51895257278886 72.06830250869804 72.85936641640725 73.47463834462553 74.33162424464385 75.01281816517121 75.45229811389855 76.0895440395532 76.52902398828054 76.90258194469877 77.64969785753524 78.30891778062626 78.63852774217176 79.23182567295368 79.73722761399011 80.17670756271745 80.79197949093573 81.34132942684491 81.75883537813587 82.30818531404505 82.65976927302691 83.3409631935543 83.67057315509979 84.15400109869987 84.30781908075444 84.76927302691814 85.3405969602637 85.62625892693646 85.9998168833547 86.35140084233657 86.59311481413661 86.9227247756821 87.12049075260941 87.31825672953671 87.62589269364585 87.75773667826405 87.95550265519137 88.04339864493683 88.15326863211865 88.24116462186413 88.28511261673685 88.32906061160959 88.35103460904597 88.37300860648233 88.37300860648233 88.35103460904597 88.35103460904597 88.24116462186413 88.08734663980957 87.88958066288225 87.64786669108221 87.38417872184581 87.05456876030031 86.5271928218275 86.19758286028201 85.75810291155466 85.38454495513642 84.83519501922726 84.24189708844534 83.75846914484526 83.09924922175426 82.37410730635415 81.78080937557223 81.0776414576085 80.24262955502655 79.42959164988098 78.83629371909907 78.19904779344444 77.05639992675334 76.44112799853508 75.8258560703168 74.77110419337117 74.17780626258927 73.29884636513458 72.74949642922542 71.98040651895258 71.18934261124336 70.9036806445706 69.84892876762498 69.01391686504303 68.39864493682475 67.56363303424281 66.70664713422451 65.82768723676982 65.01464933162424 64.4433253982787 63.93792345724226 63.16883354696942 62.64145760849661 61.80644570591467 61.03735579564182 60.444057864859914 59.54312396996887 58.9278520417506 57.67533418787768 57.08203625709577 56.466764328877495 55.21424647500458 54.68687053653177 54.00567661600439 52.88500274674968 52.2697308185314 51.50064090825856 50.379967039003844 49.742721113349205 49.171397180003666 48.46822926203992 47.67716535433071 47.193737410730634 46.688335469694195 45.74345357993042 45.30397363120308 44.79857169016664 44.18329976194836 43.54605383629372 43.106573887566384 42.44735396447537 42.00787401574803 40.79930415674785 40.469694195202344 40.096136238784105 39.7006042849295 39.32704632851126 38.97546236952939 38.38216443874748 38.09650247207471 37.67899652078374 37.3054385643655 37.019776597692726 36.668192638710856 36.360556674601725 36.052920710492586 35.65738875663798 35.34975279252884 34.62461087712873 34.22907892327412 33.943416956601354 33.503937007874015 33.174327046328514 32.866691082219376 32.29536714887384 31.987731184764694 31.59219923091009 31.174693279619117 30.911005310382713 30.58139534883721 30.36165537447354 30.032045412928035 29.812305438564366 29.284929500091557 29.043215528291523 28.867423548800588 28.823475553927853 28.75755356161875 28.669657571873284 28.603735579564184 28.515839589818714 28.47189159494598 28.427943600073245 28.362021607764145 28.27412561801868 28.208203625709576 28.16425563083684 28.142281633400476 28.05438564365501 28.010437648782275 27.96648965390954 27.87859366416407 27.834645669291337 27.74674967954587 27.702801684673137 27.636879692364037 27.570957700054933 27.505035707745833 27.439113715436733 27.373191723127633 27.329243728254898 27.285295733382164 27.263321735945798 27.219373741073063 27.153451748763963 27.04358176158213 26.933711774400294 26.88976377952756 26.82384178721846 26.757919794909355 26.691997802600255 26.58212781541842 26.51620582310932 26.45028383080022 26.274491851309286 26.186595861563816 26.120673869254716 26.07672587438198 26.07672587438198 26.098699871818347 26.07672587438198 26.07672587438198 26.07672587438198 26.07672587438198 26.054751876945616 26.054751876945616 26.054751876945616 26.054751876945616 26.032777879509247 26.032777879509247 25.988829884636512 25.944881889763778 25.900933894891047 25.878959897454678 25.856985900018312 25.813037905145578 25.813037905145578 25.791063907709212 25.791063907709212 25.769089910272843 25.769089910272843 25.769089910272843 25.747115912836477 25.72514191540011 25.72514191540011 25.72514191540011 25.681193920527377 25.681193920527377 25.65921992309101 25.615271928218274 25.593297930781908 25.571323933345543 25.549349935909174 25.527375938472808 25.50540194103644 25.527375938472808 25.50540194103644 25.50540194103644 25.50540194103644 25.50540194103644 25.50540194103644 25.527375938472808 25.527375938472808 25.50540194103644 25.50540194103644 25.50540194103644 25.50540194103644 25.50540194103644 25.50540194103644 25.483427943600073 25.483427943600073 25.483427943600073 25.461453946163708 25.461453946163708 25.461453946163708 25.461453946163708 25.461453946163708 25.461453946163708 25.43947994872734 25.43947994872734 25.43947994872734 25.417505951290973 25.417505951290973 25.395531953854604 25.395531953854604 25.395531953854604 25.37355795641824 25.37355795641824 25.395531953854604 25.395531953854604 25.37355795641824 25.37355795641824 25.395531953854604 25.395531953854604 25.395531953854604 25.395531953854604 25.395531953854604 25.37355795641824 25.395531953854604 25.37355795641824 25.395531953854604 25.37355795641824 25.395531953854604 25.395531953854604 25.395531953854604 25.395531953854604 25.395531953854604 25.395531953854604 25.395531953854604 25.395531953854604 25.395531953854604 25.395531953854604 25.395531953854604 25.395531953854604 25.395531953854604 25.395531953854604 25.395531953854604 25.395531953854604 25.37355795641824 25.37355795641824 25.37355795641824 25.35158395898187 25.35158395898187 25.329609961545504 25.329609961545504 25.329609961545504 25.329609961545504 25.329609961545504 25.329609961545504 25.30763596410914 25.30763596410914 25.30763596410914 25.30763596410914 25.30763596410914 25.28566196667277 25.28566196667277 25.28566196667277 25.28566196667277 25.28566196667277 25.28566196667277 25.30763596410914 25.28566196667277 25.28566196667277 25.28566196667277 25.28566196667277 25.28566196667277 25.28566196667277 25.263687969236404 25.263687969236404 25.263687969236404 25.263687969236404 25.263687969236404 25.263687969236404 25.263687969236404 25.263687969236404 25.241713971800035 25.263687969236404 25.241713971800035 25.241713971800035 25.241713971800035 25.241713971800035 25.241713971800035 25.21973997436367 25.241713971800035 25.241713971800035 25.21973997436367 25.241713971800035 25.241713971800035 25.241713971800035 25.241713971800035 25.21973997436367 25.21973997436367 25.241713971800035 25.21973997436367 25.241713971800035 25.241713971800035 25.21973997436367 25.21973997436367 25.21973997436367 25.21973997436367 25.21973997436367 25.21973997436367 25.21973997436367 25.21973997436367 25.21973997436367 25.21973997436367 25.21973997436367 25.21973997436367 25.21973997436367 25.21973997436367 25.21973997436367 25.21973997436367 25.197765976927304 25.21973997436367 25.21973997436367 25.197765976927304 25.21973997436367 25.21973997436367 25.21973997436367 25.21973997436367 25.197765976927304 25.21973997436367 25.197765976927304 25.197765976927304 25.197765976927304 25.197765976927304 25.197765976927304 25.197765976927304 25.197765976927304 25.197765976927304 25.197765976927304 25.197765976927304 25.197765976927304 25.197765976927304 25.197765976927304 25.197765976927304 25.197765976927304 25.197765976927304 25.175791979490935 25.197765976927304 25.197765976927304 25.197765976927304 25.197765976927304 25.197765976927304 25.175791979490935 25.197765976927304 25.197765976927304 25.197765976927304 25.197765976927304 25.197765976927304 25.197765976927304 25.197765976927304 25.197765976927304 25.197765976927304 25.197765976927304 25.197765976927304 25.197765976927304 25.197765976927304 25.197765976927304 25.197765976927304 25.21973997436367 25.21973997436367 25.21973997436367 25.241713971800035 25.241713971800035 25.241713971800035 25.241713971800035 25.263687969236404 25.28566196667277 25.30763596410914 25.329609961545504 25.35158395898187 25.37355795641824 25.417505951290973 25.483427943600073 25.527375938472808 25.615271928218274 25.703167917963743 25.791063907709212 25.856985900018312 25.966855887200147 26.032777879509247 26.098699871818347 26.14264786669108 26.23054385643655 26.318439846182017 26.45028383080022 26.560153817982055 26.67002380516389 26.80186778978209 26.95568577183666 27.241347738509432 27.768723676982237 27.922541659036806 28.362021607764145 28.75755356161875 29.240981505218826 29.76835744369163 30.36165537447354 30.86705731550998 31.50430324116462 31.855887200146494 32.14154916681926 32.4491851309284 32.75682109503754 33.262223036073976 33.591832997619484 34.075260941219554 34.47079289507416 34.82237685405603 35.32777879509247 35.89910272843802 36.426478666910825 36.953854605383626 37.34938655923823 37.89873649514741 38.47006042849295 38.84361838491119 39.305072331074896 39.656656290056766 40.162058231093205 40.62351217725691 40.97509613623878 41.59036806445706 41.91997802600257 42.18366599523897 42.57919794909357 42.95275590551181 43.238417872184584 43.699871818348285 43.98553378502106 44.40303973631203 44.7546236952939 45.10620765427578 45.67753158762132 46.00714154916682 46.64438747482146 46.93004944149423 47.2816334004761 47.76506134407617 48.09467130562168 48.60007324665812 49.08350119025819 49.479033144112805 50.006409082585606 50.599707013367514 51.083134956967584 51.69840688518586 52.37960080571324 52.863028749313315 53.52224867240432 53.98370261856803 55.60977842885919 56.09320637245926 56.620582310932065 57.27980223402307 57.87310016480498 58.79600805713239 59.740889946896175 60.378135872550814 61.34499175975096 62.28987364951474 62.94909357260575 63.80607947262406 64.59714338033328 65.34425929316976 66.22321919062443 66.94836110602454 67.82732100347921 68.68430690349753 69.6951107855704 70.48617469327962 71.05749862662516 71.71671854971618 72.44186046511629 72.9692364035891 73.93609229078925 74.50741622413477 74.94689617286213 75.51822010620765 75.957700054935 76.37520600622597 76.96850393700788 77.53982787035342 78.11115180369896 78.6824757370445 79.09998168833548 79.64933162424464 80.70408350119027 80.98974546786303 81.47317341146311 81.91265336019043 82.35213330891779 82.92345724226331 83.6046511627907 84.21992309100898 84.68137703717268 85.38454495513642 85.71415491668193 86.10968687053654 86.83482878593665 87.18641274491851 87.64786669108221 88.13129463468229 88.41695660135505 88.76854056033693 89.29591649880975 89.47170847830067 89.80131843984618 89.88921442959166 90.15290239882806 90.39461637062809 90.5923823475554 90.87804431422816 90.98791430141 91.09778428859184 91.20765427577368 91.29555026551914 91.40542025270096 91.4493682475737 91.4493682475737 91.4493682475737 91.4493682475737 91.4493682475737 91.42739425013734 91.42739425013734 91.07581029115548 90.50448635780992 90.328694378319 89.82329243728255 89.25196850393701 88.70261856802784 88.21919062442777 87.77971067570043 87.16443874748215 86.57114081670024 86.10968687053654 85.49441494231826 84.85716901666362 84.37374107306354 83.69254715253618 83.18714521149973 82.39608130379051 81.67093938839041 80.24262955502655 79.671305621681 79.09998168833548 78.4847097601172 77.69364585240798 77.12232191906244 76.04559604468047 75.51822010620765 74.94689617286213 74.13385826771653 73.21095037538913 72.55173045229812 71.82658853689802 71.18934261124336 70.26643471891595 69.01391686504303 68.33272294451567 67.69547701886101 66.99230910089727 65.93755722395166 64.46529939571508 64.09174143929684 62.86119758286028 62.00421168284197 61.38893975462369 60.597875846914484 60.04852591100531 59.27943600073247 58.53232008789599 57.96099615455045 57.235854239150335 56.247024354513826 55.983336385277426 55.01648049807727 54.51107855704083 53.91778062625893 53.08276872367698 52.797106757004215 52.37960080571324 51.85222486724043 51.52261490569492 51.06116095953122 50.73155099798572 50.445889031312944 50.094305072331075 49.852591100531036 49.479033144112805 49.2153451748764 49.03955319538546 48.77586522614906 48.57809924922175 48.33638527742171 47.98480131843985 47.80900933894891 47.58926936458524 47.36952939022157 46.93004944149423 46.688335469694195 46.468595495330526 46.20490752609412 45.83134956967588 45.54568760300312 44.93041567478484 44.57883171580296 44.22724775682109 43.52407983885735 43.01867789782091 42.60117194652994 41.89800402856619 41.30470609778429 40.86522614905695 40.35982420802051 39.7665262772386 39.41494231825673 38.90954037722029 38.55795641823842 38.09650247207471 37.81084050540194 37.393334554110965 37.08569859000183 36.668192638710856 36.272660684856255 36.00897271561985 35.63541475920161 35.30580479765611 35.06409082585607 34.7125068668742 34.42684490020143 34.11920893609229 33.74565097967405 33.39406702069218 32.88866507965574 32.75682109503754 32.47115912836477 31.94378318989196 31.68009522065556 31.328511261673686 30.976927302691813 30.735213330891778 30.383629371909905 30.032045412928035 29.790331441127996 29.460721479582496 29.153085515473357 28.91137154367332 28.62570957700055 28.427943600073245 28.38399560520051 28.31807361289141 28.27412561801868 28.230177623145945 28.18622962827321 28.12030763596411 28.09833363852774 28.076359641091376 28.03241164621864 28.010437648782275 27.988463651345906 27.90056766160044 27.87859366416407 27.856619666727706 27.81267167185497 27.768723676982237 27.724775682109502 27.658853689800402 27.614905694927668 27.570957700054933 27.505035707745833 27.461087712873102 27.439113715436733 27.373191723127633 27.329243728254898 27.285295733382164 27.241347738509432 27.17542574620033 27.10950375389123 27.065555759018494 27.04358176158213 27.02160776414576 26.999633766709394 26.97765976927303 26.95568577183666 26.933711774400294 26.911737776963925 26.911737776963925 26.88976377952756 26.88976377952756 26.867789782091194 26.845815784654825 26.845815784654825 26.82384178721846 26.80186778978209 26.80186778978209 26.757919794909355 26.73594579747299 26.713971800036624 26.713971800036624 26.713971800036624 26.691997802600255 26.691997802600255 26.67002380516389 26.648049807727524 26.626075810291155 26.60410181285479 26.60410181285479 26.560153817982055 26.538179820545686 26.494231825672955 26.45028383080022 26.38436183849112 26.38436183849112 26.340413843618386 26.318439846182017 26.274491851309286 26.23054385643655 26.186595861563816 26.14264786669108 26.120673869254716 26.098699871818347 26.098699871818347 26.07672587438198 26.054751876945616 26.032777879509247 25.988829884636512 25.966855887200147 25.900933894891047 25.856985900018312 25.835011902581943 25.813037905145578 25.791063907709212 25.769089910272843 25.791063907709212 25.791063907709212 25.769089910272843 25.769089910272843 25.769089910272843 25.769089910272843 25.769089910272843 25.769089910272843 25.769089910272843 25.769089910272843 25.769089910272843 25.769089910272843 25.769089910272843 25.769089910272843 25.769089910272843 25.769089910272843 25.769089910272843 25.747115912836477 25.72514191540011 25.72514191540011 25.703167917963743 25.703167917963743 25.703167917963743 25.703167917963743 25.703167917963743 25.703167917963743 25.703167917963743 25.681193920527377 25.681193920527377 25.681193920527377 25.681193920527377 25.681193920527377 25.681193920527377 25.681193920527377 25.681193920527377 25.65921992309101 25.637245925654643 25.637245925654643 25.637245925654643 25.637245925654643 25.637245925654643 25.637245925654643 25.637245925654643 25.637245925654643 25.637245925654643 25.615271928218274 25.615271928218274 25.615271928218274 25.615271928218274 25.615271928218274 25.637245925654643 25.615271928218274 25.615271928218274 25.615271928218274 25.615271928218274 25.615271928218274 25.615271928218274 25.615271928218274 25.615271928218274 25.615271928218274 25.615271928218274 25.615271928218274 25.615271928218274 25.615271928218274 25.615271928218274 25.615271928218274 25.615271928218274 25.615271928218274 25.593297930781908 25.593297930781908 25.593297930781908 25.615271928218274 25.593297930781908 25.593297930781908 25.593297930781908 25.593297930781908 25.593297930781908 25.593297930781908 25.593297930781908 25.593297930781908 25.593297930781908 25.593297930781908 25.593297930781908 25.593297930781908 25.593297930781908 25.593297930781908 25.593297930781908 25.571323933345543 25.593297930781908 25.571323933345543 25.593297930781908 25.571323933345543 25.593297930781908 25.571323933345543 25.571323933345543 25.571323933345543 25.571323933345543 25.571323933345543 25.593297930781908 25.593297930781908 25.571323933345543 25.593297930781908 25.593297930781908 25.593297930781908 25.593297930781908 25.593297930781908 25.593297930781908 25.593297930781908 25.593297930781908 25.593297930781908 25.593297930781908 25.593297930781908 25.593297930781908 25.593297930781908 25.593297930781908 25.593297930781908 25.615271928218274 25.615271928218274 25.615271928218274 25.615271928218274 25.615271928218274 25.615271928218274 25.615271928218274 25.615271928218274 25.615271928218274 25.615271928218274 25.615271928218274 25.615271928218274 25.637245925654643 25.637245925654643 25.637245925654643 25.637245925654643 25.637245925654643 25.65921992309101 25.681193920527377 25.703167917963743 25.769089910272843 25.856985900018312 25.944881889763778 26.07672587438198 26.186595861563816 26.45028383080022 26.691997802600255 26.88976377952756 27.10950375389123 27.483061710309467 27.768723676982237 28.208203625709576 28.669657571873284 28.955319538546053 29.175059512909723 29.328877494964292 29.526643471891596 29.9880974180553 30.36165537447354 31.108771287310017 31.50430324116462 32.0536531770738 32.646951107855706 33.064457059146676 33.92144295916499 34.47079289507416 34.95422083867423 35.48159677714705 35.986998718183486 36.909906610510895 37.45925654642007 38.09650247207471 38.75572239516572 39.34902032594763 39.788500274674966 40.381798205456874 40.601538179820544 41.41457608496612 42.0298480131844 42.40340596960264 42.996703900384546 43.48013184398462 43.85368980040286 44.73264969785754 45.23805163889398 45.80937557223952 46.468595495330526 46.93004944149423 47.523347372276135 47.98480131843985 48.53415125434902 49.14942318256729 49.588903131294636 50.336019044131106 51.10510895440396 51.83025086980406 52.906976744186046 53.588170664713424 54.64292254165903 55.39003845449551 56.15912836476836 57.14795824940487 58.44442409815052 58.97180003662333 59.784837941768906 60.312213880241714 60.88353781358725 61.93828969053287 62.487639626442046 63.696209485442225 64.61911737776964 65.0366233290606 65.95953122138803 66.6407251419154 67.82732100347921 68.81615088811573 69.58524079838858 70.68394067020692 71.69474455227981 72.50778245742538 73.34279436000733 74.24372825489837 75.25453213697125 75.45229811389855 75.97967405237137 76.92455594213514 77.58377586522616 78.26496978575352 78.6824757370445 79.12195568577184 79.56143563449919 80.57223951657207 81.12158945248123 81.56106940120857 82.06647134224502 82.54989928584509 83.2091192089361 83.69254715253618 84.41768906793627 85.31862296282733 85.538362937191 86.21955685771837 86.81285478850029 87.42812671671855 87.82365867057317 88.13129463468229 88.54880058597325 88.94433253982787 89.14209851675518 89.51565647317341 89.75737044497345 89.99908441677348 90.28474638344626 90.328694378319 90.4605383629372 90.61435634499176 90.68027833730086 90.7242263321736 90.74620032960996 90.74620032960996 90.74620032960996 90.70225233473722 90.5923823475554 90.37264237319172 90.13092840139169 89.73539644753708 89.40578648599158 88.8564365500824 88.41695660135505 88.08734663980957 87.58194469877311 87.23036073979125 86.90075077824574 86.19758286028201 85.8020509064274 85.29664896539094 84.63742904229994 84.17597509613624 83.49478117560886 82.90148324482695 82.17634132942685 81.47317341146311 80.90184947811755 80.04486357809925 79.18787767808094 78.26496978575352 77.36403589086248 76.77073796008057 76.0895440395532 75.07874015748033 74.0239882805347 73.27687236769822 71.95843252151622 71.0355246291888 70.13459073429775 69.431422816334 68.7062809009339 67.71745101629739 66.79454312396996 65.89360922907892 64.33345541109688 64.00384544955136 63.366599523896724 62.57553561618751 61.96026368796924 61.05932979307819 60.444057864859914 59.27943600073247 58.40047610327779 57.78520417505951 56.7304522981139 56.09320637245926 55.56583043398645 54.99450650064091 54.42318256729537 53.829884636513455 52.841054751876946 51.91814685954954 51.43471891594946 50.81944698773118 50.226149056949275 49.01757919794909 48.31441127998535 47.523347372276135 46.64438747482146 45.985167551730456 45.0842336568394 44.60080571323933 43.787767808093754 42.24958798754807 41.81010803882073 41.39260208752975 40.88720014649331 40.403772202893244 39.942318256729536 39.458890313129466 38.84361838491119 38.18439846182018 37.81084050540194 37.063724592565464 36.536348654092656 35.986998718183486 35.63541475920161 35.28383080021974 34.9761948361106 34.18513092840139 34.075260941219554 33.701702984801315 33.32814502838308 33.086431056583045 32.778795092473906 32.53708112067387 32.22944515656473 31.96575718732833 31.74601721296466 31.46035524629189 31.042849295000916 30.801135323200878 30.339681377037174 30.032045412928035 29.746383446255265 29.438747482146127 29.153085515473357 28.69163156930965 28.38399560520051 28.25215162058231 28.18622962827321 28.09833363852774 28.010437648782275 27.87859366416407 27.790697674418606 27.724775682109502 27.702801684673137 27.636879692364037 27.592931697491302 27.527009705182202 27.505035707745833 27.461087712873102 27.439113715436733 27.417139718000367 27.395165720564 27.373191723127633 27.351217725691264 27.329243728254898 27.285295733382164 27.241347738509432 27.197399743636698 27.17542574620033 27.10950375389123 27.04358176158213 26.97765976927303 26.933711774400294 26.867789782091194 26.80186778978209 26.713971800036624 26.67002380516389 26.626075810291155 26.58212781541842 26.560153817982055 26.538179820545686 26.51620582310932 26.494231825672955 26.45028383080022 26.406335835927486 26.38436183849112 26.36238784105475 26.29646584874565 26.252517853872916 26.208569859000182 26.208569859000182 26.186595861563816 26.164621864127447 26.14264786669108 26.14264786669108 26.14264786669108 26.14264786669108 26.120673869254716 26.120673869254716 26.120673869254716 26.098699871818347 26.098699871818347 26.098699871818347 26.07672587438198 26.054751876945616 26.032777879509247 26.01080388207288 26.01080388207288 25.966855887200147 25.966855887200147 25.922907892327412 25.900933894891047 25.878959897454678 25.878959897454678 25.878959897454678 25.878959897454678 25.856985900018312 25.878959897454678 25.878959897454678 25.856985900018312 25.878959897454678 25.856985900018312 25.856985900018312 25.856985900018312 25.856985900018312 25.856985900018312 25.856985900018312 25.856985900018312 25.856985900018312 25.856985900018312 25.856985900018312 25.856985900018312 25.856985900018312 25.856985900018312 25.856985900018312 25.856985900018312 25.856985900018312 25.856985900018312 25.856985900018312 25.856985900018312 25.835011902581943 25.856985900018312 25.856985900018312 25.856985900018312 25.856985900018312 25.856985900018312 25.856985900018312 25.856985900018312 25.856985900018312 25.835011902581943 25.856985900018312 25.856985900018312 25.856985900018312 25.856985900018312 25.856985900018312 25.856985900018312 25.856985900018312 25.856985900018312 25.856985900018312 25.856985900018312 25.856985900018312 25.856985900018312 25.856985900018312 25.856985900018312 25.856985900018312 25.856985900018312 25.856985900018312 25.856985900018312 25.856985900018312 25.856985900018312 25.856985900018312 25.856985900018312 25.856985900018312 25.878959897454678 25.856985900018312 25.856985900018312 25.856985900018312 25.856985900018312 25.856985900018312 25.856985900018312 25.856985900018312 25.856985900018312 25.856985900018312 25.856985900018312 25.856985900018312 25.856985900018312 25.856985900018312 25.856985900018312 25.856985900018312 25.856985900018312 25.856985900018312 25.856985900018312 25.856985900018312 25.856985900018312 25.856985900018312 25.856985900018312 25.856985900018312 25.856985900018312 25.856985900018312 25.856985900018312 25.856985900018312 25.856985900018312 25.856985900018312 25.856985900018312 25.856985900018312 25.856985900018312 25.856985900018312 25.856985900018312 25.856985900018312 25.856985900018312 25.856985900018312 25.856985900018312 25.856985900018312 25.856985900018312 25.856985900018312 25.856985900018312 25.856985900018312 25.856985900018312 25.856985900018312 25.856985900018312 25.856985900018312 25.856985900018312 25.856985900018312 25.856985900018312 25.856985900018312 25.856985900018312 25.856985900018312 25.856985900018312 25.856985900018312 25.856985900018312 25.856985900018312 25.856985900018312 25.856985900018312 25.856985900018312 25.856985900018312 25.856985900018312 25.856985900018312 25.856985900018312 25.856985900018312 25.856985900018312 25.856985900018312 25.856985900018312 25.856985900018312 25.856985900018312 25.856985900018312 25.856985900018312 25.856985900018312 25.856985900018312 25.856985900018312 25.856985900018312 25.856985900018312 25.856985900018312 25.856985900018312 25.856985900018312 25.856985900018312 25.856985900018312 25.856985900018312 25.856985900018312 25.835011902581943 25.835011902581943 25.835011902581943 25.856985900018312 25.835011902581943 25.856985900018312 25.856985900018312 25.835011902581943 25.856985900018312 25.856985900018312 25.856985900018312 25.856985900018312 25.856985900018312 25.835011902581943 25.856985900018312 25.835011902581943 25.856985900018312 25.856985900018312 25.856985900018312 25.856985900018312 25.856985900018312 25.856985900018312 25.856985900018312 25.856985900018312 25.856985900018312 25.856985900018312 25.856985900018312 25.856985900018312 25.856985900018312 25.856985900018312 25.878959897454678 25.878959897454678 25.878959897454678 25.878959897454678 25.878959897454678 25.878959897454678 25.878959897454678 25.878959897454678 25.878959897454678 25.900933894891047 25.922907892327412 25.922907892327412 25.944881889763778 25.988829884636512 26.054751876945616 26.098699871818347 26.164621864127447 26.186595861563816 26.23054385643655 26.252517853872916 26.29646584874565 26.318439846182017 26.36238784105475 26.406335835927486 26.472257828236586 26.58212781541842 26.67002380516389 26.757919794909355 26.97765976927303 27.087529756454863 27.263321735945798 27.614905694927668 28.010437648782275 28.31807361289141 28.71360556674602 29.262955502655192 29.592565464200696 29.900201428309835 30.317707379600805 30.647317341146312 31.042849295000916 31.50430324116462 31.833913202710125 32.47115912836477 32.88866507965574 33.196301043764876 33.635780992492215 34.009338948910454 34.58066288225599 34.9761948361106 35.76725874381981 36.360556674601725 36.778062625892694 37.3713605566746 37.7668925105292 38.36019044131112 38.93151437465666 39.41494231825673 39.876396264420436 40.49166819263871 40.86522614905695 41.59036806445706 41.81010803882073 42.33748397729354 42.930781908075446 43.348287859366415 43.91961179271196 44.46896172862113 45.32594762863944 46.02911554660319 46.292803515839594 46.73228346456693 47.523347372276135 48.09467130562168 49.2153451748764 50.028383080021975 50.643655008240245 51.56656290056766 52.18183482878594 53.03882072880425 53.91778062625893 54.57700054934993 55.80754440578649 56.312946346822926 56.840322285295734 57.36769822376854 57.93902215711408 58.77403405969603 59.76286394433254 60.509979857169014 61.23512177256912 62.15802966489654 62.86119758286028 64.26753341878776 64.86083134956968 65.54202527009704 66.61875114447903 67.40981505218824 68.42061893426111 70.17853872917048 70.70591466764328 71.58487456509798 72.17817249587988 72.79344442409815 74.26570225233473 74.55136421900751 75.29848013184399 76.15546603186229 76.90258194469877 77.36403589086248 77.86943783189892 78.6824757370445 79.69327961911739 80.08881157297199 80.68210950375389 81.36330342428127 81.84673136788135 82.57187328328145 83.3409631935543 83.8683391320271 84.21992309100898 84.5275590551181 85.2087529756455 85.58231093206373 85.8679728987365 86.17560886284564 86.41732283464567 86.63706280900934 87.05456876030031 87.27430873466398 87.53799670390038 87.77971067570043 87.93352865775499 88.08734663980957 88.17524262955503 88.28511261673685 88.30708661417323 88.32906061160959 88.32906061160959 88.30708661417323 88.24116462186413 88.06537264237319 87.86760666544589 87.49404870902765 87.25233473722761 86.98864676799121 86.48324482695477 86.19758286028201 85.75810291155466 85.27467496795458 84.92309100897272 84.3957150704999 83.7364951474089 83.29701519868156 82.61582127815419 82.15436733199049 81.40725141915401 80.17670756271745 79.51748763962644 78.99011170115364 78.4187877678081 77.91338582677164 77.12232191906244 76.52902398828054 75.27650613440761 74.06793627540745 73.27687236769822 72.55173045229812 71.91448452664348 71.21131660867974 70.13459073429775 69.45339681377037 68.42061893426111 67.34389305987915 66.5748031496063 65.56399926753342 64.7729353598242 63.80607947262406 62.971067570042116 62.35579564182384 61.12525178538729 60.61984984435085 59.806811939205275 58.83995605200513 58.48837209302326 57.67533418787768 57.45559421351401 56.972166269913934 56.29097234938656 55.36806445705915 54.86266251602271 54.137520600622594 53.632118659586155 53.14869071598608 51.89617286211316 51.39077092107672 50.79747299029482 50.094305072331075 49.588903131294636 48.90770921076726 48.18256729536715 47.76506134407617 47.193737410730634 46.776231459439664 46.16095953122139 45.58963559787585 45.19410364402124 44.38106573887566 43.502105841420985 42.97472990294818 42.55722395165721 42.18366599523897 41.74418604651163 41.32668009522065 40.82127815418421 40.33785021058414 39.986266251602274 39.744552279802235 39.370994323384 39.15125434902033 38.88756637978392 38.51400842336568 38.40413843618385 38.11847646951108 37.89873649514741 37.52517853872917 37.21754257462003 36.975828602819995 36.624244643838125 36.03094671305622 35.74528474638345 35.48159677714705 35.15198681560154 34.8443508514924 34.42684490020143 34.075260941219554 33.438015015564915 32.97656106940121 32.778795092473906 32.20747115912837 31.81193920527376 31.59219923091009 31.28456326680095 31.064823292437282 30.735213330891778 30.58139534883721 30.339681377037174 30.14191540010987 29.966123420618935 29.63651345907343 29.306903497527927 28.91137154367332 28.71360556674602 28.581761582127815 28.47189159494598 28.362021607764145 28.27412561801868 28.18622962827321 28.12030763596411 28.05438564365501 27.96648965390954 27.922541659036806 27.87859366416407 27.834645669291337 27.768723676982237 27.702801684673137 27.636879692364037 27.614905694927668 27.548983702618568 27.483061710309467 27.395165720564 27.307269730818533 27.241347738509432 27.153451748763963 27.065555759018494 26.97765976927303 26.867789782091194 26.757919794909355 26.67002380516389 26.58212781541842 26.51620582310932 26.472257828236586 26.42830983336385 26.38436183849112 26.340413843618386 26.29646584874565 26.252517853872916 26.208569859000182 26.164621864127447 26.14264786669108 26.07672587438198 26.054751876945616 26.01080388207288 25.988829884636512 25.944881889763778 25.878959897454678 25.813037905145578 25.747115912836477 25.72514191540011 25.681193920527377 25.65921992309101 25.637245925654643 25.615271928218274 25.593297930781908 25.593297930781908 25.593297930781908 25.571323933345543 25.571323933345543 25.571323933345543 25.549349935909174 25.549349935909174 25.549349935909174 25.549349935909174 25.50540194103644 25.50540194103644 25.483427943600073 25.483427943600073 25.461453946163708 25.43947994872734 25.43947994872734 25.417505951290973 25.417505951290973 25.417505951290973 25.417505951290973 25.417505951290973 25.395531953854604 25.395531953854604 25.395531953854604 25.395531953854604 25.37355795641824 25.37355795641824 25.37355795641824 25.37355795641824 25.37355795641824 25.37355795641824 25.35158395898187 25.37355795641824 25.35158395898187 25.35158395898187 25.37355795641824 25.37355795641824 25.35158395898187 25.35158395898187 25.329609961545504 25.329609961545504 25.329609961545504 25.329609961545504 25.329609961545504 25.30763596410914 25.329609961545504 25.329609961545504 