29.0 29.0 29.0 29.0 29.0 29.0 28.969236403589086 29.0 28.969236403589086 28.969236403589086 28.969236403589086 29.0 29.0 29.0 29.0 29.0 29.0 29.0 28.969236403589086 28.969236403589086 28.969236403589086 29.0 28.969236403589086 29.0 29.0 29.0 28.969236403589086 28.969236403589086 29.0 29.0 28.969236403589086 28.969236403589086 29.0 29.0 29.0 29.0 28.969236403589086 29.0 28.969236403589086 28.969236403589086 28.969236403589086 29.0 29.0 28.969236403589086 29.0 29.0 29.0 29.0 29.0 28.969236403589086 29.0 28.969236403589086 29.0 28.969236403589086 29.0 29.0 28.969236403589086 28.969236403589086 29.0 28.969236403589086 29.0 28.969236403589086 29.0 28.969236403589086 28.969236403589086 29.0 29.0 29.0 28.969236403589086 29.0 29.0 28.969236403589086 28.969236403589086 29.0 29.0 28.969236403589086 29.0 29.0 28.969236403589086 29.0 29.0 29.0 29.0 28.969236403589086 29.0 29.0 29.0 28.969236403589086 29.0 29.0 29.0 29.0 29.0 29.0 29.0 29.0 29.0 29.0 28.969236403589086 29.0 29.0 29.0 29.0 28.969236403589086 29.0 29.0 29.0 29.0 29.0 29.0 29.0 29.0 29.0 29.0 29.0 29.0 29.0 29.0 29.0 29.0 29.0 29.0 29.0 29.0 29.0 29.0 29.0 29.0 29.0 29.0 29.0 29.0 28.969236403589086 28.969236403589086 29.0 28.969236403589086 28.969236403589086 29.0 29.0 29.0 29.0 29.0 29.0 28.969236403589086 28.969236403589086 29.0 28.969236403589086 28.969236403589086 29.0 29.0 29.0 29.0 29.0 29.0 28.969236403589086 28.969236403589086 29.0 29.0 29.0 29.0 28.969236403589086 29.0 29.0 28.969236403589086 29.0 29.0 29.0 29.0 29.0 29.0 29.0 29.0 29.0 29.0 29.0 29.0 29.0 29.0 29.0 29.0 29.0 29.0 29.0 29.0 29.0 28.969236403589086 29.0 29.0 29.0 28.969236403589086 29.0 29.0 29.0 29.0 28.969236403589086 28.969236403589086 29.0 29.0 28.969236403589086 28.969236403589086 29.0 29.0 28.969236403589086 29.0 28.969236403589086 29.0 29.0 29.0 29.0 28.969236403589086 29.0 29.0 29.0 29.0 29.0 28.969236403589086 29.0 29.0 28.969236403589086 29.0 28.969236403589086 29.0 29.0 29.0 28.969236403589086 29.0 29.0 29.0 29.0 29.0 29.0 29.0 29.0 29.0 29.0 29.0 29.0 29.0 29.0 29.0 29.0 29.0 29.030763596410914 29.061527192821828 29.09229078923274 29.09229078923274 29.09229078923274 29.123054385643655 29.15381798205457 29.15381798205457 29.15381798205457 29.184581578465483 29.184581578465483 29.215345174876397 29.215345174876397 29.24610877128731 29.276872367698225 29.338399560520052 29.369163156930966 29.430690349752794 29.49221754257462 29.553744735396446 29.615271928218274 29.707562717451015 29.799853506683757 29.8921442959165 30.015198681560154 30.13825306720381 30.23054385643655 30.38436183849112 30.507416224134772 30.630470609778428 30.753524995422083 30.938106573887566 31.091924555942136 31.27650613440762 31.461087712873102 31.64566929133858 31.79948727339315 31.984068851858634 32.1378868339132 32.3532320087896 32.568577183665994 32.84544955136422 33.060794726240616 33.2453763047061 33.49148507599341 33.829884636513455 34.16828419703351 34.44515656473173 34.75279252884087 35.029664896539096 35.337300860648234 35.61417322834646 35.9218091924556 36.1679179637429 36.47555392785204 36.752426295550265 37.060062259659404 37.36769822376854 37.67533418787768 38.013733748397726 38.35213330891778 38.69053286943783 38.99816883354697 39.33656839406702 39.70573155099798 40.01336751510712 40.413294268449 40.81322102179088 41.12085698590002 41.490020142830986 41.73612891411829 42.16681926387108 42.62827321003479 42.966672770554844 43.48965390954038 43.981871452114994 44.474088994689616 44.96630653726424 45.48928767624977 46.0122688152353 46.504486357809924 46.965940303973625 47.45815784654825 47.95037538912287 48.411829335286576 48.873283281450284 49.334737227613985 49.73466398095587 50.16535433070866 50.596044680461446 51.02673503021424 51.42666178355613 51.79582494048709 52.13422450100714 52.503387657938106 52.87255081486907 53.21095037538912 53.610877128731005 53.980040285661964 54.379967039003844 54.77989379234572 55.149056949276684 55.51822010620765 55.85661966672771 56.225782823658676 56.56418238417872 56.93334554110969 57.27174510162973 57.6409082585607 58.04083501190259 58.37923457242263 58.68687053653177 59.025270097051816 59.363669657571876 59.67130562168101 60.00970518220106 60.3173411463102 60.594213514008416 60.87108588170665 61.11719465299395 61.39406702069218 61.609412195568574 61.855520966855885 62.07086614173228 62.28621131660868 62.47079289507416 62.68613806995056 62.83995605200513 63.024537630470604 63.17835561252517 63.36293719099066 63.48599157663431 63.60904596227797 63.79362754074345 63.94744552279802 64.07049990844168 64.22431789049625 64.31660867972897 64.43966306537264 64.53195385460538 64.65500824024903 64.77806262589269 64.90111701153634 64.99340780076909 65.11646218641275 65.20875297564548 65.30104376487822 65.42409815052187 65.54715253616553 65.63944332539828 65.79326130745284 65.9163156930965 66.03937007874015 66.1624244643838 66.25471525361655 66.37776963926021 66.50082402490386 66.56235121772569 66.68540560336935 66.74693279619117 66.83922358542392 66.90075077824574 66.93151437465664 66.99304156747849 67.05456876030031 67.08533235671122 67.11609595312214 67.11609595312214 67.14685954953305 67.14685954953305 67.14685954953305 67.17762314594395 67.17762314594395 67.20838674235489 67.20838674235489 67.2699139351767 67.30067753158761 67.33144112799853 67.39296832082036 67.48525911005311 67.57754989928584 67.7006042849295 67.85442226698407 68.00824024903864 68.13129463468229 68.25434902032595 68.3466398095587 68.43893059879143 68.50045779161326 68.53122138802416 68.53122138802416 68.53122138802416 68.53122138802416 68.53122138802416 68.53122138802416 68.53122138802416 68.53122138802416 68.53122138802416 68.53122138802416 68.53122138802416 68.50045779161326 68.50045779161326 68.50045779161326 68.50045779161326 68.46969419520234 68.50045779161326 68.46969419520234 68.46969419520234 68.43893059879143 68.43893059879143 68.43893059879143 68.40816700238051 68.3774034059696 68.3774034059696 68.3466398095587 68.31587621314777 68.28511261673685 68.28511261673685 68.28511261673685 68.25434902032595 68.28511261673685 68.25434902032595 68.25434902032595 68.25434902032595 68.25434902032595 68.25434902032595 68.25434902032595 68.25434902032595 68.25434902032595 68.25434902032595 68.22358542391504 68.22358542391504 68.22358542391504 68.22358542391504 68.22358542391504 68.22358542391504 68.22358542391504 68.19282182750412 68.1620582310932 68.13129463468229 68.10053103827138 68.10053103827138 68.06976744186046 68.03900384544954 68.00824024903864 68.00824024903864 67.97747665262773 67.91594945980589 67.88518586339498 67.85442226698407 67.82365867057315 67.79289507416223 67.76213147775132 67.76213147775132 67.73136788134042 67.73136788134042 67.7006042849295 67.66984068851858 67.63907709210767 67.63907709210767 67.60831349569676 67.57754989928584 67.54678630287492 67.51602270646401 67.51602270646401 67.48525911005311 67.45449551364219 67.45449551364219 67.42373191723127 67.42373191723127 67.39296832082036 67.39296832082036 67.36220472440945 67.33144112799853 67.33144112799853 67.30067753158761 67.30067753158761 67.2699139351767 67.2699139351767 67.2699139351767 67.2391503387658 67.2699139351767 67.2391503387658 67.2391503387658 67.2391503387658 67.2391503387658 67.2391503387658 67.2391503387658 67.2391503387658 67.2391503387658 67.2391503387658 67.2391503387658 67.2391503387658 67.20838674235489 67.20838674235489 67.17762314594395 67.14685954953305 67.11609595312214 67.11609595312214 67.08533235671122 67.08533235671122 67.08533235671122 67.08533235671122 67.08533235671122 67.08533235671122 67.08533235671122 67.08533235671122 67.08533235671122 67.08533235671122 67.08533235671122 67.08533235671122 67.08533235671122 67.08533235671122 67.08533235671122 67.08533235671122 67.08533235671122 67.08533235671122 67.08533235671122 67.05456876030031 67.05456876030031 67.02380516388939 66.99304156747849 66.99304156747849 66.96227797106756 66.96227797106756 66.93151437465664 66.93151437465664 66.90075077824574 66.86998718183483 66.86998718183483 66.86998718183483 66.83922358542392 66.83922358542392 66.83922358542392 66.83922358542392 66.83922358542392 66.80845998901299 66.80845998901299 66.80845998901299 66.77769639260208 66.74693279619117 66.74693279619117 66.71616919978025 66.68540560336935 66.65464200695843 66.62387841054752 66.56235121772569 66.53158762131477 66.50082402490386 66.47006042849296 66.43929683208202 66.40853323567111 66.37776963926021 66.3470060428493 66.28547885002746 66.25471525361655 66.22395165720565 66.1624244643838 66.1316608679729 66.10089727156199 66.10089727156199 66.10089727156199 66.10089727156199 66.10089727156199 66.10089727156199 66.10089727156199 66.10089727156199 66.10089727156199 66.10089727156199 66.07013367515107 66.07013367515107 66.03937007874015 66.00860648232924 65.94707928950741 65.9163156930965 65.88555209668559 65.88555209668559 65.85478850027468 65.85478850027468 65.85478850027468 65.85478850027468 65.85478850027468 65.85478850027468 65.85478850027468 65.85478850027468 65.82402490386376 65.79326130745284 65.76249771104193 65.76249771104193 65.73173411463102 65.73173411463102 65.7009705182201 65.7009705182201 65.7009705182201 65.7009705182201 65.7009705182201 65.7009705182201 65.63944332539828 65.63944332539828 65.57791613257645 65.57791613257645 65.54715253616553 65.51638893975462 65.48562534334371 65.45486174693279 65.45486174693279 65.45486174693279 65.42409815052187 65.45486174693279 65.42409815052187 65.42409815052187 65.42409815052187 65.39333455411096 65.39333455411096 65.36257095770006 65.33180736128914 65.33180736128914 65.30104376487822 65.27028016846731 65.2395165720564 65.2395165720564 65.20875297564548 65.17798937923456 65.14722578282365 65.14722578282365 65.14722578282365 65.11646218641275 65.14722578282365 65.11646218641275 65.11646218641275 65.08569859000184 65.11646218641275 65.11646218641275 65.11646218641275 65.11646218641275 65.11646218641275 65.11646218641275 65.11646218641275 65.11646218641275 65.11646218641275 65.11646218641275 65.11646218641275 65.11646218641275 65.11646218641275 65.11646218641275 65.11646218641275 65.08569859000184 65.11646218641275 65.11646218641275 65.11646218641275 65.11646218641275 65.11646218641275 65.08569859000184 65.08569859000184 65.08569859000184 65.08569859000184 65.08569859000184 65.08569859000184 65.08569859000184 65.08569859000184 65.08569859000184 65.0549349935909 65.0549349935909 65.0549349935909 65.0549349935909 65.0549349935909 65.0549349935909 65.0549349935909 65.0549349935909 65.0549349935909 65.0549349935909 65.0549349935909 65.0549349935909 65.0549349935909 65.0549349935909 65.0549349935909 65.0549349935909 65.0549349935909 65.0549349935909 65.0549349935909 65.0549349935909 65.0549349935909 65.0549349935909 65.0549349935909 65.0549349935909 65.0549349935909 65.0549349935909 65.0549349935909 65.0549349935909 65.0549349935909 65.0549349935909 65.0549349935909 65.0549349935909 65.0549349935909 65.0549349935909 65.0549349935909 65.0549349935909 65.0549349935909 65.0549349935909 65.0549349935909 65.0549349935909 65.0549349935909 65.0549349935909 65.0549349935909 65.0549349935909 65.0549349935909 65.0549349935909 65.02417139718 65.02417139718 64.99340780076909 64.99340780076909 64.99340780076909 64.99340780076909 64.99340780076909 64.96264420435817 64.93188060794725 64.93188060794725 64.93188060794725 64.90111701153634 64.90111701153634 64.90111701153634 64.90111701153634 64.90111701153634 64.90111701153634 64.90111701153634 64.90111701153634 64.90111701153634 64.90111701153634 64.90111701153634 64.90111701153634 64.90111701153634 64.90111701153634 64.87035341512544 64.83958981871451 64.80882622230361 64.77806262589269 64.77806262589269 64.77806262589269 64.74729902948178 64.74729902948178 64.74729902948178 64.71653543307087 64.71653543307087 64.74729902948178 64.74729902948178 64.71653543307087 64.74729902948178 64.74729902948178 64.71653543307087 64.74729902948178 64.74729902948178 64.74729902948178 64.71653543307087 64.74729902948178 64.71653543307087 64.74729902948178 64.74729902948178 64.74729902948178 64.74729902948178 64.74729902948178 64.74729902948178 64.74729902948178 64.74729902948178 64.74729902948178 64.74729902948178 64.74729902948178 64.74729902948178 64.74729902948178 64.74729902948178 64.74729902948178 64.74729902948178 64.74729902948178 64.74729902948178 64.74729902948178 64.74729902948178 64.74729902948178 64.74729902948178 64.74729902948178 64.74729902948178 64.74729902948178 64.74729902948178 64.74729902948178 64.74729902948178 64.74729902948178 64.74729902948178 64.74729902948178 64.74729902948178 64.74729902948178 64.74729902948178 64.74729902948178 64.74729902948178 64.74729902948178 64.74729902948178 64.74729902948178 64.74729902948178 64.71653543307087 64.74729902948178 64.74729902948178 64.74729902948178 64.71653543307087 64.65500824024903 64.62424464383813 64.5627174510163 64.43966306537264 64.37813587255081 64.31660867972897 64.25508148690716 64.16279069767441 64.07049990844168 63.978209119208934 63.79362754074345 63.70133675151071 63.516755173045226 63.424464383812484 63.27064640175792 63.08606482329243 62.870719648416035 62.68613806995056 62.50155649148507 62.31697491301959 62.07086614173228 61.91704815967771 61.609412195568574 61.39406702069218 61.11719465299395 60.87108588170665 60.56344991759751 60.3173411463102 59.978941585790146 59.60977842885918 59.363669657571876 58.96374290422999 58.563816150888115 58.28694378318989 57.88701702984801 57.456326680095216 57.056399926753336 56.81029115546603 56.502655191356894 56.10272843801501 55.70280168467313 55.27211133492034 54.90294817798937 54.59531221388024 54.19538546053836 53.918513092840136 53.54934993590917 53.18018677897821 52.78026002563632 52.411096868705364 52.13422450100714 51.91887932613075 51.54971616919978 51.211316608679724 50.903680644570585 50.65757187328328 50.31917231276323 50.10382713788683 49.79619117377769 49.55008240249039 49.1501556491485 48.9040468778612 48.6887017029848 48.50412012451932 48.104193371177445 47.85808459989013 47.61197582860282 47.36586705731551 47.08899468961728 46.78135872550815 46.56601355063175 46.25837758652261 46.043032411646216 45.76616004394799 45.45852407983885 45.27394250137337 44.99707013367515 44.72019776597693 44.50485259110053 44.28950741622413 44.16645303058048 43.95110785570408 43.73576268082768 43.612708295184035 43.45889031312946 43.21278154184215 43.028199963376665 42.8743819813221 42.659036806445705 42.412928035158394 42.197582860282 42.04376487822743 41.85918329976195 41.705365317707376 41.58231093206372 41.39772935359824 41.3054385643655 41.18238417872185 41.05932979307819 40.96703900384545 40.81322102179088 40.6286394433254 40.56711225050357 40.38253067203809 40.290239882805345 40.10565830433986 39.85954953305256 39.76725874381981 39.582677165354326 39.428859183299764 39.33656839406702 39.18275041201245 39.0596960263688 38.81358725508149 38.59824208020509 38.413660501739606 38.19831532686321 37.98297015198681 37.82915216993224 37.61380699505585 37.459989013001284 37.24464383812489 37.02929866324849 36.906244277604834 36.69089910272844 36.47555392785204 36.352499542208385 36.22944515656473 36.13715436733199 36.01409998168833 35.9218091924556 35.79875480681194 35.67570042116829 35.55264603552463 35.46035524629189 35.39882805347006 35.24501007141549 35.15271928218275 34.99890130012818 34.87584691448453 34.66050173960813 34.56821095037539 34.41439296832082 34.26057498626625 34.16828419703351 34.04522981138985 33.95293902215711 33.860648232924376 33.79912104010255 33.73759384728072 33.614539461637065 33.55301226881524 33.49148507599341 33.460721479582496 33.33766709393884 33.33766709393884 33.214612708295185 33.15308551547336 33.09155832265153 33.0300311298297 32.968503937007874 32.87621314777513 32.78392235854239 32.72239516572056 32.63010437648782 32.568577183665994 32.47628639443325 32.38399560520051 32.29170481596777 32.168650430324114 32.04559604468046 31.95330525544772 31.830250869804065 31.768723676982237 31.64566929133858 31.64566929133858 31.614905694927668 31.584142098516754 31.55337850210584 31.55337850210584 31.491851309284012 31.461087712873102 31.399560520051274 31.338033327229446 31.21497894158579 31.21497894158579 31.153451748763963 31.12268815235305 31.06116095953122 31.06116095953122 31.030397363120308 30.999633766709394 30.999633766709394 30.96887017029848 30.938106573887566 30.845815784654825 30.753524995422083 30.691997802600255 30.630470609778428 30.538179820545686 30.47665262772386 30.38436183849112 30.261307452847465 30.13825306720381 30.015198681560154 29.922907892327412 29.83061710309467 29.799853506683757 29.799853506683757 29.769089910272843 29.769089910272843 29.769089910272843 29.73832631386193 29.73832631386193 29.707562717451015 29.6767991210401 29.6767991210401 29.646035524629188 29.646035524629188 29.646035524629188 29.646035524629188 29.646035524629188 29.646035524629188 29.646035524629188 29.615271928218274 29.615271928218274 29.615271928218274 29.58450833180736 29.58450833180736 29.58450833180736 29.553744735396446 29.522981138985532 29.522981138985532 29.522981138985532 29.49221754257462 29.49221754257462 29.49221754257462 29.49221754257462 29.461453946163708 29.461453946163708 29.461453946163708 29.430690349752794 29.430690349752794 29.430690349752794 29.430690349752794 29.39992675334188 29.39992675334188 29.369163156930966 29.369163156930966 29.338399560520052 29.338399560520052 29.30763596410914 29.276872367698225 29.276872367698225 29.276872367698225 29.24610877128731 29.24610877128731 29.24610877128731 29.215345174876397 29.215345174876397 29.215345174876397 29.215345174876397 29.184581578465483 29.184581578465483 29.15381798205457 29.15381798205457 29.15381798205457 29.123054385643655 29.09229078923274 29.123054385643655 29.09229078923274 29.09229078923274 29.09229078923274 29.09229078923274 29.09229078923274 29.09229078923274 29.09229078923274 29.09229078923274 29.09229078923274 29.061527192821828 29.09229078923274 29.09229078923274 29.09229078923274 29.09229078923274 29.09229078923274 29.09229078923274 29.061527192821828 29.09229078923274 29.09229078923274 29.09229078923274 29.09229078923274 29.09229078923274 29.061527192821828 29.061527192821828 29.061527192821828 29.061527192821828 29.061527192821828 29.061527192821828 29.09229078923274 29.061527192821828 29.061527192821828 29.061527192821828 29.061527192821828 29.061527192821828 29.061527192821828 29.061527192821828 29.061527192821828 29.061527192821828 29.061527192821828 29.061527192821828 29.061527192821828 29.030763596410914 29.061527192821828 29.061527192821828 29.030763596410914 29.030763596410914 29.061527192821828 29.030763596410914 29.030763596410914 29.030763596410914 29.030763596410914 29.030763596410914 29.030763596410914 29.030763596410914 29.030763596410914 29.030763596410914 29.030763596410914 29.030763596410914 29.030763596410914 29.030763596410914 29.030763596410914 29.030763596410914 29.030763596410914 29.030763596410914 29.030763596410914 29.0 29.030763596410914 29.030763596410914 29.0 29.0 29.0 29.0 29.0 29.0 29.0 29.0 29.0 29.0 29.0 29.030763596410914 29.0 29.0 29.0 29.0 29.0 29.0 29.0 29.0 29.0 29.0 29.0 29.0 29.0 29.0 29.0 29.0 29.0 29.0 29.0 29.0 29.0 29.0 29.0 29.0 29.0 28.969236403589086 29.0 29.0 28.969236403589086 28.969236403589086 28.969236403589086 28.969236403589086 28.969236403589086 28.969236403589086 28.969236403589086 28.969236403589086 28.969236403589086 28.969236403589086 28.969236403589086 28.969236403589086 28.969236403589086 28.969236403589086 28.969236403589086 28.969236403589086 28.969236403589086 28.938472807178172 28.969236403589086 28.938472807178172 28.969236403589086 28.969236403589086 28.938472807178172 28.969236403589086 28.969236403589086 28.938472807178172 28.969236403589086 28.969236403589086 28.969236403589086 28.938472807178172 28.938472807178172 28.969236403589086 28.969236403589086 28.969236403589086 28.969236403589086 28.938472807178172 28.969236403589086 28.938472807178172 28.969236403589086 28.938472807178172 28.969236403589086 28.969236403589086 28.938472807178172 28.938472807178172 28.90770921076726 28.90770921076726 28.90770921076726 28.876945614356345 28.876945614356345 28.876945614356345 28.876945614356345 28.876945614356345 28.876945614356345 28.84618201794543 28.876945614356345 28.84618201794543 28.876945614356345 28.84618201794543 28.84618201794543 28.876945614356345 28.84618201794543 28.876945614356345 28.876945614356345 28.84618201794543 28.84618201794543 28.84618201794543 28.876945614356345 28.84618201794543 28.84618201794543 28.84618201794543 28.84618201794543 28.876945614356345 28.84618201794543 28.84618201794543 28.84618201794543 28.84618201794543 28.84618201794543 28.84618201794543 28.876945614356345 28.84618201794543 28.84618201794543 28.84618201794543 28.876945614356345 28.84618201794543 28.84618201794543 28.84618201794543 28.84618201794543 28.84618201794543 28.84618201794543 28.84618201794543 28.84618201794543 28.84618201794543 28.84618201794543 28.84618201794543 28.84618201794543 28.84618201794543 28.84618201794543 28.84618201794543 28.84618201794543 28.84618201794543 28.84618201794543 28.84618201794543 28.84618201794543 28.84618201794543 28.84618201794543 28.84618201794543 28.84618201794543 28.84618201794543 28.84618201794543 28.84618201794543 28.815418421534517 28.815418421534517 28.815418421534517 28.815418421534517 28.815418421534517 28.815418421534517 28.815418421534517 28.815418421534517 28.815418421534517 28.815418421534517 28.815418421534517 28.815418421534517 28.815418421534517 28.815418421534517 28.815418421534517 28.815418421534517 28.815418421534517 28.815418421534517 28.815418421534517 28.815418421534517 28.815418421534517 28.815418421534517 28.815418421534517 28.815418421534517 28.815418421534517 28.815418421534517 28.815418421534517 28.815418421534517 28.815418421534517 28.815418421534517 28.815418421534517 28.784654825123603 28.815418421534517 28.815418421534517 28.784654825123603 28.784654825123603 28.784654825123603 28.784654825123603 28.815418421534517 28.784654825123603 28.784654825123603 28.784654825123603 28.815418421534517 28.784654825123603 28.784654825123603 28.784654825123603 28.784654825123603 28.784654825123603 28.784654825123603 28.784654825123603 28.815418421534517 28.784654825123603 28.784654825123603 28.784654825123603 28.784654825123603 28.784654825123603 28.784654825123603 28.784654825123603 28.784654825123603 28.784654825123603 28.784654825123603 28.784654825123603 28.784654825123603 28.784654825123603 28.784654825123603 28.784654825123603 28.784654825123603 28.784654825123603 28.75389122871269 28.75389122871269 28.784654825123603 28.784654825123603 28.784654825123603 28.75389122871269 28.784654825123603 28.784654825123603 28.75389122871269 28.75389122871269 28.784654825123603 28.75389122871269 28.75389122871269 28.75389122871269 28.75389122871269 28.75389122871269 28.75389122871269 28.75389122871269 28.75389122871269 28.75389122871269 28.75389122871269 28.75389122871269 28.75389122871269 28.75389122871269 28.75389122871269 28.75389122871269 28.75389122871269 28.75389122871269 28.75389122871269 28.75389122871269 28.75389122871269 28.75389122871269 28.75389122871269 28.75389122871269 28.75389122871269 28.75389122871269 28.75389122871269 28.75389122871269 28.75389122871269 28.75389122871269 28.75389122871269 28.75389122871269 28.75389122871269 28.75389122871269 28.75389122871269 28.75389122871269 28.75389122871269 28.75389122871269 28.75389122871269 28.75389122871269 28.75389122871269 28.75389122871269 28.75389122871269 28.75389122871269 28.75389122871269 28.75389122871269 28.75389122871269 28.75389122871269 28.75389122871269 28.75389122871269 28.723127632301775 28.75389122871269 28.75389122871269 28.75389122871269 28.75389122871269 28.75389122871269 28.75389122871269 28.75389122871269 28.75389122871269 28.75389122871269 28.75389122871269 28.75389122871269 28.75389122871269 28.75389122871269 28.75389122871269 28.75389122871269 28.75389122871269 28.75389122871269 28.75389122871269 28.75389122871269 28.75389122871269 28.75389122871269 28.75389122871269 28.75389122871269 28.75389122871269 28.75389122871269 28.75389122871269 28.75389122871269 28.75389122871269 28.75389122871269 28.75389122871269 28.75389122871269 28.75389122871269 28.75389122871269 28.75389122871269 28.75389122871269 28.75389122871269 28.75389122871269 28.75389122871269 28.75389122871269 28.75389122871269 28.75389122871269 28.75389122871269 28.75389122871269 28.75389122871269 28.75389122871269 28.75389122871269 28.75389122871269 28.75389122871269 28.75389122871269 28.75389122871269 28.723127632301775 28.75389122871269 28.723127632301775 28.75389122871269 28.75389122871269 28.75389122871269 28.723127632301775 28.723127632301775 28.723127632301775 28.723127632301775 28.723127632301775 28.723127632301775 28.723127632301775 28.723127632301775 28.723127632301775 28.723127632301775 28.723127632301775 28.723127632301775 28.723127632301775 28.723127632301775 28.723127632301775 28.723127632301775 28.723127632301775 28.723127632301775 28.723127632301775 28.723127632301775 28.723127632301775 28.723127632301775 28.723127632301775 28.723127632301775 28.69236403589086 28.69236403589086 28.723127632301775 28.69236403589086 28.723127632301775 28.723127632301775 28.69236403589086 28.69236403589086 28.69236403589086 28.69236403589086 28.69236403589086 28.69236403589086 28.69236403589086 28.723127632301775 28.69236403589086 28.69236403589086 28.69236403589086 28.69236403589086 28.69236403589086 28.69236403589086 28.69236403589086 28.69236403589086 28.69236403589086 28.69236403589086 28.69236403589086 28.69236403589086 28.69236403589086 28.69236403589086 28.69236403589086 28.69236403589086 28.69236403589086 28.69236403589086 28.69236403589086 28.69236403589086 28.69236403589086 28.69236403589086 28.69236403589086 28.69236403589086 28.69236403589086 28.69236403589086 28.69236403589086 28.69236403589086 28.69236403589086 28.69236403589086 28.69236403589086 28.69236403589086 28.69236403589086 28.69236403589086 28.69236403589086 28.69236403589086 28.69236403589086 28.69236403589086 28.69236403589086 28.69236403589086 28.69236403589086 28.69236403589086 28.69236403589086 28.69236403589086 28.69236403589086 28.69236403589086 28.661600439479948 28.69236403589086 28.69236403589086 28.69236403589086 28.69236403589086 28.69236403589086 28.69236403589086 28.69236403589086 28.69236403589086 28.661600439479948 28.69236403589086 28.69236403589086 28.661600439479948 28.69236403589086 28.661600439479948 28.661600439479948 28.661600439479948 28.661600439479948 28.661600439479948 28.661600439479948 28.661600439479948 28.661600439479948 28.661600439479948 28.661600439479948 28.69236403589086 28.661600439479948 28.661600439479948 28.69236403589086 28.69236403589086 28.661600439479948 28.69236403589086 28.69236403589086 28.661600439479948 28.661600439479948 28.661600439479948 28.661600439479948 28.69236403589086 28.661600439479948 28.661600439479948 28.69236403589086 28.661600439479948 28.661600439479948 28.69236403589086 28.661600439479948 28.661600439479948 28.661600439479948 28.661600439479948 28.661600439479948 28.661600439479948 28.661600439479948 28.661600439479948 28.661600439479948 28.69236403589086 28.69236403589086 28.661600439479948 28.661600439479948 28.661600439479948 28.661600439479948 28.661600439479948 28.661600439479948 28.661600439479948 28.69236403589086 28.661600439479948 28.69236403589086 28.661600439479948 28.661600439479948 28.69236403589086 28.661600439479948 28.661600439479948 28.661600439479948 28.661600439479948 28.661600439479948 28.661600439479948 28.661600439479948 28.661600439479948 28.661600439479948 28.69236403589086 28.661600439479948 28.661600439479948 28.69236403589086 28.661600439479948 28.661600439479948 28.661600439479948 28.661600439479948 28.661600439479948 28.661600439479948 28.69236403589086 28.661600439479948 28.69236403589086 28.661600439479948 28.69236403589086 28.661600439479948 28.661600439479948 28.661600439479948 28.661600439479948 28.661600439479948 28.661600439479948 28.661600439479948 28.661600439479948 28.661600439479948 28.69236403589086 28.661600439479948 28.661600439479948 28.661600439479948 28.661600439479948 28.69236403589086 28.661600439479948 28.661600439479948 28.661600439479948 28.69236403589086 28.661600439479948 28.661600439479948 28.661600439479948 28.661600439479948 28.661600439479948 28.661600439479948 28.661600439479948 28.661600439479948 28.661600439479948 28.661600439479948 28.661600439479948 28.661600439479948 28.661600439479948 28.661600439479948 28.661600439479948 28.661600439479948 28.661600439479948 28.661600439479948 28.661600439479948 28.661600439479948 28.661600439479948 28.661600439479948 28.661600439479948 28.661600439479948 28.661600439479948 28.661600439479948 28.661600439479948 28.661600439479948 28.661600439479948 28.661600439479948 28.661600439479948 28.661600439479948 28.661600439479948 28.661600439479948 28.661600439479948 28.661600439479948 28.661600439479948 28.661600439479948 28.661600439479948 28.661600439479948 28.661600439479948 28.661600439479948 28.661600439479948 28.661600439479948 28.661600439479948 28.661600439479948 28.661600439479948 28.661600439479948 28.661600439479948 28.661600439479948 28.661600439479948 28.661600439479948 28.661600439479948 28.661600439479948 28.661600439479948 28.661600439479948 28.661600439479948 28.661600439479948 28.661600439479948 28.661600439479948 28.661600439479948 28.661600439479948 28.661600439479948 28.661600439479948 28.661600439479948 28.661600439479948 28.661600439479948 28.661600439479948 28.661600439479948 28.661600439479948 28.661600439479948 28.661600439479948 28.661600439479948 28.661600439479948 28.661600439479948 28.661600439479948 28.661600439479948 28.661600439479948 28.661600439479948 28.661600439479948 28.661600439479948 28.661600439479948 28.661600439479948 28.661600439479948 28.661600439479948 28.661600439479948 28.661600439479948 28.661600439479948 28.661600439479948 28.661600439479948 28.661600439479948 28.661600439479948 28.661600439479948 28.661600439479948 28.661600439479948 28.661600439479948 28.661600439479948 28.661600439479948 28.661600439479948 28.661600439479948 28.661600439479948 28.661600439479948 28.661600439479948 28.661600439479948 28.661600439479948 28.661600439479948 28.661600439479948 28.661600439479948 28.661600439479948 28.661600439479948 28.661600439479948 28.661600439479948 28.661600439479948 28.661600439479948 28.661600439479948 28.661600439479948 28.661600439479948 28.661600439479948 28.661600439479948 28.661600439479948 28.661600439479948 28.661600439479948 28.661600439479948 28.661600439479948 28.661600439479948 28.661600439479948 28.661600439479948 28.661600439479948 28.661600439479948 28.661600439479948 28.661600439479948 28.661600439479948 28.661600439479948 28.661600439479948 28.661600439479948 28.661600439479948 28.661600439479948 28.661600439479948 28.661600439479948 28.661600439479948 28.661600439479948 28.661600439479948 28.661600439479948 28.661600439479948 28.661600439479948 28.661600439479948 28.661600439479948 28.661600439479948 28.661600439479948 28.661600439479948 28.661600439479948 28.661600439479948 28.661600439479948 28.661600439479948 28.661600439479948 28.661600439479948 28.661600439479948 28.661600439479948 28.661600439479948 28.661600439479948 28.661600439479948 28.661600439479948 28.661600439479948 28.661600439479948 28.661600439479948 28.661600439479948 28.661600439479948 28.661600439479948 28.661600439479948 28.661600439479948 28.661600439479948 28.661600439479948 28.661600439479948 28.661600439479948 28.661600439479948 28.661600439479948 28.661600439479948 28.661600439479948 28.661600439479948 28.661600439479948 28.661600439479948 28.661600439479948 28.661600439479948 28.661600439479948 28.661600439479948 28.661600439479948 28.661600439479948 28.661600439479948 28.661600439479948 28.661600439479948 28.661600439479948 28.661600439479948 28.661600439479948 28.661600439479948 28.661600439479948 28.69236403589086 28.661600439479948 28.661600439479948 28.661600439479948 28.661600439479948 28.69236403589086 28.661600439479948 28.661600439479948 28.69236403589086 28.69236403589086 28.661600439479948 28.661600439479948 28.69236403589086 28.69236403589086 28.69236403589086 28.69236403589086 28.69236403589086 28.69236403589086 28.69236403589086 28.69236403589086 28.69236403589086 28.661600439479948 28.69236403589086 28.69236403589086 28.69236403589086 28.69236403589086 28.69236403589086 28.69236403589086 28.69236403589086 28.69236403589086 28.69236403589086 28.69236403589086 28.69236403589086 28.69236403589086 28.69236403589086 28.69236403589086 28.69236403589086 28.69236403589086 28.69236403589086 28.69236403589086 28.69236403589086 28.69236403589086 28.69236403589086 28.69236403589086 28.69236403589086 28.69236403589086 28.69236403589086 28.69236403589086 28.69236403589086 28.69236403589086 28.69236403589086 28.69236403589086 28.69236403589086 28.69236403589086 28.69236403589086 28.69236403589086 28.69236403589086 28.69236403589086 28.69236403589086 28.69236403589086 28.69236403589086 28.69236403589086 28.69236403589086 28.69236403589086 28.69236403589086 28.69236403589086 28.69236403589086 28.69236403589086 28.69236403589086 28.69236403589086 28.69236403589086 28.69236403589086 28.69236403589086 28.69236403589086 28.69236403589086 28.69236403589086 28.69236403589086 28.69236403589086 28.69236403589086 28.69236403589086 28.69236403589086 28.69236403589086 28.69236403589086 28.69236403589086 28.69236403589086 28.69236403589086 28.69236403589086 28.69236403589086 28.69236403589086 28.69236403589086 28.69236403589086 28.69236403589086 28.69236403589086 28.69236403589086 28.69236403589086 28.69236403589086 28.69236403589086 28.69236403589086 28.69236403589086 28.69236403589086 28.69236403589086 28.69236403589086 28.69236403589086 28.69236403589086 28.69236403589086 28.69236403589086 28.69236403589086 28.69236403589086 28.69236403589086 28.69236403589086 28.69236403589086 28.69236403589086 28.69236403589086 28.69236403589086 28.69236403589086 28.69236403589086 28.69236403589086 28.69236403589086 28.69236403589086 28.69236403589086 28.69236403589086 28.69236403589086 28.69236403589086 28.69236403589086 28.69236403589086 28.69236403589086 28.69236403589086 28.69236403589086 28.69236403589086 28.69236403589086 28.69236403589086 28.69236403589086 28.69236403589086 28.69236403589086 28.69236403589086 28.69236403589086 28.69236403589086 28.69236403589086 28.69236403589086 28.69236403589086 28.69236403589086 28.69236403589086 28.69236403589086 28.69236403589086 28.69236403589086 28.69236403589086 28.69236403589086 28.69236403589086 28.69236403589086 28.69236403589086 28.69236403589086 28.69236403589086 28.69236403589086 28.69236403589086 28.69236403589086 28.69236403589086 28.69236403589086 28.69236403589086 28.69236403589086 28.69236403589086 28.69236403589086 28.69236403589086 28.69236403589086 28.69236403589086 28.69236403589086 28.69236403589086 28.69236403589086 28.69236403589086 28.69236403589086 28.69236403589086 28.69236403589086 28.69236403589086 28.69236403589086 28.69236403589086 28.723127632301775 28.69236403589086 28.69236403589086 28.69236403589086 28.69236403589086 28.723127632301775 28.723127632301775 28.723127632301775 28.723127632301775 28.723127632301775 28.723127632301775 28.723127632301775 28.723127632301775 28.723127632301775 28.723127632301775 28.723127632301775 28.723127632301775 28.723127632301775 28.723127632301775 28.723127632301775 28.723127632301775 28.723127632301775 28.723127632301775 28.723127632301775 28.723127632301775 28.75389122871269 28.723127632301775 28.723127632301775 28.75389122871269 28.75389122871269 28.75389122871269 28.75389122871269 28.75389122871269 28.75389122871269 28.75389122871269 28.75389122871269 28.75389122871269 28.75389122871269 28.75389122871269 28.784654825123603 28.84618201794543 28.876945614356345 29.0 29.09229078923274 29.184581578465483 29.24610877128731 29.39992675334188 29.553744735396446 29.83061710309467 29.98443508514924 30.13825306720381 30.23054385643655 30.29207104925838 30.38436183849112 30.415125434902034 30.507416224134772 30.599707013367514 30.72276139901117 30.907342977476652 30.96887017029848 31.06116095953122 31.153451748763963 31.184215345174877 31.27650613440762 31.307269730818533 31.399560520051274 31.461087712873102 31.491851309284012 31.614905694927668 31.70719648416041 31.830250869804065 32.014832448269544 32.23017762314594 32.38399560520051 32.660867972898735 32.84544955136422 33.30690349752793 33.522248672404324 33.76835744369163 34.10675700421168 34.383629371909905 34.72202893242996 34.99890130012818 35.12195568577184 35.337300860648234 35.64493682475737 35.76799121040103 36.198681560153815 36.444790331441126 36.84471708478301 37.18311664530306 37.42922541659037 37.73686138069951 38.167551730452296 38.35213330891778 38.59824208020509 38.8443508514924 39.18275041201245 39.5211499725325 39.82878593664164 40.32100347921626 40.72093023255814 41.02856619666728 41.3054385643655 41.55154733565281 41.82841970335103 42.197582860282 42.412928035158394 42.72056399926753 43.028199963376665 43.305072331074896 43.48965390954038 43.70499908441677 44.04339864493682 44.32027101263505 44.535616187511444 44.81248855520967 45.02783373008606 45.30470609778429 45.61234206189343 45.79692364035891 46.104559604468044 46.350668375755355 46.56601355063175 46.78135872550815 47.05823109320637 47.33510346090459 47.5812122321919 47.765793810657385 48.04266617835561 48.28877494964292 48.59641091375206 48.84251968503936 49.05786485991577 49.365500824024906 49.673136788134045 49.85771836659953 50.16535433070866 50.41146310199597 50.596044680461446 50.87291704815968 51.02673503021424 51.242080205090645 51.457425379967034 51.58047976561069 51.76506134407617 51.91887932613075 52.0419337117744 52.16498809741805 52.257278886650795 52.47262406152719 52.59567844717085 52.68796923640359 52.87255081486907 53.118659586156376 53.24171397180004 53.42629555026552 53.610877128731005 53.85698590001831 54.072331074894706 54.25691265336019 54.5030214246475 54.7183665995239 54.872184581578466 55.05676616004395 55.149056949276684 55.24134773850943 55.36440212415309 55.395165720563995 55.51822010620765 55.641274491851306 55.70280168467313 55.85661966672771 55.97967405237136 56.0719648416041 56.25654642006958 56.28731001648049 56.502655191356894 56.62570957700055 56.748763962644205 56.93334554110969 57.056399926753336 57.240981505218826 57.4255630836843 57.517853872917044 57.70243545138253 57.79472624061527 57.94854422266984 58.1023622047244 58.163889397546235 58.317707379600805 58.40999816883354 58.47152536165537 58.563816150888115 58.62534334370994 58.68687053653177 58.84068851858633 58.90221571140816 59.025270097051816 59.17908807910639 59.2098516755173 59.30214246475004 59.425196850393704 59.51748763962644 59.579014832448266 59.64054202527009 59.732832814502835 59.82512360373558 59.886650796557404 59.94817798937923 60.00970518220106 60.1019959714338 60.16352316425563 60.22505035707745 60.34810474272111 60.53268632118659 60.594213514008416 60.74803149606299 60.87108588170665 61.055667460172124 61.27101263504852 61.51712140633583 61.76323017762314 62.009338948910454 62.16315693096502 62.31697491301959 62.59384728071782 62.77842885918329 63.024537630470604 63.14759201611426 63.36293719099066 63.54751876945614 63.63980955868888 63.824391137154365 63.94744552279802 64.16279069767441 64.34737227613991 64.47042666178355 64.62424464383813 64.71653543307087 64.90111701153634 64.99340780076909 65.11646218641275 65.30104376487822 65.45486174693279 65.57791613257645 65.67020692180918 65.79326130745284 65.9163156930965 65.97784288591834 66.1316608679729 66.28547885002746 66.43929683208202 66.56235121772569 66.71616919978025 66.86998718183483 67.02380516388939 67.17762314594395 67.33144112799853 67.45449551364219 67.60831349569676 67.7006042849295 67.79289507416223 67.79289507416223 67.82365867057315 67.85442226698407 67.85442226698407 67.85442226698407 67.85442226698407 67.85442226698407 67.85442226698407 67.85442226698407 67.85442226698407 67.85442226698407 67.82365867057315 67.82365867057315 67.79289507416223 67.79289507416223 67.76213147775132 67.7006042849295 67.7006042849295 67.66984068851858 67.63907709210767 67.60831349569676 67.60831349569676 67.60831349569676 67.60831349569676 67.60831349569676 67.60831349569676 67.60831349569676 67.60831349569676 67.60831349569676 67.60831349569676 67.60831349569676 67.60831349569676 67.60831349569676 67.57754989928584 67.54678630287492 67.51602270646401 67.51602270646401 67.51602270646401 67.48525911005311 67.48525911005311 67.45449551364219 67.45449551364219 67.45449551364219 67.42373191723127 67.42373191723127 67.42373191723127 67.39296832082036 67.39296832082036 67.36220472440945 67.36220472440945 67.36220472440945 67.36220472440945 67.33144112799853 67.30067753158761 67.2699139351767 67.2391503387658 67.20838674235489 67.17762314594395 67.14685954953305 67.11609595312214 67.08533235671122 67.05456876030031 67.02380516388939 67.02380516388939 67.02380516388939 67.02380516388939 67.02380516388939 67.02380516388939 66.99304156747849 66.99304156747849 66.99304156747849 66.99304156747849 66.99304156747849 66.99304156747849 66.99304156747849 66.99304156747849 66.99304156747849 66.96227797106756 66.93151437465664 66.86998718183483 66.83922358542392 66.83922358542392 66.80845998901299 66.77769639260208 66.74693279619117 66.68540560336935 66.65464200695843 66.62387841054752 66.5931148141366 66.56235121772569 66.53158762131477 66.47006042849296 66.43929683208202 66.37776963926021 66.31624244643838 66.22395165720565 66.1624244643838 66.1316608679729 66.10089727156199 66.07013367515107 66.03937007874015 66.03937007874015 66.00860648232924 66.00860648232924 66.00860648232924 66.00860648232924 66.00860648232924 65.97784288591834 65.97784288591834 65.97784288591834 65.94707928950741 65.94707928950741 65.94707928950741 65.94707928950741 65.94707928950741 65.94707928950741 65.94707928950741 65.94707928950741 65.9163156930965 65.88555209668559 65.88555209668559 65.85478850027468 65.85478850027468 65.85478850027468 65.82402490386376 65.85478850027468 65.85478850027468 65.82402490386376 65.82402490386376 65.82402490386376 65.82402490386376 65.82402490386376 65.85478850027468 65.85478850027468 65.85478850027468 65.82402490386376 65.85478850027468 65.82402490386376 65.82402490386376 65.82402490386376 65.82402490386376 65.79326130745284 65.79326130745284 65.73173411463102 65.73173411463102 65.73173411463102 65.73173411463102 65.73173411463102 65.73173411463102 65.73173411463102 65.73173411463102 65.7009705182201 65.73173411463102 65.7009705182201 65.7009705182201 65.67020692180918 65.7009705182201 65.7009705182201 65.67020692180918 65.7009705182201 65.7009705182201 65.7009705182201 65.7009705182201 65.7009705182201 65.67020692180918 65.7009705182201 65.7009705182201 65.7009705182201 65.63944332539828 65.63944332539828 65.63944332539828 65.60867972898737 65.60867972898737 65.57791613257645 65.57791613257645 65.57791613257645 65.57791613257645 65.54715253616553 65.54715253616553 65.51638893975462 65.51638893975462 65.51638893975462 65.51638893975462 65.51638893975462 65.51638893975462 65.51638893975462 65.51638893975462 65.51638893975462 65.51638893975462 65.51638893975462 65.51638893975462 65.51638893975462 65.51638893975462 65.48562534334371 65.48562534334371 65.45486174693279 65.45486174693279 65.45486174693279 65.45486174693279 65.42409815052187 65.39333455411096 65.36257095770006 65.36257095770006 65.36257095770006 65.36257095770006 65.36257095770006 65.36257095770006 65.36257095770006 65.36257095770006 65.36257095770006 65.36257095770006 65.36257095770006 65.36257095770006 65.36257095770006 65.36257095770006 65.33180736128914 65.33180736128914 65.33180736128914 65.33180736128914 65.30104376487822 65.30104376487822 65.27028016846731 65.27028016846731 65.27028016846731 65.27028016846731 65.27028016846731 65.27028016846731 65.27028016846731 65.27028016846731 65.27028016846731 65.27028016846731 65.27028016846731 65.2395165720564 65.20875297564548 65.20875297564548 65.17798937923456 65.14722578282365 65.11646218641275 65.08569859000184 65.08569859000184 65.08569859000184 65.0549349935909 65.0549349935909 65.0549349935909 65.0549349935909 65.0549349935909 65.0549349935909 65.0549349935909 65.0549349935909 65.0549349935909 65.08569859000184 65.0549349935909 65.08569859000184 65.08569859000184 65.0549349935909 65.0549349935909 65.08569859000184 64.99340780076909 64.96264420435817 64.87035341512544 64.77806262589269 64.71653543307087 64.62424464383813 64.5627174510163 64.40889946896172 64.31660867972897 64.25508148690716 64.16279069767441 64.07049990844168 63.94744552279802 63.85515473356528 63.76286394433254 63.670573155099795 63.54751876945614 63.48599157663431 63.33217359457974 63.239882805347 63.11682841970335 62.96301043764878 62.901483244826956 62.74766526277239 62.5630836843069 62.37850210584142 62.19392052737594 62.04010254532137 61.8862845632668 61.701702984801315 61.57864859915766 61.39406702069218 61.27101263504852 61.086431056583045 60.87108588170665 60.74803149606299 60.50192272477568 60.28657754989928 60.1019959714338 59.82512360373558 59.64054202527009 59.363669657571876 58.96374290422999 58.71763413294268 58.44076176524446 58.163889397546235 58.010071415491666 57.73319904779344 57.302508698040654 57.08716352316425 56.718000366233284 56.441127998535066 56.13349203442593 55.82585607031679 55.57974729902948 55.21058414209851 54.9644753708112 54.56454861746933 54.19538546053836 53.94927668925105 53.580113532320084 53.24171397180004 52.99560520051273 52.68796923640359 52.34956967588353 52.07269730818531 51.58047976561069 51.27284380150155 50.903680644570585 50.50375389122871 50.22688152353049 49.82695477018861 49.580845998901296 49.18091924555942 48.780992492217536 48.473356528108404 48.165720563999265 47.7965574070683 47.5812122321919 47.39663065372642 47.18128547885003 46.965940303973625 46.71983153268632 46.442959164988096 46.2276139901117 46.043032411646216 45.79692364035891 45.61234206189343 45.427760483427946 45.21241530855154 44.81248855520967 44.627906976744185 44.35103460904596 44.16645303058048 43.88958066288225 43.64347189159494 43.45889031312946 43.24354513825307 42.99743636696576 42.84361838491119 42.68980040285662 42.566746017212964 42.38216443874748 42.259110053103825 42.13605566746017 41.92071049258377 41.64383812488555 41.459256546420065 41.090093389489105 40.87474821461271 40.56711225050357 40.25947628639443 40.136421900750776 39.79802234023072 39.61344076176525 39.45962277971067 39.275041201245195 39.15198681560154 38.967405237136056 38.78282365867057 38.65976927302692 38.475187694561434 38.29060611609595 38.13678813404138 37.9522065555759 37.798388573521336 37.58304339864493 37.398461820179456 37.2754074345358 37.12158945248123 36.93700787401575 36.84471708478301 36.69089910272844 36.598608313495696 36.41402673503021 36.29097234938656 36.22944515656473 36.01409998168833 35.82951840322285 35.706464017579194 35.491118842702804 35.36806445705915 35.183482878593665 34.99890130012818 34.87584691448453 34.75279252884087 34.66050173960813 34.475920161142646 34.32210217908808 34.229811389855335 34.10675700421168 34.04522981138985 33.95293902215711 33.89141182933528 33.829884636513455 33.73759384728072 33.67606665445889 33.614539461637065 33.55301226881524 33.49148507599341 33.49148507599341 33.39919428676067 33.368430690349754 33.33766709393884 33.27613990111701 33.2453763047061 33.18384911188427 33.12232191906244 33.09155832265153 32.99926753341879 32.968503937007874 32.87621314777513 32.78392235854239 32.72239516572056 32.63010437648782 32.568577183665994 32.507049990844166 32.414759201611425 32.3532320087896 32.23017762314594 32.1378868339132 32.04559604468046 31.984068851858634 31.891778062625892 31.86101446621498 31.737960080571323 31.64566929133858 31.614905694927668 31.584142098516754 31.584142098516754 31.55337850210584 31.522614905694926 31.522614905694926 31.522614905694926 31.491851309284012 31.491851309284012 31.461087712873102 31.430324116462188 31.36879692364036 31.338033327229446 31.27650613440762 31.21497894158579 31.184215345174877 31.12268815235305 31.030397363120308 30.96887017029848 30.907342977476652 30.87657938106574 30.81505218824391 30.784288591832997 30.753524995422083 30.691997802600255 30.630470609778428 30.599707013367514 30.5689434169566 30.507416224134772 30.445889031312948 30.415125434902034 30.353598242080206 30.29207104925838 30.199780260025637 30.13825306720381 30.07672587438198 30.015198681560154 29.922907892327412 29.8921442959165 29.83061710309467 29.769089910272843 29.707562717451015 29.646035524629188 29.615271928218274 29.58450833180736 29.58450833180736 29.553744735396446 29.553744735396446 29.522981138985532 29.522981138985532 29.522981138985532 29.49221754257462 29.49221754257462 29.430690349752794 29.430690349752794 29.39992675334188 29.39992675334188 29.369163156930966 29.369163156930966 29.369163156930966 29.338399560520052 29.338399560520052 29.30763596410914 29.30763596410914 29.30763596410914 29.30763596410914 29.30763596410914 29.276872367698225 29.276872367698225 29.276872367698225 29.24610877128731 29.24610877128731 29.215345174876397 29.184581578465483 29.184581578465483 29.184581578465483 29.15381798205457 29.15381798205457 29.123054385643655 29.123054385643655 29.123054385643655 29.123054385643655 29.123054385643655 29.09229078923274 29.09229078923274 29.09229078923274 29.09229078923274 29.09229078923274 29.09229078923274 29.09229078923274 29.061527192821828 29.061527192821828 29.061527192821828 29.061527192821828 29.061527192821828 29.061527192821828 29.061527192821828 29.061527192821828 29.030763596410914 29.030763596410914 29.030763596410914 29.030763596410914 29.030763596410914 29.030763596410914 29.030763596410914 29.030763596410914 29.0 29.0 29.0 29.0 29.0 29.0 28.969236403589086 28.969236403589086 28.969236403589086 28.969236403589086 28.938472807178172 28.938472807178172 28.938472807178172 28.938472807178172 28.938472807178172 28.938472807178172 28.938472807178172 28.938472807178172 28.90770921076726 28.90770921076726 28.90770921076726 28.90770921076726 28.876945614356345 28.876945614356345 28.876945614356345 28.876945614356345 28.876945614356345 28.876945614356345 28.876945614356345 28.876945614356345 28.876945614356345 28.876945614356345 28.876945614356345 28.876945614356345 28.876945614356345 28.876945614356345 28.876945614356345 28.84618201794543 28.84618201794543 28.84618201794543 28.84618201794543 28.84618201794543 28.815418421534517 28.815418421534517 28.84618201794543 28.815418421534517 28.815418421534517 28.815418421534517 28.784654825123603 28.784654825123603 28.784654825123603 28.784654825123603 28.784654825123603 28.784654825123603 28.75389122871269 28.75389122871269 28.75389122871269 28.75389122871269 28.75389122871269 28.75389122871269 28.75389122871269 28.75389122871269 28.75389122871269 28.75389122871269 28.723127632301775 28.723127632301775 28.723127632301775 28.723127632301775 28.723127632301775 28.723127632301775 28.723127632301775 28.723127632301775 28.723127632301775 28.723127632301775 28.723127632301775 28.723127632301775 28.69236403589086 28.69236403589086 28.69236403589086 28.69236403589086 28.69236403589086 28.69236403589086 28.69236403589086 28.69236403589086 28.69236403589086 28.69236403589086 28.69236403589086 28.69236403589086 28.69236403589086 28.69236403589086 28.69236403589086 28.69236403589086 28.69236403589086 28.69236403589086 28.69236403589086 28.69236403589086 28.69236403589086 28.69236403589086 28.661600439479948 28.69236403589086 28.661600439479948 28.661600439479948 28.661600439479948 28.661600439479948 28.661600439479948 28.661600439479948 28.661600439479948 28.661600439479948 28.661600439479948 28.661600439479948 28.630836843069034 28.630836843069034 28.630836843069034 28.630836843069034 28.630836843069034 28.630836843069034 28.630836843069034 28.630836843069034 28.630836843069034 28.630836843069034 28.630836843069034 28.630836843069034 28.630836843069034 28.60007324665812 28.630836843069034 28.630836843069034 28.630836843069034 28.630836843069034 28.630836843069034 28.60007324665812 28.60007324665812 28.60007324665812 28.630836843069034 28.630836843069034 28.630836843069034 28.630836843069034 28.630836843069034 28.630836843069034 28.630836843069034 28.60007324665812 28.60007324665812 28.60007324665812 28.60007324665812 28.60007324665812 28.60007324665812 28.60007324665812 28.60007324665812 28.60007324665812 28.60007324665812 28.60007324665812 28.60007324665812 28.60007324665812 28.60007324665812 28.60007324665812 28.60007324665812 28.60007324665812 28.60007324665812 28.60007324665812 28.60007324665812 28.60007324665812 28.60007324665812 28.60007324665812 28.60007324665812 28.60007324665812 28.60007324665812 28.60007324665812 28.60007324665812 28.60007324665812 28.60007324665812 28.60007324665812 28.60007324665812 28.60007324665812 28.60007324665812 28.60007324665812 28.60007324665812 28.60007324665812 28.60007324665812 28.60007324665812 28.60007324665812 28.60007324665812 28.60007324665812 28.60007324665812 28.60007324665812 28.60007324665812 28.60007324665812 28.60007324665812 28.60007324665812 28.569309650247206 28.569309650247206 28.569309650247206 28.569309650247206 28.569309650247206 28.569309650247206 28.569309650247206 28.569309650247206 28.569309650247206 28.569309650247206 28.569309650247206 28.569309650247206 28.569309650247206 28.569309650247206 28.569309650247206 28.569309650247206 28.569309650247206 28.538546053836292 28.538546053836292 28.569309650247206 28.538546053836292 28.538546053836292 28.538546053836292 28.569309650247206 28.538546053836292 28.538546053836292 28.538546053836292 28.538546053836292 28.538546053836292 28.538546053836292 28.538546053836292 28.50778245742538 28.50778245742538 28.538546053836292 28.538546053836292 28.538546053836292 28.538546053836292 28.538546053836292 28.538546053836292 28.538546053836292 28.538546053836292 28.50778245742538 28.50778245742538 28.538546053836292 28.50778245742538 28.50778245742538 28.50778245742538 28.538546053836292 28.538546053836292 28.50778245742538 28.50778245742538 28.50778245742538 28.50778245742538 28.50778245742538 28.50778245742538 28.50778245742538 28.50778245742538 28.50778245742538 28.50778245742538 28.50778245742538 28.50778245742538 28.50778245742538 28.50778245742538 28.50778245742538 28.50778245742538 28.50778245742538 28.50778245742538 28.50778245742538 28.477018861014468 28.50778245742538 28.477018861014468 28.477018861014468 28.50778245742538 28.50778245742538 28.477018861014468 28.50778245742538 28.477018861014468 28.477018861014468 28.477018861014468 28.477018861014468 28.477018861014468 28.477018861014468 28.50778245742538 28.477018861014468 28.477018861014468 28.477018861014468 28.50778245742538 28.477018861014468 28.477018861014468 28.477018861014468 28.477018861014468 28.477018861014468 28.477018861014468 28.477018861014468 28.477018861014468 28.477018861014468 28.477018861014468 28.477018861014468 28.477018861014468 28.477018861014468 28.477018861014468 28.477018861014468 28.477018861014468 28.477018861014468 28.477018861014468 28.477018861014468 28.477018861014468 28.477018861014468 28.477018861014468 28.477018861014468 28.477018861014468 28.477018861014468 28.477018861014468 28.477018861014468 28.477018861014468 28.477018861014468 28.477018861014468 28.477018861014468 28.477018861014468 28.477018861014468 28.477018861014468 28.477018861014468 28.477018861014468 28.477018861014468 28.477018861014468 28.477018861014468 28.446255264603554 28.477018861014468 28.477018861014468 28.477018861014468 28.477018861014468 28.477018861014468 28.446255264603554 28.477018861014468 28.446255264603554 28.477018861014468 28.477018861014468 28.477018861014468 28.477018861014468 28.477018861014468 28.446255264603554 28.477018861014468 28.477018861014468 28.477018861014468 28.477018861014468 28.477018861014468 28.477018861014468 28.446255264603554 28.477018861014468 28.477018861014468 28.477018861014468 28.477018861014468 28.477018861014468 28.477018861014468 28.477018861014468 28.477018861014468 28.477018861014468 28.477018861014468 28.477018861014468 28.477018861014468 28.477018861014468 28.477018861014468 28.477018861014468 28.477018861014468 28.477018861014468 28.477018861014468 28.477018861014468 28.477018861014468 28.477018861014468 28.477018861014468 28.477018861014468 28.477018861014468 28.477018861014468 28.477018861014468 28.477018861014468 28.477018861014468 28.477018861014468 28.477018861014468 28.477018861014468 28.446255264603554 28.477018861014468 28.477018861014468 28.477018861014468 28.477018861014468 28.477018861014468 28.477018861014468 28.477018861014468 28.477018861014468 28.477018861014468 28.446255264603554 28.477018861014468 28.446255264603554 28.477018861014468 28.477018861014468 28.446255264603554 28.477018861014468 28.446255264603554 28.446255264603554 28.446255264603554 28.446255264603554 28.446255264603554 28.446255264603554 28.446255264603554 28.446255264603554 28.446255264603554 28.446255264603554 28.446255264603554 28.446255264603554 28.477018861014468 28.446255264603554 28.446255264603554 28.446255264603554 28.446255264603554 28.446255264603554 28.477018861014468 28.446255264603554 28.446255264603554 28.477018861014468 28.446255264603554 28.446255264603554 28.477018861014468 28.477018861014468 28.446255264603554 28.446255264603554 28.446255264603554 28.446255264603554 28.477018861014468 28.446255264603554 28.446255264603554 28.446255264603554 28.446255264603554 28.446255264603554 28.446255264603554 28.446255264603554 28.446255264603554 28.477018861014468 28.446255264603554 28.446255264603554 28.446255264603554 28.446255264603554 28.446255264603554 28.446255264603554 28.446255264603554 28.446255264603554 28.446255264603554 28.446255264603554 28.446255264603554 28.477018861014468 28.446255264603554 28.446255264603554 28.446255264603554 28.477018861014468 28.446255264603554 28.446255264603554 28.446255264603554 28.477018861014468 28.446255264603554 28.446255264603554 28.446255264603554 28.446255264603554 28.446255264603554 28.446255264603554 28.446255264603554 28.446255264603554 28.446255264603554 28.446255264603554 28.446255264603554 28.446255264603554 28.446255264603554 28.446255264603554 28.446255264603554 28.446255264603554 28.446255264603554 28.477018861014468 28.446255264603554 28.477018861014468 28.446255264603554 28.446255264603554 28.446255264603554 28.446255264603554 28.446255264603554 28.446255264603554 28.446255264603554 28.477018861014468 28.446255264603554 28.446255264603554 28.446255264603554 28.446255264603554 28.446255264603554 28.446255264603554 28.446255264603554 28.446255264603554 28.446255264603554 28.446255264603554 28.446255264603554 28.446255264603554 28.446255264603554 28.446255264603554 28.446255264603554 28.446255264603554 28.477018861014468 28.477018861014468 28.446255264603554 28.446255264603554 28.446255264603554 28.446255264603554 28.446255264603554 28.446255264603554 28.446255264603554 28.446255264603554 28.446255264603554 28.446255264603554 28.446255264603554 28.446255264603554 28.446255264603554 28.446255264603554 28.446255264603554 28.477018861014468 28.446255264603554 28.446255264603554 28.446255264603554 28.446255264603554 28.446255264603554 28.446255264603554 28.446255264603554 28.446255264603554 28.446255264603554 28.446255264603554 28.446255264603554 28.446255264603554 28.446255264603554 28.446255264603554 28.446255264603554 28.446255264603554 28.446255264603554 28.446255264603554 28.446255264603554 28.446255264603554 28.446255264603554 28.446255264603554 28.446255264603554 28.446255264603554 28.446255264603554 28.446255264603554 28.446255264603554 28.446255264603554 28.446255264603554 28.446255264603554 28.446255264603554 28.446255264603554 28.446255264603554 28.446255264603554 28.446255264603554 28.446255264603554 28.446255264603554 28.446255264603554 28.446255264603554 28.446255264603554 28.446255264603554 28.446255264603554 28.446255264603554 28.446255264603554 28.446255264603554 28.446255264603554 28.446255264603554 28.477018861014468 28.446255264603554 28.446255264603554 28.446255264603554 28.446255264603554 28.446255264603554 28.446255264603554 28.446255264603554 28.446255264603554 28.446255264603554 28.446255264603554 28.477018861014468 28.446255264603554 28.446255264603554 28.446255264603554 28.446255264603554 28.446255264603554 28.446255264603554 28.446255264603554 28.446255264603554 28.446255264603554 28.446255264603554 28.446255264603554 28.446255264603554 28.446255264603554 28.446255264603554 28.446255264603554 28.446255264603554 28.446255264603554 28.446255264603554 28.446255264603554 28.446255264603554 28.446255264603554 28.477018861014468 28.446255264603554 28.446255264603554 28.446255264603554 28.446255264603554 28.446255264603554 28.446255264603554 28.446255264603554 28.446255264603554 28.446255264603554 28.446255264603554 28.446255264603554 28.446255264603554 28.446255264603554 28.446255264603554 28.446255264603554 28.446255264603554 28.446255264603554 28.446255264603554 28.477018861014468 28.446255264603554 28.446255264603554 28.446255264603554 28.446255264603554 28.477018861014468 28.446255264603554 28.446255264603554 28.446255264603554 28.446255264603554 28.446255264603554 28.446255264603554 28.446255264603554 28.446255264603554 28.446255264603554 28.446255264603554 28.446255264603554 28.446255264603554 28.446255264603554 28.446255264603554 28.477018861014468 28.446255264603554 28.446255264603554 28.446255264603554 28.446255264603554 28.446255264603554 28.446255264603554 28.446255264603554 28.446255264603554 28.477018861014468 28.446255264603554 28.446255264603554 28.446255264603554 28.446255264603554 28.446255264603554 28.446255264603554 28.446255264603554 28.477018861014468 28.446255264603554 28.446255264603554 28.446255264603554 28.446255264603554 28.446255264603554 28.446255264603554 28.446255264603554 28.446255264603554 28.446255264603554 28.446255264603554 28.446255264603554 28.446255264603554 28.446255264603554 28.446255264603554 28.477018861014468 28.446255264603554 28.446255264603554 28.446255264603554 28.446255264603554 28.446255264603554 28.446255264603554 28.477018861014468 28.446255264603554 28.446255264603554 28.446255264603554 28.446255264603554 28.477018861014468 28.446255264603554 28.477018861014468 28.477018861014468 28.446255264603554 28.446255264603554 28.446255264603554 28.446255264603554 28.446255264603554 28.477018861014468 28.477018861014468 28.477018861014468 28.477018861014468 28.477018861014468 28.477018861014468 28.477018861014468 28.477018861014468 28.477018861014468 28.477018861014468 28.477018861014468 28.50778245742538 28.50778245742538 28.50778245742538 28.50778245742538 28.538546053836292 28.538546053836292 28.538546053836292 28.538546053836292 28.569309650247206 28.538546053836292 28.569309650247206 28.60007324665812 28.60007324665812 28.630836843069034 28.69236403589086 28.723127632301775 28.75389122871269 28.75389122871269 28.815418421534517 28.876945614356345 28.938472807178172 29.061527192821828 29.123054385643655 29.24610877128731 29.30763596410914 29.369163156930966 29.461453946163708 29.615271928218274 29.73832631386193 29.861380699505585 29.98443508514924 30.07672587438198 30.261307452847465 30.38436183849112 30.507416224134772 30.599707013367514 30.691997802600255 30.87657938106574 30.938106573887566 31.12268815235305 31.184215345174877 31.27650613440762 31.338033327229446 31.430324116462188 31.55337850210584 31.64566929133858 31.768723676982237 31.984068851858634 32.168650430324114 32.32246841237868 32.507049990844166 32.660867972898735 32.87621314777513 33.18384911188427 33.460721479582496 33.922175425746204 34.16828419703351 34.44515656473173 34.937374107306354 35.06042849295001 35.52188243911371 35.952572788866505 36.29097234938656 36.752426295550265 37.33693462735763 37.61380699505585 37.921442959164985 38.19831532686321 38.721296465848745 38.99816883354697 39.275041201245195 39.79802234023072 40.16718549716169 40.50558505768174 40.75169382896905 41.02856619666728 41.36696575718733 41.73612891411829 42.013001281816514 42.32063724592565 42.566746017212964 42.905145577733016 43.274308734663975 43.5511811023622 43.92034425929317 44.32027101263505 44.781724958798755 45.05859732649698 45.36623329060612 45.91997802600257 46.2276139901117 46.596777147042665 47.212049075260936 47.70426661783556 48.073429774766524 48.565647317341146 48.93481047427211 49.45779161325764 49.95000915583226 50.288408716352315 50.71909906610511 51.18055301226882 51.488188976377955 51.91887932613075 52.34956967588353 52.68796923640359 52.9340780076909 53.18018677897821 53.48782274308734 53.76469511078557 54.072331074894706 54.34920344259293 54.53378502105841 54.77989379234572 54.933711774400294 55.11829335286578 55.45669291338582 55.70280168467313 55.85661966672771 56.13349203442593 56.31807361289141 56.59494598058963 56.90258194469877 57.08716352316425 57.33327229445156 57.6409082585607 57.82548983702618 58.1023622047244 58.40999816883354 58.68687053653177 58.90221571140816 59.086797289873644 59.39443325398278 59.67130562168101 59.91741439296832 60.25581395348837 60.56344991759751 60.74803149606299 60.96337667093938 61.086431056583045 61.36330342428126 61.609412195568574 61.82475737044497 62.07086614173228 62.255447720197765 62.47079289507416 62.716901666361466 62.870719648416035 63.11682841970335 63.36293719099066 63.516755173045226 63.79362754074345 63.94744552279802 64.31660867972897 64.59348104742722 64.71653543307087 64.96264420435817 65.17798937923456 65.42409815052187 65.7009705182201 65.97784288591834 66.25471525361655 66.50082402490386 66.62387841054752 66.93151437465664 67.14685954953305 67.33144112799853 67.57754989928584 67.73136788134042 67.91594945980589 68.19282182750412 68.3466398095587 68.46969419520234 68.592748580846 68.71580296648965 68.8388573521333 68.93114814136604 69.08496612342061 69.20802050906427 69.33107489470792 69.4848928767625 69.63871085881706 69.9463468229262 70.16169199780259 70.34627357626809 70.56161875114448 70.80772752243178 70.96154550448635 71.17689067936274 71.2999450650064 71.45376304706097 71.60758102911555 71.69987181834829 71.82292620399194 71.91521699322467 71.97674418604652 72.03827137886833 72.06903497527925 72.06903497527925 72.06903497527925 72.09979857169017 72.06903497527925 72.06903497527925 72.06903497527925 72.06903497527925 72.06903497527925 72.06903497527925 72.06903497527925 72.06903497527925 72.06903497527925 72.06903497527925 72.06903497527925 72.06903497527925 72.06903497527925 72.06903497527925 72.06903497527925 72.06903497527925 72.06903497527925 72.06903497527925 72.06903497527925 72.06903497527925 72.06903497527925 72.06903497527925 72.09979857169017 72.06903497527925 72.06903497527925 72.06903497527925 72.06903497527925 72.06903497527925 72.06903497527925 72.03827137886833 72.03827137886833 72.03827137886833 72.00750778245742 72.00750778245742 72.00750778245742 71.97674418604652 71.9459805896356 71.9459805896356 71.9459805896356 71.9459805896356 71.91521699322467 71.91521699322467 71.88445339681377 71.88445339681377 71.88445339681377 71.88445339681377 71.88445339681377 71.88445339681377 71.88445339681377 71.88445339681377 71.85368980040286 71.82292620399194 71.79216260758102 71.76139901117011 71.76139901117011 71.76139901117011 71.7306354147592 71.76139901117011 71.7306354147592 71.7306354147592 71.7306354147592 71.7306354147592 71.7306354147592 71.7306354147592 71.7306354147592 71.7306354147592 71.7306354147592 71.7306354147592 71.7306354147592 71.7306354147592 71.7306354147592 71.7306354147592 71.7306354147592 71.69987181834829 71.69987181834829 71.69987181834829 71.69987181834829 71.69987181834829 71.66910822193736 71.66910822193736 71.63834462552646 71.60758102911555 71.57681743270463 71.57681743270463 71.57681743270463 71.57681743270463 71.57681743270463 71.57681743270463 71.57681743270463 71.54605383629371 71.5152902398828 71.4845266434719 71.4845266434719 71.45376304706097 71.45376304706097 71.42299945065005 71.36147225782824 71.36147225782824 71.33070866141732 71.26918146859549 71.23841787218458 71.20765427577366 71.17689067936274 71.14612708295184 71.11536348654093 71.11536348654093 71.11536348654093 71.11536348654093 71.11536348654093 71.11536348654093 71.08459989013001 71.08459989013001 71.08459989013001 71.08459989013001 71.08459989013001 71.08459989013001 71.11536348654093 71.08459989013001 71.08459989013001 71.08459989013001 71.05383629371909 71.02307269730818 70.99230910089727 70.96154550448635 70.93078190807545 70.86925471525362 70.86925471525362 70.86925471525362 70.86925471525362 70.8384911188427 70.8384911188427 70.8384911188427 70.8384911188427 70.8384911188427 70.8384911188427 70.8384911188427 70.8384911188427 70.8384911188427 70.8384911188427 70.77696392602087 70.74620032960996 70.71543673319906 70.68467313678812 70.65390954037721 70.6231459439663 70.59238234755539 70.59238234755539 70.56161875114448 70.53085515473356 70.46932796191174 70.4078007690899 70.377037172679 70.31550997985717 70.28474638344625 70.25398278703534 70.22321919062442 70.19245559421351 70.19245559421351 70.19245559421351 70.13092840139169 70.10016480498078 70.06940120856986 70.03863761215894 70.03863761215894 70.03863761215894 70.03863761215894 70.03863761215894 70.00787401574803 70.00787401574803 70.00787401574803 70.00787401574803 69.97711041933712 69.97711041933712 69.9463468229262 69.9463468229262 69.91558322651528 69.91558322651528 69.91558322651528 69.91558322651528 69.91558322651528 69.91558322651528 69.91558322651528 69.91558322651528 69.91558322651528 69.91558322651528 69.88481963010437 69.88481963010437 69.85405603369347 69.82329243728255 69.79252884087163 69.76176524446072 69.73100164804981 69.70023805163889 69.66947445522797 69.66947445522797 69.63871085881706 69.63871085881706 69.63871085881706 69.63871085881706 69.63871085881706 69.63871085881706 69.63871085881706 69.60794726240616 69.60794726240616 69.60794726240616 69.60794726240616 69.60794726240616 69.60794726240616 69.60794726240616 69.60794726240616 69.57718366599524 69.57718366599524 69.60794726240616 69.57718366599524 69.60794726240616 69.60794726240616 69.57718366599524 69.57718366599524 69.57718366599524 69.54642006958431 69.54642006958431 69.54642006958431 69.57718366599524 69.54642006958431 69.54642006958431 69.57718366599524 69.57718366599524 69.57718366599524 69.57718366599524 69.54642006958431 69.57718366599524 69.57718366599524 69.57718366599524 69.57718366599524 69.57718366599524 69.57718366599524 69.54642006958431 69.57718366599524 69.57718366599524 69.57718366599524 69.57718366599524 69.57718366599524 69.57718366599524 69.57718366599524 69.57718366599524 69.57718366599524 69.54642006958431 69.54642006958431 69.51565647317341 69.51565647317341 69.4848928767625 69.4848928767625 69.45412928035158 69.42336568394066 69.45412928035158 69.42336568394066 69.42336568394066 69.42336568394066 69.45412928035158 69.45412928035158 69.45412928035158 69.45412928035158 69.45412928035158 69.45412928035158 69.45412928035158 69.45412928035158 69.45412928035158 69.45412928035158 69.45412928035158 69.45412928035158 69.45412928035158 69.45412928035158 69.45412928035158 69.45412928035158 69.45412928035158 69.42336568394066 69.42336568394066 69.42336568394066 69.45412928035158 69.45412928035158 69.45412928035158 69.45412928035158 69.45412928035158 69.45412928035158 69.45412928035158 69.45412928035158 69.45412928035158 69.45412928035158 69.45412928035158 69.45412928035158 69.45412928035158 69.45412928035158 69.45412928035158 69.45412928035158 69.45412928035158 69.45412928035158 69.45412928035158 69.45412928035158 69.45412928035158 69.45412928035158 69.45412928035158 69.45412928035158 69.45412928035158 69.45412928035158 69.42336568394066 69.42336568394066 69.42336568394066 69.42336568394066 69.39260208752975 69.39260208752975 69.36183849111885 69.36183849111885 69.33107489470792 69.33107489470792 69.300311298297 69.2695477018861 69.2695477018861 69.20802050906427 69.20802050906427 69.17725691265336 69.17725691265336 69.14649331624244 69.11572971983153 69.11572971983153 69.08496612342061 69.05420252700969 69.02343893059879 68.99267533418788 68.93114814136604 68.86962094854422 68.8388573521333 68.77733015931148 68.71580296648965 68.68503937007873 68.62351217725691 68.50045779161326 68.43893059879143 68.3774034059696 68.31587621314777 68.22358542391504 68.10053103827138 67.97747665262773 67.88518586339498 67.76213147775132 67.7006042849295 67.63907709210767 67.54678630287492 67.45449551364219 67.2699139351767 67.14685954953305 66.99304156747849 66.80845998901299 66.68540560336935 66.47006042849296 66.31624244643838 66.10089727156199 65.82402490386376 65.63944332539828 65.39333455411096 65.14722578282365 64.96264420435817 64.59348104742722 64.50119025819447 64.19355429408533 63.88591832997619 63.63980955868888 63.30140999816883 62.96301043764878 62.59384728071782 62.347738509430506 62.101629738143195 61.64017579197949 61.42483061710309 61.17872184581578 60.80955868888482 60.62497711041934 60.378868339132026 60.1019959714338 59.94817798937923 59.64054202527009 59.48672404321553 59.30214246475004 58.99450650064091 58.809924922175426 58.59457974729903 58.37923457242263 58.19465299395715 57.88701702984801 57.48709027650613 57.27174510162973 57.056399926753336 56.87181834828786 56.441127998535066 56.25654642006958 56.01043764878227 55.61051089544039 55.30287493133125 55.087529756454856 54.68760300311298 54.47225782823658 54.10309467130563 53.70316791796374 53.3955319538546 53.057132393334555 52.65720563999267 52.38033327229445 52.0419337117744 51.64200695843252 51.33437099432338 51.05749862662516 50.78062625892693 50.442226698406884 50.10382713788683 49.79619117377769 49.51931880607947 49.30397363120308 49.119392052737595 48.81175608862846 48.62717451016297 48.25801135323201 47.98113898553378 47.765793810657385 47.519685039370074 47.33510346090459 47.1197582860282 46.84288591832997 46.68906793627541 46.442959164988096 46.25837758652261 45.950741622413474 45.61234206189343 45.24317890496246 44.90477934444241 44.59714338033327 44.50485259110053 44.25874381981322 44.10492583775865 43.828053470060425 43.70499908441677 43.581944698773114 43.39736312030763 43.24354513825307 43.18201794543124 42.99743636696576 42.72056399926753 42.47445522798022 42.197582860282 41.9822376854056 41.61307452847464 41.27467496795458 40.96703900384545 40.690166636147225 40.47482146127083 40.136421900750776 39.85954953305256 39.644204358176154 39.24427760483428 38.93664164072514 38.81358725508149 38.53671488738326 38.35213330891778 38.075260941219554 37.67533418787768 37.42922541659037 37.152353048892145 36.87548068119392 36.752426295550265 36.26020875297564 36.13715436733199 35.86028199963376 35.52188243911371 35.30653726423732 35.029664896539096 34.75279252884087 34.629738143197216 34.537447353964474 34.475920161142646 34.35286577549899 34.229811389855335 34.137520600622594 33.983702618568024 33.829884636513455 33.67606665445889 33.614539461637065 33.49148507599341 33.33766709393884 33.214612708295185 33.09155832265153 32.968503937007874 32.87621314777513 32.75315876213148 32.63010437648782 32.53781358725508 32.44552279802234 32.3532320087896 32.29170481596777 32.23017762314594 32.1378868339132 32.07635964109137 32.014832448269544 31.95330525544772 31.891778062625892 31.830250869804065 31.768723676982237 31.70719648416041 31.676432887749495 31.676432887749495 31.64566929133858 31.614905694927668 31.584142098516754 31.55337850210584 31.491851309284012 31.461087712873102 31.399560520051274 31.307269730818533 31.184215345174877 31.12268815235305 31.030397363120308 30.938106573887566 30.87657938106574 30.784288591832997 30.691997802600255 30.630470609778428 30.5689434169566 30.507416224134772 30.445889031312948 30.353598242080206 30.261307452847465 30.169016663614723 30.13825306720381 30.045962277971068 30.015198681560154 29.953671488738326 29.8921442959165 29.83061710309467 29.799853506683757 29.799853506683757 29.799853506683757 29.769089910272843 29.769089910272843 29.769089910272843 29.73832631386193 29.6767991210401 29.646035524629188 29.58450833180736 29.553744735396446 29.49221754257462 29.461453946163708 29.461453946163708 29.461453946163708 29.430690349752794 29.430690349752794 29.39992675334188 29.39992675334188 29.39992675334188 29.39992675334188 29.39992675334188 29.369163156930966 29.369163156930966 29.369163156930966 29.338399560520052 29.338399560520052 29.338399560520052 29.338399560520052 29.30763596410914 29.30763596410914 29.30763596410914 29.30763596410914 29.30763596410914 29.30763596410914 29.276872367698225 29.276872367698225 29.24610877128731 29.24610877128731 29.24610877128731 29.215345174876397 29.215345174876397 29.184581578465483 29.184581578465483 29.184581578465483 29.15381798205457 29.15381798205457 29.123054385643655 29.09229078923274 29.061527192821828 29.061527192821828 29.061527192821828 29.061527192821828 29.030763596410914 29.030763596410914 29.030763596410914 29.061527192821828 29.030763596410914 29.030763596410914 29.030763596410914 29.030763596410914 29.030763596410914 29.030763596410914 29.030763596410914 29.030763596410914 29.030763596410914 29.030763596410914 29.030763596410914 29.030763596410914 29.030763596410914 29.030763596410914 29.030763596410914 29.030763596410914 29.030763596410914 29.030763596410914 29.030763596410914 29.030763596410914 29.030763596410914 29.0 29.030763596410914 29.0 29.0 29.0 29.0 28.969236403589086 28.969236403589086 28.969236403589086 28.969236403589086 28.938472807178172 28.938472807178172 28.938472807178172 28.938472807178172 28.938472807178172 28.90770921076726 28.90770921076726 28.90770921076726 28.90770921076726 28.90770921076726 28.90770921076726 28.90770921076726 28.90770921076726 28.90770921076726 28.90770921076726 28.90770921076726 28.90770921076726 28.90770921076726 28.90770921076726 28.90770921076726 28.876945614356345 28.876945614356345 28.876945614356345 28.876945614356345 28.876945614356345 28.876945614356345 28.876945614356345 28.84618201794543 28.84618201794543 28.84618201794543 28.84618201794543 28.84618201794543 28.84618201794543 28.84618201794543 28.84618201794543 28.84618201794543 28.84618201794543 28.84618201794543 28.84618201794543 28.84618201794543 28.84618201794543 28.84618201794543 28.84618201794543 28.84618201794543 28.84618201794543 28.84618201794543 28.84618201794543 28.84618201794543 28.84618201794543 28.84618201794543 28.84618201794543 28.84618201794543 28.84618201794543 28.84618201794543 28.84618201794543 28.84618201794543 28.84618201794543 28.84618201794543 28.84618201794543 28.84618201794543 28.84618201794543 28.84618201794543 28.84618201794543 28.84618201794543 28.84618201794543 28.84618201794543 28.815418421534517 28.84618201794543 28.84618201794543 28.84618201794543 28.815418421534517 28.84618201794543 28.815418421534517 28.815418421534517 28.815418421534517 28.815418421534517 28.815418421534517 28.815418421534517 28.815418421534517 28.815418421534517 28.815418421534517 28.815418421534517 28.815418421534517 28.815418421534517 28.815418421534517 28.815418421534517 28.815418421534517 28.815418421534517 28.815418421534517 28.815418421534517 28.815418421534517 28.815418421534517 28.815418421534517 28.815418421534517 28.815418421534517 28.815418421534517 28.815418421534517 28.815418421534517 28.815418421534517 28.815418421534517 28.815418421534517 28.784654825123603 28.815418421534517 28.815418421534517 28.784654825123603 28.784654825123603 28.784654825123603 28.784654825123603 28.784654825123603 28.75389122871269 28.75389122871269 28.75389122871269 28.75389122871269 28.723127632301775 28.723127632301775 28.723127632301775 28.723127632301775 28.69236403589086 28.69236403589086 28.69236403589086 28.69236403589086 28.69236403589086 28.69236403589086 28.69236403589086 28.69236403589086 28.69236403589086 28.69236403589086 28.661600439479948 28.661600439479948 28.661600439479948 28.661600439479948 28.661600439479948 28.661600439479948 28.661600439479948 28.661600439479948 28.661600439479948 28.661600439479948 28.661600439479948 28.661600439479948 28.630836843069034 28.661600439479948 28.630836843069034 28.630836843069034 28.630836843069034 28.630836843069034 28.630836843069034 28.630836843069034 28.630836843069034 28.630836843069034 28.630836843069034 28.630836843069034 28.630836843069034 28.630836843069034 28.630836843069034 28.630836843069034 28.630836843069034 28.630836843069034 28.630836843069034 28.630836843069034 28.630836843069034 28.630836843069034 28.630836843069034 28.60007324665812 28.60007324665812 28.630836843069034 28.60007324665812 28.630836843069034 28.60007324665812 28.60007324665812 28.60007324665812 28.630836843069034 28.630836843069034 28.60007324665812 28.630836843069034 28.630836843069034 28.630836843069034 28.630836843069034 28.60007324665812 28.60007324665812 28.630836843069034 28.60007324665812 28.630836843069034 28.630836843069034 28.60007324665812 28.630836843069034 28.630836843069034 28.630836843069034 28.60007324665812 28.630836843069034 28.630836843069034 28.60007324665812 28.60007324665812 28.60007324665812 28.630836843069034 28.60007324665812 28.630836843069034 28.60007324665812 28.60007324665812 28.60007324665812 28.630836843069034 28.60007324665812 28.60007324665812 28.630836843069034 28.60007324665812 28.60007324665812 28.630836843069034 28.60007324665812 28.60007324665812 28.60007324665812 28.60007324665812 28.60007324665812 28.60007324665812 28.60007324665812 28.60007324665812 28.60007324665812 28.60007324665812 28.60007324665812 28.630836843069034 28.60007324665812 28.60007324665812 28.60007324665812 28.60007324665812 28.60007324665812 28.60007324665812 28.60007324665812 28.60007324665812 28.60007324665812 28.60007324665812 28.60007324665812 28.60007324665812 28.60007324665812 28.60007324665812 28.60007324665812 28.60007324665812 28.60007324665812 28.60007324665812 28.60007324665812 28.60007324665812 28.60007324665812 28.60007324665812 28.60007324665812 28.60007324665812 28.60007324665812 28.60007324665812 28.60007324665812 28.60007324665812 28.60007324665812 28.60007324665812 28.60007324665812 28.60007324665812 28.60007324665812 28.60007324665812 28.60007324665812 28.60007324665812 28.60007324665812 28.60007324665812 28.60007324665812 28.60007324665812 28.60007324665812 28.60007324665812 28.60007324665812 28.60007324665812 28.60007324665812 28.60007324665812 28.60007324665812 28.60007324665812 28.60007324665812 28.60007324665812 28.60007324665812 28.60007324665812 28.60007324665812 28.60007324665812 28.60007324665812 28.60007324665812 28.60007324665812 28.60007324665812 28.60007324665812 28.60007324665812 28.60007324665812 28.60007324665812 28.60007324665812 28.60007324665812 28.60007324665812 28.60007324665812 28.60007324665812 28.60007324665812 28.60007324665812 28.60007324665812 28.60007324665812 28.630836843069034 28.60007324665812 28.60007324665812 28.60007324665812 28.60007324665812 28.60007324665812 28.60007324665812 28.60007324665812 28.60007324665812 28.60007324665812 28.60007324665812 28.60007324665812 28.60007324665812 28.60007324665812 28.60007324665812 28.60007324665812 28.60007324665812 28.60007324665812 28.60007324665812 28.60007324665812 28.60007324665812 28.60007324665812 28.60007324665812 28.60007324665812 28.60007324665812 28.60007324665812 28.60007324665812 28.60007324665812 28.60007324665812 28.60007324665812 28.60007324665812 28.60007324665812 28.60007324665812 28.60007324665812 28.60007324665812 28.60007324665812 28.60007324665812 28.60007324665812 28.60007324665812 28.60007324665812 28.60007324665812 28.60007324665812 28.60007324665812 28.60007324665812 28.60007324665812 28.60007324665812 28.60007324665812 28.60007324665812 28.60007324665812 28.60007324665812 28.60007324665812 28.60007324665812 28.60007324665812 28.60007324665812 28.60007324665812 28.60007324665812 28.60007324665812 28.60007324665812 28.60007324665812 28.60007324665812 28.60007324665812 28.60007324665812 28.60007324665812 28.60007324665812 28.60007324665812 28.60007324665812 28.60007324665812 28.60007324665812 28.60007324665812 28.60007324665812 28.60007324665812 28.60007324665812 28.60007324665812 28.60007324665812 28.60007324665812 28.60007324665812 28.60007324665812 28.60007324665812 28.60007324665812 28.60007324665812 28.60007324665812 28.60007324665812 28.60007324665812 28.60007324665812 28.60007324665812 28.60007324665812 28.60007324665812 28.60007324665812 28.60007324665812 28.60007324665812 28.60007324665812 28.60007324665812 28.60007324665812 28.60007324665812 28.60007324665812 28.60007324665812 28.60007324665812 28.60007324665812 28.60007324665812 28.60007324665812 28.60007324665812 28.60007324665812 28.60007324665812 28.60007324665812 28.60007324665812 28.60007324665812 28.60007324665812 28.60007324665812 28.630836843069034 28.60007324665812 28.60007324665812 28.60007324665812 28.60007324665812 28.60007324665812 28.60007324665812 28.60007324665812 28.60007324665812 28.60007324665812 28.60007324665812 28.60007324665812 28.60007324665812 28.60007324665812 28.60007324665812 28.60007324665812 28.60007324665812 28.60007324665812 28.60007324665812 28.60007324665812 28.60007324665812 28.60007324665812 28.60007324665812 28.60007324665812 28.60007324665812 28.60007324665812 28.60007324665812 28.60007324665812 28.60007324665812 28.60007324665812 28.60007324665812 28.60007324665812 28.60007324665812 28.60007324665812 28.60007324665812 28.60007324665812 28.60007324665812 28.60007324665812 28.60007324665812 28.60007324665812 28.60007324665812 28.60007324665812 28.60007324665812 28.60007324665812 28.60007324665812 28.60007324665812 28.60007324665812 28.60007324665812 28.60007324665812 28.60007324665812 28.60007324665812 28.60007324665812 28.60007324665812 28.60007324665812 28.60007324665812 28.60007324665812 28.60007324665812 28.60007324665812 28.60007324665812 28.60007324665812 28.60007324665812 28.60007324665812 28.60007324665812 28.60007324665812 28.60007324665812 28.60007324665812 28.60007324665812 28.60007324665812 28.60007324665812 28.60007324665812 28.60007324665812 28.60007324665812 28.60007324665812 28.60007324665812 28.60007324665812 28.60007324665812 28.60007324665812 28.60007324665812 28.60007324665812 28.60007324665812 28.60007324665812 28.60007324665812 28.60007324665812 28.60007324665812 28.60007324665812 28.60007324665812 28.60007324665812 28.60007324665812 28.60007324665812 28.60007324665812 28.60007324665812 28.60007324665812 28.60007324665812 28.60007324665812 28.569309650247206 28.60007324665812 28.569309650247206 28.60007324665812 28.60007324665812 28.569309650247206 28.569309650247206 28.569309650247206 28.60007324665812 28.569309650247206 28.569309650247206 28.60007324665812 28.569309650247206 28.569309650247206 28.60007324665812 28.569309650247206 28.60007324665812 28.569309650247206 28.569309650247206 28.569309650247206 28.569309650247206 28.569309650247206 28.569309650247206 28.569309650247206 28.569309650247206 28.569309650247206 28.569309650247206 28.569309650247206 28.538546053836292 28.538546053836292 28.538546053836292 28.538546053836292 28.538546053836292 28.538546053836292 28.538546053836292 28.538546053836292 28.569309650247206 28.538546053836292 28.538546053836292 28.538546053836292 28.538546053836292 28.538546053836292 28.538546053836292 28.538546053836292 28.538546053836292 28.538546053836292 28.538546053836292 28.538546053836292 28.538546053836292 28.538546053836292 28.569309650247206 28.538546053836292 28.538546053836292 28.538546053836292 28.538546053836292 28.538546053836292 28.538546053836292 28.538546053836292 28.538546053836292 28.538546053836292 28.538546053836292 28.538546053836292 28.538546053836292 28.538546053836292 28.538546053836292 28.538546053836292 28.538546053836292 28.538546053836292 28.538546053836292 28.538546053836292 28.538546053836292 28.538546053836292 28.538546053836292 28.538546053836292 28.538546053836292 28.538546053836292 28.538546053836292 28.538546053836292 28.538546053836292 28.538546053836292 28.538546053836292 28.538546053836292 28.538546053836292 28.538546053836292 28.538546053836292 28.538546053836292 28.538546053836292 28.538546053836292 28.538546053836292 28.538546053836292 28.538546053836292 28.538546053836292 28.538546053836292 28.538546053836292 28.538546053836292 28.538546053836292 28.538546053836292 28.538546053836292 28.538546053836292 28.538546053836292 28.538546053836292 28.538546053836292 28.538546053836292 28.538546053836292 28.538546053836292 28.538546053836292 28.538546053836292 28.538546053836292 28.538546053836292 28.538546053836292 28.538546053836292 28.538546053836292 28.538546053836292 28.538546053836292 28.538546053836292 28.538546053836292 28.538546053836292 28.538546053836292 28.538546053836292 28.538546053836292 28.538546053836292 28.538546053836292 28.538546053836292 28.538546053836292 28.538546053836292 28.538546053836292 28.538546053836292 28.538546053836292 28.538546053836292 28.538546053836292 28.538546053836292 28.538546053836292 28.538546053836292 28.538546053836292 28.538546053836292 28.538546053836292 28.538546053836292 28.538546053836292 28.538546053836292 28.538546053836292 28.538546053836292 28.538546053836292 28.538546053836292 28.538546053836292 28.538546053836292 28.538546053836292 28.538546053836292 28.538546053836292 28.538546053836292 28.538546053836292 28.538546053836292 28.538546053836292 28.538546053836292 28.538546053836292 28.538546053836292 28.538546053836292 28.538546053836292 28.538546053836292 28.538546053836292 28.538546053836292 28.538546053836292 28.538546053836292 28.538546053836292 28.538546053836292 28.538546053836292 28.538546053836292 28.538546053836292 28.538546053836292 28.538546053836292 28.538546053836292 28.538546053836292 28.538546053836292 28.538546053836292 28.538546053836292 28.538546053836292 28.538546053836292 28.538546053836292 28.538546053836292 28.538546053836292 28.538546053836292 28.538546053836292 28.538546053836292 28.538546053836292 28.538546053836292 28.538546053836292 28.538546053836292 28.538546053836292 28.538546053836292 28.538546053836292 28.50778245742538 28.538546053836292 28.50778245742538 28.50778245742538 28.50778245742538 28.50778245742538 28.538546053836292 28.50778245742538 28.50778245742538 28.50778245742538 28.50778245742538 28.538546053836292 28.50778245742538 28.538546053836292 28.538546053836292 28.538546053836292 28.538546053836292 28.538546053836292 28.538546053836292 28.538546053836292 28.538546053836292 28.538546053836292 28.569309650247206 28.538546053836292 28.569309650247206 28.569309650247206 28.569309650247206 28.60007324665812 28.60007324665812 28.630836843069034 28.630836843069034 28.69236403589086 28.723127632301775 28.75389122871269 28.815418421534517 28.876945614356345 29.030763596410914 29.123054385643655 29.184581578465483 29.24610877128731 29.430690349752794 29.615271928218274 29.707562717451015 29.799853506683757 29.953671488738326 30.13825306720381 30.29207104925838 30.38436183849112 30.47665262772386 30.5689434169566 30.66123420618934 30.72276139901117 30.87657938106574 30.999633766709394 31.06116095953122 31.153451748763963 31.184215345174877 31.245742537996705 31.338033327229446 31.430324116462188 31.584142098516754 31.737960080571323 31.891778062625892 32.1378868339132 32.32246841237868 32.53781358725508 32.660867972898735 32.84544955136422 33.09155832265153 33.368430690349754 33.614539461637065 34.01446621497894 34.26057498626625 34.56821095037539 34.8143197216627 35.06042849295001 35.64493682475737 36.106390770921074 36.41402673503021 36.84471708478301 37.152353048892145 37.61380699505585 38.075260941219554 38.413660501739606 38.90587804431423 39.367331990477936 39.70573155099798 40.16718549716169 40.50558505768174 41.05932979307819 41.36696575718733 41.61307452847464 42.013001281816514 42.38216443874748 42.68980040285662 42.99743636696576 43.366599523896724 43.67423548800586 43.981871452114994 44.10492583775865 44.50485259110053 44.781724958798755 45.05859732649698 45.36623329060612 45.70463285112616 45.91997802600257 46.196850393700785 46.41219556857718 46.71983153268632 46.93517670756272 47.24281267167186 47.5812122321919 47.85808459989013 48.165720563999265 48.473356528108404 48.719465299395715 49.027101263504846 49.24244643838125 49.673136788134045 49.980772752243176 50.19611792711957 50.4729902948178 50.74986266251602 50.87291704815968 51.211316608679724 51.457425379967034 51.703534151254345 51.98040651895257 52.19575169382897 52.503387657938106 52.84178721845816 53.057132393334555 53.364768357443694 53.610877128731005 53.826222303607395 54.072331074894706 54.34920344259293 54.59531221388024 54.77989379234572 54.9644753708112 55.24134773850943 55.425929316974916 55.85661966672771 56.16425563083684 56.41036440212415 56.68723676982238 57.02563633034242 57.240981505218826 57.61014466214979 57.88701702984801 58.28694378318989 58.68687053653177 59.025270097051816 59.425196850393704 59.91741439296832 60.16352316425563 60.47115912836477 60.71726789965207 61.02490386376122 61.36330342428126 61.701702984801315 62.009338948910454 62.19392052737594 62.5630836843069 62.716901666361466 62.901483244826956 63.024537630470604 63.30140999816883 63.424464383812484 63.670573155099795 63.73210034792162 63.916681926387106 64.1012635048526 64.25508148690716 64.40889946896172 64.5627174510163 64.71653543307087 64.87035341512544 64.99340780076909 65.2395165720564 65.39333455411096 65.51638893975462 65.7009705182201 65.9163156930965 66.03937007874015 66.28547885002746 66.43929683208202 66.71616919978025 66.80845998901299 66.96227797106756 67.17762314594395 67.39296832082036 67.57754989928584 67.76213147775132 67.91594945980589 68.10053103827138 68.28511261673685 68.40816700238051 68.56198498443507 68.68503937007873 68.77733015931148 68.8388573521333 68.90038454495513 68.96191173777697 69.05420252700969 69.11572971983153 69.17725691265336 69.23878410547519 69.33107489470792 69.36183849111885 69.45412928035158 69.57718366599524 69.63871085881706 69.73100164804981 69.82329243728255 69.85405603369347 69.88481963010437 69.91558322651528 69.91558322651528 69.91558322651528 69.91558322651528 69.91558322651528 69.91558322651528 69.91558322651528 69.91558322651528 69.91558322651528 69.91558322651528 69.91558322651528 69.91558322651528 69.91558322651528 69.91558322651528 69.91558322651528 69.91558322651528 69.91558322651528 69.91558322651528 69.91558322651528 69.91558322651528 69.91558322651528 69.9463468229262 69.91558322651528 69.91558322651528 69.91558322651528 69.91558322651528 69.91558322651528 69.91558322651528 69.91558322651528 69.91558322651528 69.91558322651528 69.91558322651528 69.91558322651528 69.91558322651528 69.91558322651528 69.91558322651528 69.91558322651528 69.88481963010437 69.88481963010437 69.88481963010437 69.88481963010437 69.85405603369347 69.88481963010437 69.85405603369347 69.88481963010437 69.85405603369347 69.85405603369347 69.85405603369347 69.82329243728255 69.82329243728255 69.82329243728255 69.82329243728255 69.79252884087163 69.79252884087163 69.79252884087163 69.79252884087163 69.73100164804981 69.73100164804981 69.66947445522797 69.63871085881706 69.60794726240616 69.57718366599524 69.54642006958431 69.51565647317341 69.4848928767625 69.45412928035158 69.42336568394066 69.42336568394066 69.39260208752975 69.39260208752975 69.36183849111885 69.36183849111885 69.33107489470792 69.33107489470792 69.33107489470792 69.300311298297 69.23878410547519 69.23878410547519 69.20802050906427 69.20802050906427 69.20802050906427 69.20802050906427 69.14649331624244 69.11572971983153 69.05420252700969 69.02343893059879 68.99267533418788 68.90038454495513 68.8388573521333 68.77733015931148 68.71580296648965 68.65427577366782 68.62351217725691 68.56198498443507 68.56198498443507 68.53122138802416 68.53122138802416 68.53122138802416 68.53122138802416 68.53122138802416 68.50045779161326 68.43893059879143 68.40816700238051 68.3466398095587 68.28511261673685 68.22358542391504 68.19282182750412 68.1620582310932 68.13129463468229 68.06976744186046 68.03900384544954 67.94671305621681 67.91594945980589 67.88518586339498 67.85442226698407 67.82365867057315 67.79289507416223 67.76213147775132 67.76213147775132 67.76213147775132 67.73136788134042 67.73136788134042 67.66984068851858 67.63907709210767 67.60831349569676 67.57754989928584 67.54678630287492 67.48525911005311 67.45449551364219 67.42373191723127 67.39296832082036 67.39296832082036 67.36220472440945 67.36220472440945 67.33144112799853 67.33144112799853 67.30067753158761 67.2699139351767 67.30067753158761 67.30067753158761 67.30067753158761 67.2699139351767 67.2699139351767 67.30067753158761 67.2699139351767 67.2699139351767 67.2699139351767 67.2391503387658 67.20838674235489 67.17762314594395 67.14685954953305 67.11609595312214 67.08533235671122 67.05456876030031 67.02380516388939 67.02380516388939 66.99304156747849 66.99304156747849 66.99304156747849 66.99304156747849 66.99304156747849 66.99304156747849 66.99304156747849 66.99304156747849 66.99304156747849 66.99304156747849 66.99304156747849 66.99304156747849 66.99304156747849 66.99304156747849 66.99304156747849 66.99304156747849 66.99304156747849 66.99304156747849 66.99304156747849 66.99304156747849 66.96227797106756 66.90075077824574 66.86998718183483 66.86998718183483 66.83922358542392 66.80845998901299 66.80845998901299 66.77769639260208 66.80845998901299 66.80845998901299 66.80845998901299 66.80845998901299 66.80845998901299 66.80845998901299 66.80845998901299 66.80845998901299 66.80845998901299 66.80845998901299 66.80845998901299 66.77769639260208 66.80845998901299 66.80845998901299 66.80845998901299 66.77769639260208 66.74693279619117 66.71616919978025 66.68540560336935 66.65464200695843 66.65464200695843 66.65464200695843 66.65464200695843 66.68540560336935 66.65464200695843 66.65464200695843 66.65464200695843 66.65464200695843 66.68540560336935 66.65464200695843 66.68540560336935 66.68540560336935 66.68540560336935 66.68540560336935 66.68540560336935 66.68540560336935 66.68540560336935 66.68540560336935 66.68540560336935 66.68540560336935 66.68540560336935 66.68540560336935 66.68540560336935 66.68540560336935 66.68540560336935 66.68540560336935 66.68540560336935 66.68540560336935 66.68540560336935 66.68540560336935 66.68540560336935 66.68540560336935 66.71616919978025 66.71616919978025 66.74693279619117 66.74693279619117 66.77769639260208 66.77769639260208 66.77769639260208 66.80845998901299 66.80845998901299 66.80845998901299 66.80845998901299 66.80845998901299 66.80845998901299 66.80845998901299 66.83922358542392 66.83922358542392 66.83922358542392 66.80845998901299 66.83922358542392 66.83922358542392 66.83922358542392 66.83922358542392 66.83922358542392 66.83922358542392 66.83922358542392 66.83922358542392 66.83922358542392 66.83922358542392 66.83922358542392 66.83922358542392 66.83922358542392 66.83922358542392 66.80845998901299 66.83922358542392 66.80845998901299 66.83922358542392 66.83922358542392 66.80845998901299 66.80845998901299 66.83922358542392 66.80845998901299 66.83922358542392 66.83922358542392 66.83922358542392 66.83922358542392 66.80845998901299 66.83922358542392 66.83922358542392 66.83922358542392 66.83922358542392 66.83922358542392 66.80845998901299 66.83922358542392 66.83922358542392 66.83922358542392 66.83922358542392 66.80845998901299 66.80845998901299 66.77769639260208 66.71616919978025 66.68540560336935 66.62387841054752 66.56235121772569 66.50082402490386 66.40853323567111 66.31624244643838 66.25471525361655 66.1624244643838 66.07013367515107 65.97784288591834 65.88555209668559 65.76249771104193 65.60867972898737 65.48562534334371 65.36257095770006 65.27028016846731 65.0549349935909 64.90111701153634 64.77806262589269 64.5627174510163 64.37813587255081 64.28584508331807 64.1012635048526 63.94744552279802 63.73210034792162 63.516755173045226 63.36293719099066 63.11682841970335 62.83995605200513 62.65537447353964 62.255447720197765 62.009338948910454 61.76323017762314 61.51712140633583 61.27101263504852 60.994140267350296 60.47115912836477 60.19428676066654 59.94817798937923 59.732832814502835 59.48672404321553 59.24061527192821 59.025270097051816 58.563816150888115 58.22541659036806 57.97930781908075 57.6409082585607 57.4255630836843 57.02563633034242 56.656473173411456 56.441127998535066 56.0719648416041 55.70280168467313 55.45669291338582 55.05676616004395 54.7183665995239 54.34920344259293 54.072331074894706 53.826222303607395 53.42629555026552 53.057132393334555 52.78026002563632 52.257278886650795 51.91887932613075 51.64200695843252 51.39589818714521 51.18055301226882 50.81138985533785 50.380699505585056 50.16535433070866 49.888481963010435 49.642373191723124 49.334737227613985 48.99633766709394 48.780992492217536 48.473356528108404 48.25801135323201 47.98113898553378 47.70426661783556 47.519685039370074 47.18128547885003 46.93517670756272 46.84288591832997 46.596777147042665 46.41219556857718 46.07379600805713 45.70463285112616 45.45852407983885 45.24317890496246 44.99707013367515 44.90477934444241 44.59714338033327 44.35103460904596 44.074162241347736 43.7665262772386 43.5511811023622 43.18201794543124 42.8743819813221 42.62827321003479 42.22834645669291 41.92071049258377 41.58231093206372 41.243911371543675 40.936275407434536 40.536348654092656 40.01336751510712 39.82878593664164 39.428859183299764 39.15198681560154 38.59824208020509 38.19831532686321 37.921442959164985 37.58304339864493 37.24464383812489 37.09082585607032 36.72166269913935 36.47555392785204 36.1679179637429 35.86028199963376 35.61417322834646 35.30653726423732 34.99890130012818 34.75279252884087 34.41439296832082 34.19904779344442 34.01446621497894 33.829884636513455 33.64530305804798 33.49148507599341 33.368430690349754 33.18384911188427 33.060794726240616 32.93774034059696 32.72239516572056 32.59934078007691 32.47628639443325 32.29170481596777 32.19941402673503 32.04559604468046 31.891778062625892 31.79948727339315 31.70719648416041 31.64566929133858 31.614905694927668 31.55337850210584 31.55337850210584 31.522614905694926 31.491851309284012 31.461087712873102 31.430324116462188 31.430324116462188 31.399560520051274 31.36879692364036 31.338033327229446 31.27650613440762 31.245742537996705 31.184215345174877 31.06116095953122 30.999633766709394 30.96887017029848 30.907342977476652 30.87657938106574 30.81505218824391 30.72276139901117 30.691997802600255 30.599707013367514 30.538179820545686 30.47665262772386 30.38436183849112 30.322834645669293 30.169016663614723 30.045962277971068 29.922907892327412 29.861380699505585 29.799853506683757 29.799853506683757 29.769089910272843 29.769089910272843 29.73832631386193 29.707562717451015 29.707562717451015 29.6767991210401 29.615271928218274 29.615271928218274 29.553744735396446 29.553744735396446 29.522981138985532 29.522981138985532 29.49221754257462 29.49221754257462 29.461453946163708 29.461453946163708 29.461453946163708 29.430690349752794 29.39992675334188 29.39992675334188 29.39992675334188 29.39992675334188 29.369163156930966 29.338399560520052 29.338399560520052 29.338399560520052 29.338399560520052 29.30763596410914 29.30763596410914 29.276872367698225 29.276872367698225 29.24610877128731 29.24610877128731 29.215345174876397 29.215345174876397 29.184581578465483 29.184581578465483 29.184581578465483 29.184581578465483 29.184581578465483 29.184581578465483 29.15381798205457 29.184581578465483 29.184581578465483 29.184581578465483 29.15381798205457 29.184581578465483 29.184581578465483 29.15381798205457 29.15381798205457 29.15381798205457 29.15381798205457 29.15381798205457 29.15381798205457 29.15381798205457 29.123054385643655 29.123054385643655 29.123054385643655 29.123054385643655 29.123054385643655 29.123054385643655 29.09229078923274 29.09229078923274 29.09229078923274 29.061527192821828 29.030763596410914 29.030763596410914 29.0 29.0 28.969236403589086 28.938472807178172 28.938472807178172 28.90770921076726 28.90770921076726 28.876945614356345 28.90770921076726 28.876945614356345 28.876945614356345 28.876945614356345 28.876945614356345 28.876945614356345 28.876945614356345 28.876945614356345 28.84618201794543 28.84618201794543 28.84618201794543 28.84618201794543 28.84618201794543 28.84618201794543 28.815418421534517 28.84618201794543 28.84618201794543 28.815418421534517 28.815418421534517 28.815418421534517 28.84618201794543 28.815418421534517 28.815418421534517 28.815418421534517 28.815418421534517 28.815418421534517 28.815418421534517 28.815418421534517 28.815418421534517 28.815418421534517 28.815418421534517 28.815418421534517 28.815418421534517 28.815418421534517 28.815418421534517 28.815418421534517 28.815418421534517 28.815418421534517 28.815418421534517 28.815418421534517 28.815418421534517 28.815418421534517 28.815418421534517 28.815418421534517 28.815418421534517 28.815418421534517 28.815418421534517 28.815418421534517 28.815418421534517 28.815418421534517 28.815418421534517 28.815418421534517 28.815418421534517 28.815418421534517 28.815418421534517 28.815418421534517 28.815418421534517 28.815418421534517 28.815418421534517 28.815418421534517 28.815418421534517 28.784654825123603 28.815418421534517 28.815418421534517 28.815418421534517 28.784654825123603 28.815418421534517 28.784654825123603 28.815418421534517 28.815418421534517 28.784654825123603 28.784654825123603 28.815418421534517 28.784654825123603 28.784654825123603 28.815418421534517 28.784654825123603 28.784654825123603 28.784654825123603 28.815418421534517 28.784654825123603 28.784654825123603 28.784654825123603 28.784654825123603 28.784654825123603 28.784654825123603 28.784654825123603 28.784654825123603 28.784654825123603 28.75389122871269 28.75389122871269 28.75389122871269 28.75389122871269 28.75389122871269 28.75389122871269 28.723127632301775 28.75389122871269 28.75389122871269 28.75389122871269 28.75389122871269 28.723127632301775 28.75389122871269 28.723127632301775 28.75389122871269 28.75389122871269 28.75389122871269 28.723127632301775 28.723127632301775 28.75389122871269 28.723127632301775 28.723127632301775 28.75389122871269 28.75389122871269 28.723127632301775 28.723127632301775 28.75389122871269 28.723127632301775 28.723127632301775 28.723127632301775 28.723127632301775 28.723127632301775 28.723127632301775 28.723127632301775 28.723127632301775 28.723127632301775 28.723127632301775 28.723127632301775 28.723127632301775 28.723127632301775 28.723127632301775 28.723127632301775 28.723127632301775 28.723127632301775 28.723127632301775 28.723127632301775 28.723127632301775 28.723127632301775 28.723127632301775 28.723127632301775 28.723127632301775 28.723127632301775 28.723127632301775 28.723127632301775 28.723127632301775 28.723127632301775 28.723127632301775 28.723127632301775 28.723127632301775 28.723127632301775 28.723127632301775 28.69236403589086 28.69236403589086 28.69236403589086 28.723127632301775 28.723127632301775 28.69236403589086 28.69236403589086 28.69236403589086 28.723127632301775 28.69236403589086 28.69236403589086 28.69236403589086 28.69236403589086 28.723127632301775 28.69236403589086 28.69236403589086 28.69236403589086 28.69236403589086 28.69236403589086 28.69236403589086 28.69236403589086 28.69236403589086 28.69236403589086 28.69236403589086 28.69236403589086 28.69236403589086 28.69236403589086 28.69236403589086 28.661600439479948 28.69236403589086 28.661600439479948 28.69236403589086 28.661600439479948 28.661600439479948 28.661600439479948 28.661600439479948 28.661600439479948 28.661600439479948 28.661600439479948 28.661600439479948 28.661600439479948 28.661600439479948 28.661600439479948 28.661600439479948 28.661600439479948 28.661600439479948 28.661600439479948 28.661600439479948 28.661600439479948 28.661600439479948 28.661600439479948 28.661600439479948 28.661600439479948 28.661600439479948 28.661600439479948 28.661600439479948 28.661600439479948 28.661600439479948 28.661600439479948 28.661600439479948 28.661600439479948 28.661600439479948 28.661600439479948 28.661600439479948 28.661600439479948 28.661600439479948 28.661600439479948 28.661600439479948 28.661600439479948 28.661600439479948 28.661600439479948 28.661600439479948 28.661600439479948 28.661600439479948 28.661600439479948 28.661600439479948 28.661600439479948 28.661600439479948 28.661600439479948 28.661600439479948 28.661600439479948 28.661600439479948 28.661600439479948 28.661600439479948 28.661600439479948 28.661600439479948 28.661600439479948 28.661600439479948 28.661600439479948 28.661600439479948 28.661600439479948 28.661600439479948 28.661600439479948 28.661600439479948 28.661600439479948 28.661600439479948 28.661600439479948 28.661600439479948 28.661600439479948 28.661600439479948 28.630836843069034 28.661600439479948 28.661600439479948 28.661600439479948 28.661600439479948 28.661600439479948 28.661600439479948 28.661600439479948 28.661600439479948 28.661600439479948 28.661600439479948 28.661600439479948 28.661600439479948 28.661600439479948 28.661600439479948 28.661600439479948 28.661600439479948 28.661600439479948 28.661600439479948 28.661600439479948 28.661600439479948 28.661600439479948 28.630836843069034 28.661600439479948 28.661600439479948 28.661600439479948 28.630836843069034 28.630836843069034 28.661600439479948 28.661600439479948 28.630836843069034 28.661600439479948 28.661600439479948 28.661600439479948 28.661600439479948 28.661600439479948 28.661600439479948 28.661600439479948 28.630836843069034 28.661600439479948 28.630836843069034 28.630836843069034 28.630836843069034 28.630836843069034 28.630836843069034 28.630836843069034 28.630836843069034 28.630836843069034 28.630836843069034 28.630836843069034 28.630836843069034 28.60007324665812 28.60007324665812 28.60007324665812 28.60007324665812 28.60007324665812 28.60007324665812 28.60007324665812 28.60007324665812 28.60007324665812 28.569309650247206 28.569309650247206 28.60007324665812 28.60007324665812 28.569309650247206 28.60007324665812 28.60007324665812 28.569309650247206 28.569309650247206 28.569309650247206 28.569309650247206 28.569309650247206 28.569309650247206 28.569309650247206 28.569309650247206 28.569309650247206 28.569309650247206 28.538546053836292 28.569309650247206 28.538546053836292 28.538546053836292 28.538546053836292 28.538546053836292 28.538546053836292 28.538546053836292 28.538546053836292 28.538546053836292 28.538546053836292 28.538546053836292 28.538546053836292 28.538546053836292 28.538546053836292 28.538546053836292 28.538546053836292 28.538546053836292 28.538546053836292 28.538546053836292 28.538546053836292 28.50778245742538 28.538546053836292 28.538546053836292 28.538546053836292 28.538546053836292 28.538546053836292 28.538546053836292 28.50778245742538 28.538546053836292 28.538546053836292 28.50778245742538 28.50778245742538 28.538546053836292 28.538546053836292 28.538546053836292 28.538546053836292 28.50778245742538 28.538546053836292 28.538546053836292 28.538546053836292 28.50778245742538 28.538546053836292 28.538546053836292 28.538546053836292 28.538546053836292 28.538546053836292 28.538546053836292 28.50778245742538 28.50778245742538 28.538546053836292 28.538546053836292 28.538546053836292 28.50778245742538 28.538546053836292 28.50778245742538 28.50778245742538 28.538546053836292 28.50778245742538 28.50778245742538 28.538546053836292 28.50778245742538 28.538546053836292 28.538546053836292 28.50778245742538 28.50778245742538 28.50778245742538 28.50778245742538 28.538546053836292 28.50778245742538 28.50778245742538 28.50778245742538 28.50778245742538 28.50778245742538 28.50778245742538 28.50778245742538 28.50778245742538 28.50778245742538 28.50778245742538 28.50778245742538 28.477018861014468 28.477018861014468 28.477018861014468 28.477018861014468 28.477018861014468 28.477018861014468 28.446255264603554 28.477018861014468 28.477018861014468 28.477018861014468 28.446255264603554 28.446255264603554 28.477018861014468 28.477018861014468 28.477018861014468 28.477018861014468 28.446255264603554 28.477018861014468 28.446255264603554 28.446255264603554 28.446255264603554 28.446255264603554 28.446255264603554 28.446255264603554 28.446255264603554 28.446255264603554 28.446255264603554 28.446255264603554 28.446255264603554 28.446255264603554 28.477018861014468 28.446255264603554 28.446255264603554 28.446255264603554 28.446255264603554 28.446255264603554 28.446255264603554 28.446255264603554 28.446255264603554 28.446255264603554 28.446255264603554 28.446255264603554 28.477018861014468 28.446255264603554 28.446255264603554 28.446255264603554 28.446255264603554 28.446255264603554 28.446255264603554 28.446255264603554 28.446255264603554 28.446255264603554 28.446255264603554 28.446255264603554 28.446255264603554 28.446255264603554 28.446255264603554 28.446255264603554 28.446255264603554 28.446255264603554 28.446255264603554 28.446255264603554 28.446255264603554 28.446255264603554 28.446255264603554 28.446255264603554 28.446255264603554 28.446255264603554 28.446255264603554 28.446255264603554 28.446255264603554 28.446255264603554 28.446255264603554 28.446255264603554 28.446255264603554 28.446255264603554 28.446255264603554 28.446255264603554 28.446255264603554 28.446255264603554 28.446255264603554 28.446255264603554 28.446255264603554 28.446255264603554 28.446255264603554 28.446255264603554 28.446255264603554 28.446255264603554 28.446255264603554 28.446255264603554 28.446255264603554 28.446255264603554 28.446255264603554 28.446255264603554 28.446255264603554 28.446255264603554 28.446255264603554 28.446255264603554 28.446255264603554 28.446255264603554 28.446255264603554 28.446255264603554 28.446255264603554 28.446255264603554 28.446255264603554 28.446255264603554 28.446255264603554 28.446255264603554 28.446255264603554 28.446255264603554 28.446255264603554 28.446255264603554 28.446255264603554 28.446255264603554 28.446255264603554 28.446255264603554 28.446255264603554 28.446255264603554 28.446255264603554 28.446255264603554 28.446255264603554 28.446255264603554 28.446255264603554 28.446255264603554 28.446255264603554 28.446255264603554 28.446255264603554 28.446255264603554 28.446255264603554 28.446255264603554 28.446255264603554 28.446255264603554 28.446255264603554 28.446255264603554 28.446255264603554 28.446255264603554 28.446255264603554 28.446255264603554 28.41549166819264 28.41549166819264 28.446255264603554 28.446255264603554 28.41549166819264 28.446255264603554 28.41549166819264 28.446255264603554 28.41549166819264 28.446255264603554 28.446255264603554 28.446255264603554 28.446255264603554 28.446255264603554 28.41549166819264 28.41549166819264 28.446255264603554 28.41549166819264 28.41549166819264 28.446255264603554 28.446255264603554 28.41549166819264 28.446255264603554 28.446255264603554 28.446255264603554 28.446255264603554 28.446255264603554 28.446255264603554 28.446255264603554 28.41549166819264 28.446255264603554 28.446255264603554 28.446255264603554 28.41549166819264 28.446255264603554 28.41549166819264 28.446255264603554 28.41549166819264 28.446255264603554 28.446255264603554 28.41549166819264 28.446255264603554 28.446255264603554 28.446255264603554 28.446255264603554 28.446255264603554 28.446255264603554 28.446255264603554 28.446255264603554 28.446255264603554 28.446255264603554 28.446255264603554 28.446255264603554 28.446255264603554 28.446255264603554 28.446255264603554 28.41549166819264 28.446255264603554 28.41549166819264 28.446255264603554 28.446255264603554 28.446255264603554 28.41549166819264 28.446255264603554 28.446255264603554 28.41549166819264 28.446255264603554 28.446255264603554 28.41549166819264 28.446255264603554 28.446255264603554 28.446255264603554 28.446255264603554 28.446255264603554 28.41549166819264 28.41549166819264 28.446255264603554 28.446255264603554 28.41549166819264 28.446255264603554 28.41549166819264 28.446255264603554 28.41549166819264 28.446255264603554 28.446255264603554 28.41549166819264 28.41549166819264 28.41549166819264 28.446255264603554 28.41549166819264 28.446255264603554 28.41549166819264 28.41549166819264 28.446255264603554 28.446255264603554 28.446255264603554 28.446255264603554 28.41549166819264 28.41549166819264 28.41549166819264 28.41549166819264 28.41549166819264 28.446255264603554 28.41549166819264 28.41549166819264 28.41549166819264 28.41549166819264 28.446255264603554 28.446255264603554 28.41549166819264 28.41549166819264 28.446255264603554 28.41549166819264 28.41549166819264 28.41549166819264 28.446255264603554 28.446255264603554 28.446255264603554 28.41549166819264 28.41549166819264 28.41549166819264 28.41549166819264 28.41549166819264 28.41549166819264 28.41549166819264 28.41549166819264 28.446255264603554 28.41549166819264 28.41549166819264 28.41549166819264 28.41549166819264 28.41549166819264 28.41549166819264 28.446255264603554 28.446255264603554 28.41549166819264 28.41549166819264 28.41549166819264 28.41549166819264 28.446255264603554 28.41549166819264 28.446255264603554 28.446255264603554 28.41549166819264 28.41549166819264 28.446255264603554 28.446255264603554 28.41549166819264 28.41549166819264 28.41549166819264 28.446255264603554 28.446255264603554 28.41549166819264 28.41549166819264 28.41549166819264 28.41549166819264 28.41549166819264 28.41549166819264 28.41549166819264 28.446255264603554 28.41549166819264 28.41549166819264 28.41549166819264 28.41549166819264 28.41549166819264 28.41549166819264 28.41549166819264 28.41549166819264 28.41549166819264 28.41549166819264 28.446255264603554 28.446255264603554 28.41549166819264 28.41549166819264 28.446255264603554 28.446255264603554 28.41549166819264 28.41549166819264 28.446255264603554 28.446255264603554 28.446255264603554 28.446255264603554 28.446255264603554 28.446255264603554 28.446255264603554 28.446255264603554 28.446255264603554 28.446255264603554 28.446255264603554 28.477018861014468 28.477018861014468 28.477018861014468 28.50778245742538 28.50778245742538 28.477018861014468 28.50778245742538 28.538546053836292 28.538546053836292 28.569309650247206 28.60007324665812 28.60007324665812 28.630836843069034 28.661600439479948 28.723127632301775 28.723127632301775 28.75389122871269 28.784654825123603 28.84618201794543 28.938472807178172 28.969236403589086 29.09229078923274 29.15381798205457 29.24610877128731 29.369163156930966 29.522981138985532 29.58450833180736 29.646035524629188 29.707562717451015 29.769089910272843 29.799853506683757 29.861380699505585 29.922907892327412 29.98443508514924 30.045962277971068 30.13825306720381 30.23054385643655 30.29207104925838 30.445889031312948 30.599707013367514 30.753524995422083 30.845815784654825 31.091924555942136 31.307269730818533 31.399560520051274 31.491851309284012 31.584142098516754 31.70719648416041 31.984068851858634 32.168650430324114 32.38399560520051 32.63010437648782 32.814685954953305 33.18384911188427 33.39919428676067 33.67606665445889 33.860648232924376 34.04522981138985 34.35286577549899 34.629738143197216 35.09119208936092 35.39882805347006 35.67570042116829 36.106390770921074 36.598608313495696 36.752426295550265 37.36769822376854 37.73686138069951 38.13678813404138 38.629005676616 38.99816883354697 39.674967954587075 40.044131111518034 40.38253067203809 40.87474821461271 41.3054385643655 41.797656106940124 42.259110053103825 42.78209119208936 43.274308734663975 43.73576268082768 43.92034425929317 44.381798205456874 44.72019776597693 45.3354696941952 45.79692364035891 46.16608679728987 46.62754074345358 47.15052188243911 47.33510346090459 48.011902581944696 48.35030214246475 48.873283281450284 49.39626442043581 49.73466398095587 50.288408716352315 50.995971433803334 51.457425379967034 51.79582494048709 52.16498809741805 52.62644204358176 53.14942318256729 53.48782274308734 54.19538546053836 54.68760300311298 55.11829335286578 55.48745650979674 55.76432887749496 56.13349203442593 56.748763962644205 57.056399926753336 57.39479948727339 57.73319904779344 57.94854422266984 58.28694378318989 58.50228895806629 58.7483977293536 59.025270097051816 59.27137886833913 59.48672404321553 59.70206921809192 