29.0 29.0 29.0 29.0 29.0 29.0 29.0 29.0 28.969236403589086 29.0 29.0 29.0 29.0 29.0 29.0 29.0 29.0 29.0 29.0 28.969236403589086 29.0 29.0 29.0 29.0 29.0 29.0 29.0 29.0 29.0 29.0 29.0 29.0 29.0 29.0 29.0 29.0 29.0 28.969236403589086 29.0 29.0 29.0 29.0 29.0 29.0 29.0 29.0 29.0 29.0 28.969236403589086 29.0 29.0 29.0 29.0 28.969236403589086 28.969236403589086 29.0 29.0 29.0 29.0 29.0 29.0 29.0 29.0 29.0 28.969236403589086 29.0 29.0 29.0 29.0 28.969236403589086 29.0 29.0 29.0 29.0 29.0 29.0 29.0 29.0 29.0 29.0 29.0 29.0 29.0 29.0 29.0 28.969236403589086 29.0 29.0 29.0 29.0 29.0 28.969236403589086 29.0 29.0 29.0 29.0 29.0 29.0 29.0 29.0 29.0 29.0 29.0 29.0 29.0 29.0 29.0 29.0 29.0 29.0 29.0 29.0 29.0 29.0 29.0 29.0 29.0 29.0 29.0 29.0 29.0 29.0 29.0 29.0 29.0 29.0 29.0 29.0 29.0 29.0 29.0 29.0 29.0 29.0 29.0 29.0 29.0 29.0 29.0 29.0 29.0 29.0 28.969236403589086 29.0 29.0 29.0 29.0 29.0 28.969236403589086 29.0 29.0 29.0 29.0 29.0 29.0 28.969236403589086 29.0 29.0 28.969236403589086 29.0 29.0 28.969236403589086 29.0 29.0 29.0 28.969236403589086 29.0 28.969236403589086 29.0 29.0 29.0 29.0 29.0 29.0 29.0 29.0 29.0 29.0 29.0 29.0 29.0 29.0 29.0 29.0 28.969236403589086 29.0 29.0 29.0 29.0 29.0 29.0 28.969236403589086 29.0 29.0 29.0 29.0 29.0 28.969236403589086 29.0 29.0 29.0 29.0 28.969236403589086 29.0 29.0 29.0 29.0 29.0 29.0 29.0 29.0 29.0 29.0 29.0 29.0 29.0 29.0 29.0 29.0 29.0 29.0 29.0 29.0 29.0 29.0 29.0 29.0 29.0 29.0 29.0 28.969236403589086 29.0 29.0 28.969236403589086 29.0 29.0 29.0 29.0 29.0 29.0 29.0 29.0 29.0 29.0 28.969236403589086 29.0 29.0 29.0 29.0 29.0 29.0 29.0 29.0 29.0 29.0 29.0 29.0 29.0 29.0 29.0 28.969236403589086 29.0 29.0 29.0 29.0 29.0 29.0 29.0 29.0 29.0 29.0 29.0 29.0 29.0 29.0 29.0 29.0 29.0 29.0 29.0 29.0 29.0 29.0 29.0 29.0 29.0 28.969236403589086 29.0 29.0 29.0 29.0 29.0 29.0 29.0 29.0 29.0 29.0 29.0 29.0 29.0 29.0 29.0 29.0 29.0 29.0 29.0 29.0 29.0 29.0 29.0 29.0 28.969236403589086 29.0 29.0 29.0 28.969236403589086 29.0 29.0 29.0 29.0 29.0 29.0 29.0 29.0 29.0 29.0 29.0 29.0 29.0 29.0 29.0 29.0 29.0 28.969236403589086 29.0 29.0 29.0 29.0 29.0 29.0 29.0 29.0 29.0 29.0 29.0 29.0 29.0 29.0 29.0 28.969236403589086 29.0 29.0 29.0 28.969236403589086 29.0 29.0 29.0 29.0 29.0 29.0 29.0 29.0 29.0 29.0 29.0 29.0 29.0 28.969236403589086 29.0 29.0 29.0 29.0 29.0 29.0 29.0 29.0 29.0 29.0 29.0 29.0 29.0 29.0 28.969236403589086 29.0 28.969236403589086 29.0 29.0 29.0 29.0 29.0 29.0 29.0 29.0 29.0 29.0 29.0 29.0 29.0 28.969236403589086 29.0 29.0 29.0 29.0 29.0 29.0 29.0 29.0 29.0 29.0 29.0 29.0 29.0 29.0 29.0 29.0 29.0 29.0 29.0 29.0 29.0 29.0 29.0 28.969236403589086 29.0 29.0 29.0 29.0 29.0 29.0 29.0 29.0 29.0 29.0 29.0 29.0 29.0 29.0 29.0 29.0 29.0 29.0 29.0 28.969236403589086 29.0 29.0 29.0 28.969236403589086 29.0 29.0 29.0 29.0 29.0 29.0 29.0 29.0 29.0 29.0 29.0 29.0 29.0 29.0 29.0 29.0 29.0 29.0 29.0 29.0 29.0 29.0 29.0 29.0 29.0 29.0 29.0 29.0 29.0 29.0 28.969236403589086 29.0 29.0 29.0 29.0 29.0 28.969236403589086 28.969236403589086 28.969236403589086 29.0 29.0 29.0 29.0 29.0 29.0 29.0 29.0 29.0 29.0 29.0 29.0 29.0 29.0 28.969236403589086 29.0 29.0 28.969236403589086 29.0 29.0 29.0 29.0 29.0 29.0 29.0 29.0 29.0 28.969236403589086 29.0 29.0 29.0 29.0 29.0 29.0 29.0 29.0 29.0 29.0 29.0 28.969236403589086 29.0 29.0 28.969236403589086 29.0 29.0 29.0 29.0 29.0 29.0 29.0 29.0 29.0 29.0 29.0 29.0 29.0 28.969236403589086 28.969236403589086 29.0 29.0 29.0 29.0 29.0 29.0 28.969236403589086 29.0 29.0 29.030763596410914 29.09229078923274 29.09229078923274 29.123054385643655 29.123054385643655 29.15381798205457 29.184581578465483 29.184581578465483 29.215345174876397 29.24610877128731 29.24610877128731 29.276872367698225 29.30763596410914 29.30763596410914 29.338399560520052 29.39992675334188 29.430690349752794 29.49221754257462 29.553744735396446 29.615271928218274 29.6767991210401 29.73832631386193 29.799853506683757 29.861380699505585 29.922907892327412 30.015198681560154 30.07672587438198 30.107489470792896 30.169016663614723 30.261307452847465 30.29207104925838 30.353598242080206 30.415125434902034 30.47665262772386 30.5689434169566 30.630470609778428 30.72276139901117 30.845815784654825 30.907342977476652 30.999633766709394 31.091924555942136 31.184215345174877 31.27650613440762 31.338033327229446 31.399560520051274 31.461087712873102 31.522614905694926 31.614905694927668 31.737960080571323 31.86101446621498 31.984068851858634 32.1378868339132 32.29170481596777 32.44552279802234 32.568577183665994 32.69163156930965 32.87621314777513 33.060794726240616 33.30690349752793 33.55301226881524 33.829884636513455 34.10675700421168 34.35286577549899 34.629738143197216 34.84508331807361 35.09119208936092 35.36806445705915 35.61417322834646 35.9218091924556 36.22944515656473 36.506317524262954 36.81395348837209 37.02929866324849 37.36769822376854 37.64457059146676 37.9522065555759 38.22907892327412 38.53671488738326 38.75206006225966 39.0596960263688 39.39809558688884 39.76725874381981 40.044131111518034 40.35176707562717 40.6286394433254 40.96703900384545 41.3054385643655 41.64383812488555 41.9822376854056 42.32063724592565 42.68980040285662 43.028199963376665 43.39736312030763 43.7665262772386 44.135689434169564 44.50485259110053 44.90477934444241 45.27394250137337 45.58157846548251 45.91997802600257 46.28914118293353 46.658304339864486 46.965940303973625 47.304339864493684 47.67350302142465 47.98113898553378 48.319538546053835 48.65793810657389 48.99633766709394 49.27321003479216 49.61160959531221 49.888481963010435 50.16535433070866 50.442226698406884 50.688335469694195 50.934444240981506 51.211316608679724 51.457425379967034 51.67277055484343 51.91887932613075 52.13422450100714 52.38033327229445 52.62644204358176 52.84178721845816 53.026368796923634 53.24171397180004 53.45705914667643 53.67240432155283 53.85698590001831 54.0415674784838 54.226149056949275 54.44149423182567 54.626075810291155 54.81065738875664 54.9644753708112 55.11829335286578 55.30287493133125 55.425929316974916 55.61051089544039 55.73356528108405 55.948910455960444 56.10272843801501 56.25654642006958 56.47189159494598 56.656473173411456 56.90258194469877 57.210217908807905 57.39479948727339 57.61014466214979 57.763962644204355 58.010071415491666 58.22541659036806 58.37923457242263 58.59457974729903 58.779161325764505 58.93297930781908 59.117560886284565 59.24061527192821 59.48672404321553 59.60977842885918 59.76359641091375 59.91741439296832 60.1019959714338 60.19428676066654 60.440395531953854 60.56344991759751 60.74803149606299 60.87108588170665 60.994140267350296 61.17872184581578 61.42483061710309 61.547885002746746 61.701702984801315 61.79399377403406 61.97857535249954 62.101629738143195 62.255447720197765 62.44002929866325 62.59384728071782 62.77842885918329 62.93224684123786 63.055301226881525 63.17835561252517 63.36293719099066 63.424464383812484 63.516755173045226 63.578282365867054 63.670573155099795 63.76286394433254 63.85515473356528 63.94744552279802 64.03973631203075 64.1012635048526 64.16279069767441 64.25508148690716 64.34737227613991 64.47042666178355 64.5627174510163 64.65500824024903 64.77806262589269 64.87035341512544 64.99340780076909 65.08569859000184 65.20875297564548 65.33180736128914 65.45486174693279 65.54715253616553 65.73173411463102 65.76249771104193 65.85478850027468 65.94707928950741 66.03937007874015 66.1624244643838 66.22395165720565 66.31624244643838 66.37776963926021 66.43929683208202 66.50082402490386 66.56235121772569 66.65464200695843 66.74693279619117 66.80845998901299 66.86998718183483 66.96227797106756 66.99304156747849 67.08533235671122 67.11609595312214 67.17762314594395 67.2391503387658 67.2391503387658 67.30067753158761 67.33144112799853 67.33144112799853 67.36220472440945 67.36220472440945 67.39296832082036 67.45449551364219 67.48525911005311 67.54678630287492 67.57754989928584 67.60831349569676 67.66984068851858 67.66984068851858 67.7006042849295 67.73136788134042 67.76213147775132 67.79289507416223 67.82365867057315 67.85442226698407 67.88518586339498 67.94671305621681 67.97747665262773 68.00824024903864 68.03900384544954 68.06976744186046 68.06976744186046 68.10053103827138 68.13129463468229 68.13129463468229 68.1620582310932 68.19282182750412 68.22358542391504 68.22358542391504 68.25434902032595 68.25434902032595 68.25434902032595 68.25434902032595 68.25434902032595 68.28511261673685 68.28511261673685 68.25434902032595 68.28511261673685 68.25434902032595 68.25434902032595 68.25434902032595 68.25434902032595 68.25434902032595 68.25434902032595 68.25434902032595 68.25434902032595 68.25434902032595 68.25434902032595 68.25434902032595 68.25434902032595 68.25434902032595 68.28511261673685 68.28511261673685 68.28511261673685 68.28511261673685 68.28511261673685 68.25434902032595 68.25434902032595 68.25434902032595 68.25434902032595 68.28511261673685 68.25434902032595 68.28511261673685 68.25434902032595 68.25434902032595 68.25434902032595 68.25434902032595 68.25434902032595 68.25434902032595 68.25434902032595 68.28511261673685 68.25434902032595 68.25434902032595 68.25434902032595 68.25434902032595 68.25434902032595 68.25434902032595 68.25434902032595 68.25434902032595 68.25434902032595 68.25434902032595 68.25434902032595 68.25434902032595 68.25434902032595 68.25434902032595 68.25434902032595 68.25434902032595 68.25434902032595 68.25434902032595 68.25434902032595 68.25434902032595 68.25434902032595 68.25434902032595 68.25434902032595 68.25434902032595 68.25434902032595 68.25434902032595 68.25434902032595 68.25434902032595 68.25434902032595 68.25434902032595 68.25434902032595 68.25434902032595 68.25434902032595 68.25434902032595 68.25434902032595 68.25434902032595 68.25434902032595 68.25434902032595 68.25434902032595 68.22358542391504 68.25434902032595 68.25434902032595 68.25434902032595 68.25434902032595 68.25434902032595 68.25434902032595 68.22358542391504 68.22358542391504 68.22358542391504 68.22358542391504 68.22358542391504 68.22358542391504 68.22358542391504 68.22358542391504 68.22358542391504 68.22358542391504 68.22358542391504 68.22358542391504 68.22358542391504 68.22358542391504 68.22358542391504 68.22358542391504 68.22358542391504 68.22358542391504 68.22358542391504 68.22358542391504 68.22358542391504 68.22358542391504 68.22358542391504 68.22358542391504 68.22358542391504 68.22358542391504 68.22358542391504 68.22358542391504 68.22358542391504 68.22358542391504 68.22358542391504 68.22358542391504 68.22358542391504 68.22358542391504 68.22358542391504 68.22358542391504 68.22358542391504 68.22358542391504 68.22358542391504 68.22358542391504 68.22358542391504 68.22358542391504 68.22358542391504 68.22358542391504 68.22358542391504 68.22358542391504 68.22358542391504 68.22358542391504 68.22358542391504 68.22358542391504 68.22358542391504 68.22358542391504 68.22358542391504 68.22358542391504 68.22358542391504 68.22358542391504 68.22358542391504 68.22358542391504 68.22358542391504 68.22358542391504 68.22358542391504 68.22358542391504 68.22358542391504 68.22358542391504 68.22358542391504 68.22358542391504 68.22358542391504 68.22358542391504 68.22358542391504 68.22358542391504 68.22358542391504 68.22358542391504 68.22358542391504 68.22358542391504 68.22358542391504 68.22358542391504 68.22358542391504 68.22358542391504 68.19282182750412 68.22358542391504 68.22358542391504 68.22358542391504 68.22358542391504 68.22358542391504 68.22358542391504 68.22358542391504 68.22358542391504 68.19282182750412 68.22358542391504 68.19282182750412 68.22358542391504 68.22358542391504 68.22358542391504 68.22358542391504 68.19282182750412 68.19282182750412 68.22358542391504 68.19282182750412 68.22358542391504 68.22358542391504 68.19282182750412 68.19282182750412 68.19282182750412 68.19282182750412 68.19282182750412 68.19282182750412 68.19282182750412 68.19282182750412 68.19282182750412 68.19282182750412 68.19282182750412 68.22358542391504 68.19282182750412 68.19282182750412 68.1620582310932 68.1620582310932 68.19282182750412 68.19282182750412 68.1620582310932 68.19282182750412 68.1620582310932 68.1620582310932 68.1620582310932 68.1620582310932 68.1620582310932 68.1620582310932 68.1620582310932 68.1620582310932 68.1620582310932 68.19282182750412 68.1620582310932 68.1620582310932 68.1620582310932 68.1620582310932 68.1620582310932 68.1620582310932 68.1620582310932 68.1620582310932 68.1620582310932 68.1620582310932 68.1620582310932 68.1620582310932 68.1620582310932 68.1620582310932 68.1620582310932 68.1620582310932 68.1620582310932 68.1620582310932 68.1620582310932 68.13129463468229 68.13129463468229 68.13129463468229 68.13129463468229 68.10053103827138 68.10053103827138 68.10053103827138 68.10053103827138 68.06976744186046 68.06976744186046 68.03900384544954 68.03900384544954 68.03900384544954 68.03900384544954 68.03900384544954 68.00824024903864 68.00824024903864 67.97747665262773 67.97747665262773 67.94671305621681 67.94671305621681 67.94671305621681 67.94671305621681 67.91594945980589 67.91594945980589 67.88518586339498 67.88518586339498 67.88518586339498 67.85442226698407 67.85442226698407 67.85442226698407 67.82365867057315 67.79289507416223 67.76213147775132 67.73136788134042 67.66984068851858 67.60831349569676 67.57754989928584 67.48525911005311 67.42373191723127 67.30067753158761 67.17762314594395 67.11609595312214 67.02380516388939 66.93151437465664 66.83922358542392 66.71616919978025 66.53158762131477 66.37776963926021 66.25471525361655 66.1316608679729 65.97784288591834 65.85478850027468 65.67020692180918 65.42409815052187 65.30104376487822 65.08569859000184 64.93188060794725 64.77806262589269 64.47042666178355 64.28584508331807 64.07049990844168 63.824391137154365 63.670573155099795 63.4552279802234 63.14759201611426 63.11682841970335 62.901483244826956 62.716901666361466 62.53232008789599 62.31697491301959 62.19392052737594 61.91704815967771 61.73246658121223 61.64017579197949 61.42483061710309 61.27101263504852 60.994140267350296 60.655740706830244 60.440395531953854 60.19428676066654 59.91741439296832 59.79436000732467 59.54825123603735 59.363669657571876 58.99450650064091 58.71763413294268 58.533052554477194 58.25618018677898 57.97930781908075 57.79472624061527 57.54861746932796 57.33327229445156 57.056399926753336 56.748763962644205 56.53341878776781 56.225782823658676 55.82585607031679 55.61051089544039 55.395165720563995 55.149056949276684 54.841420985167545 54.56454861746933 54.25691265336019 54.01080388207288 53.826222303607395 53.580113532320084 53.33400476103277 53.14942318256729 52.9340780076909 52.68796923640359 52.503387657938106 52.257278886650795 52.103460904596226 51.85735213330892 51.61124336202161 51.42666178355613 51.18055301226882 50.96520783739241 50.78062625892693 50.56528108405054 50.380699505585056 50.01153634865409 49.82695477018861 49.61160959531221 49.24244643838125 48.96557407068302 48.780992492217536 48.53488372093023 48.35030214246475 48.104193371177445 47.91961179271196 47.70426661783556 47.45815784654825 47.27357626808276 47.1197582860282 46.93517670756272 46.78135872550815 46.596777147042665 46.442959164988096 46.28914118293353 46.104559604468044 45.85845083318073 45.58157846548251 45.36623329060612 45.181651712140635 45.02783373008606 44.75096136238784 44.59714338033327 44.35103460904596 44.04339864493682 43.88958066288225 43.67423548800586 43.52041750595129 43.274308734663975 43.058963559787585 42.905145577733016 42.68980040285662 42.47445522798022 42.32063724592565 42.105292071049256 41.85918329976195 41.64383812488555 41.459256546420065 41.243911371543675 41.05932979307819 40.87474821461271 40.6286394433254 40.290239882805345 40.07489470792895 39.85954953305256 39.582677165354326 39.428859183299764 39.24427760483428 39.0596960263688 38.8443508514924 38.65976927302692 38.50595129097235 38.321369712506865 38.13678813404138 38.013733748397726 37.82915216993224 37.70609778428859 37.521516205823104 37.33693462735763 37.21388024171397 37.02929866324849 36.78318989196118 36.69089910272844 36.56784471708478 36.444790331441126 36.26020875297564 36.07562717451016 35.89104559604468 35.706464017579194 35.52188243911371 35.46035524629189 35.337300860648234 35.21424647500458 35.029664896539096 34.937374107306354 34.87584691448453 34.8143197216627 34.75279252884087 34.72202893242996 34.69126533601904 34.66050173960813 34.5989745467863 34.50668375755356 34.44515656473173 34.35286577549899 34.26057498626625 34.19904779344442 34.137520600622594 34.075993407800766 34.01446621497894 33.95293902215711 33.922175425746204 33.860648232924376 33.829884636513455 33.76835744369163 33.7068302508698 33.67606665445889 33.64530305804798 33.58377586522615 33.55301226881524 33.460721479582496 33.42995788317158 33.368430690349754 33.33766709393884 33.33766709393884 33.30690349752793 33.30690349752793 33.30690349752793 33.27613990111701 33.2453763047061 33.214612708295185 33.18384911188427 33.18384911188427 33.15308551547336 33.12232191906244 33.12232191906244 33.09155832265153 33.060794726240616 33.060794726240616 33.0300311298297 32.99926753341879 32.93774034059696 32.906976744186046 32.87621314777513 32.814685954953305 32.75315876213148 32.72239516572056 32.660867972898735 32.63010437648782 32.568577183665994 32.507049990844166 32.44552279802234 32.3532320087896 32.32246841237868 32.260941219556855 32.19941402673503 32.1378868339132 32.014832448269544 31.86101446621498 31.79948727339315 31.64566929133858 31.55337850210584 31.491851309284012 31.461087712873102 31.430324116462188 31.430324116462188 31.399560520051274 31.36879692364036 31.36879692364036 31.36879692364036 31.36879692364036 31.36879692364036 31.36879692364036 31.338033327229446 31.338033327229446 31.338033327229446 31.338033327229446 31.338033327229446 31.338033327229446 31.307269730818533 31.307269730818533 31.307269730818533 31.307269730818533 31.307269730818533 31.27650613440762 31.27650613440762 31.27650613440762 31.27650613440762 31.245742537996705 31.245742537996705 31.245742537996705 31.21497894158579 31.184215345174877 31.184215345174877 31.153451748763963 31.12268815235305 31.091924555942136 31.06116095953122 31.06116095953122 31.030397363120308 30.96887017029848 30.907342977476652 30.87657938106574 30.81505218824391 30.784288591832997 30.753524995422083 30.72276139901117 30.691997802600255 30.66123420618934 30.66123420618934 30.630470609778428 30.630470609778428 30.599707013367514 30.599707013367514 30.599707013367514 30.599707013367514 30.599707013367514 30.599707013367514 30.599707013367514 30.599707013367514 30.599707013367514 30.5689434169566 30.5689434169566 30.5689434169566 30.538179820545686 30.538179820545686 30.538179820545686 30.538179820545686 30.538179820545686 30.507416224134772 30.507416224134772 30.507416224134772 30.507416224134772 30.507416224134772 30.507416224134772 30.507416224134772 30.507416224134772 30.507416224134772 30.507416224134772 30.507416224134772 30.47665262772386 30.47665262772386 30.47665262772386 30.47665262772386 30.47665262772386 30.47665262772386 30.47665262772386 30.445889031312948 30.445889031312948 30.445889031312948 30.445889031312948 30.445889031312948 30.445889031312948 30.445889031312948 30.415125434902034 30.415125434902034 30.415125434902034 30.415125434902034 30.415125434902034 30.415125434902034 30.415125434902034 30.415125434902034 30.415125434902034 30.415125434902034 30.415125434902034 30.415125434902034 30.415125434902034 30.38436183849112 30.415125434902034 30.415125434902034 30.38436183849112 30.415125434902034 30.38436183849112 30.38436183849112 30.38436183849112 30.38436183849112 30.38436183849112 30.38436183849112 30.38436183849112 30.38436183849112 30.38436183849112 30.38436183849112 30.38436183849112 30.38436183849112 30.38436183849112 30.38436183849112 30.38436183849112 30.38436183849112 30.38436183849112 30.38436183849112 30.38436183849112 30.38436183849112 30.38436183849112 30.38436183849112 30.38436183849112 30.38436183849112 30.38436183849112 30.38436183849112 30.38436183849112 30.38436183849112 30.38436183849112 30.38436183849112 30.353598242080206 30.38436183849112 30.353598242080206 30.38436183849112 30.38436183849112 30.38436183849112 30.38436183849112 30.38436183849112 30.38436183849112 30.38436183849112 30.353598242080206 30.38436183849112 30.38436183849112 30.38436183849112 30.38436183849112 30.38436183849112 30.353598242080206 30.353598242080206 30.353598242080206 30.353598242080206 30.38436183849112 30.353598242080206 30.38436183849112 30.38436183849112 30.353598242080206 30.353598242080206 30.353598242080206 30.353598242080206 30.353598242080206 30.353598242080206 30.353598242080206 30.353598242080206 30.353598242080206 30.353598242080206 30.353598242080206 30.353598242080206 30.353598242080206 30.353598242080206 30.353598242080206 30.353598242080206 30.353598242080206 30.353598242080206 30.353598242080206 30.353598242080206 30.353598242080206 30.322834645669293 30.353598242080206 30.353598242080206 30.353598242080206 30.353598242080206 30.353598242080206 30.322834645669293 30.353598242080206 30.322834645669293 30.353598242080206 30.322834645669293 30.322834645669293 30.353598242080206 30.353598242080206 30.322834645669293 30.353598242080206 30.353598242080206 30.353598242080206 30.353598242080206 30.353598242080206 30.322834645669293 30.322834645669293 30.353598242080206 30.322834645669293 30.353598242080206 30.322834645669293 30.353598242080206 30.353598242080206 30.322834645669293 30.322834645669293 30.322834645669293 30.353598242080206 30.353598242080206 30.322834645669293 30.322834645669293 30.322834645669293 30.322834645669293 30.322834645669293 30.322834645669293 30.353598242080206 30.322834645669293 30.322834645669293 30.353598242080206 30.322834645669293 30.322834645669293 30.353598242080206 30.322834645669293 30.322834645669293 30.353598242080206 30.353598242080206 30.322834645669293 30.322834645669293 30.353598242080206 30.322834645669293 30.322834645669293 30.353598242080206 30.353598242080206 30.322834645669293 30.322834645669293 30.322834645669293 30.322834645669293 30.322834645669293 30.353598242080206 30.322834645669293 30.322834645669293 30.322834645669293 30.322834645669293 30.322834645669293 30.322834645669293 30.322834645669293 30.322834645669293 30.322834645669293 30.353598242080206 30.353598242080206 30.353598242080206 30.322834645669293 30.322834645669293 30.322834645669293 30.322834645669293 30.353598242080206 30.322834645669293 30.322834645669293 30.353598242080206 30.322834645669293 30.322834645669293 30.322834645669293 30.353598242080206 30.322834645669293 30.322834645669293 30.322834645669293 30.322834645669293 30.353598242080206 30.353598242080206 30.353598242080206 30.322834645669293 30.322834645669293 30.322834645669293 30.322834645669293 30.353598242080206 30.322834645669293 30.322834645669293 30.322834645669293 30.322834645669293 30.322834645669293 30.322834645669293 30.322834645669293 30.353598242080206 30.322834645669293 30.353598242080206 30.322834645669293 30.353598242080206 30.353598242080206 30.322834645669293 30.322834645669293 30.322834645669293 30.322834645669293 30.322834645669293 30.322834645669293 30.322834645669293 30.322834645669293 30.322834645669293 30.322834645669293 30.353598242080206 30.353598242080206 30.322834645669293 30.322834645669293 30.322834645669293 30.322834645669293 30.322834645669293 30.322834645669293 30.322834645669293 30.322834645669293 30.353598242080206 30.322834645669293 30.322834645669293 30.322834645669293 30.322834645669293 30.322834645669293 30.353598242080206 30.322834645669293 30.322834645669293 30.322834645669293 30.322834645669293 30.353598242080206 30.322834645669293 30.322834645669293 30.322834645669293 30.353598242080206 30.322834645669293 30.322834645669293 30.322834645669293 30.322834645669293 30.322834645669293 30.353598242080206 30.322834645669293 30.322834645669293 30.322834645669293 30.322834645669293 30.322834645669293 30.353598242080206 30.353598242080206 30.322834645669293 30.322834645669293 30.322834645669293 30.322834645669293 30.322834645669293 30.322834645669293 30.322834645669293 30.322834645669293 30.322834645669293 30.322834645669293 30.322834645669293 30.322834645669293 30.322834645669293 30.322834645669293 30.322834645669293 30.322834645669293 30.322834645669293 30.322834645669293 30.322834645669293 30.322834645669293 30.322834645669293 30.322834645669293 30.322834645669293 30.322834645669293 30.322834645669293 30.322834645669293 30.322834645669293 30.322834645669293 30.322834645669293 30.322834645669293 30.322834645669293 30.322834645669293 30.322834645669293 30.322834645669293 30.322834645669293 30.322834645669293 30.322834645669293 30.322834645669293 30.322834645669293 30.322834645669293 30.322834645669293 30.322834645669293 30.322834645669293 30.322834645669293 30.322834645669293 30.322834645669293 30.322834645669293 30.322834645669293 30.322834645669293 30.322834645669293 30.322834645669293 30.322834645669293 30.322834645669293 30.322834645669293 30.322834645669293 30.322834645669293 30.322834645669293 30.322834645669293 30.322834645669293 30.322834645669293 30.322834645669293 30.322834645669293 30.322834645669293 30.322834645669293 30.322834645669293 30.322834645669293 30.322834645669293 30.322834645669293 30.322834645669293 30.322834645669293 30.322834645669293 30.322834645669293 30.322834645669293 30.322834645669293 30.322834645669293 30.322834645669293 30.322834645669293 30.322834645669293 30.322834645669293 30.322834645669293 30.322834645669293 30.322834645669293 30.322834645669293 30.322834645669293 30.322834645669293 30.322834645669293 30.322834645669293 30.322834645669293 30.322834645669293 30.322834645669293 30.322834645669293 30.322834645669293 30.322834645669293 30.322834645669293 30.322834645669293 30.322834645669293 30.322834645669293 30.322834645669293 30.322834645669293 30.322834645669293 30.322834645669293 30.322834645669293 30.322834645669293 30.322834645669293 30.322834645669293 30.322834645669293 30.322834645669293 30.322834645669293 30.322834645669293 30.322834645669293 30.322834645669293 30.322834645669293 30.322834645669293 30.322834645669293 30.322834645669293 30.322834645669293 30.322834645669293 30.322834645669293 30.322834645669293 30.322834645669293 30.322834645669293 30.322834645669293 30.322834645669293 30.322834645669293 30.322834645669293 30.322834645669293 30.322834645669293 30.322834645669293 30.322834645669293 30.322834645669293 30.322834645669293 30.322834645669293 30.322834645669293 30.322834645669293 30.322834645669293 30.322834645669293 30.322834645669293 30.322834645669293 30.322834645669293 30.322834645669293 30.322834645669293 30.322834645669293 30.322834645669293 30.322834645669293 30.322834645669293 30.322834645669293 30.322834645669293 30.322834645669293 30.322834645669293 30.322834645669293 30.322834645669293 30.322834645669293 30.322834645669293 30.322834645669293 30.322834645669293 30.322834645669293 30.322834645669293 30.322834645669293 30.322834645669293 30.322834645669293 30.322834645669293 30.322834645669293 30.322834645669293 30.322834645669293 30.322834645669293 30.322834645669293 30.322834645669293 30.322834645669293 30.322834645669293 30.322834645669293 30.322834645669293 30.322834645669293 30.322834645669293 30.322834645669293 30.322834645669293 30.322834645669293 30.322834645669293 30.322834645669293 30.322834645669293 30.322834645669293 30.322834645669293 30.322834645669293 30.322834645669293 30.322834645669293 30.322834645669293 30.322834645669293 30.322834645669293 30.322834645669293 30.322834645669293 30.322834645669293 30.322834645669293 30.322834645669293 30.322834645669293 30.322834645669293 30.322834645669293 30.322834645669293 30.322834645669293 30.322834645669293 30.322834645669293 30.322834645669293 30.322834645669293 30.322834645669293 30.322834645669293 30.322834645669293 30.322834645669293 30.322834645669293 30.322834645669293 30.322834645669293 30.322834645669293 30.322834645669293 30.322834645669293 30.322834645669293 30.322834645669293 30.322834645669293 30.322834645669293 30.322834645669293 30.322834645669293 30.322834645669293 30.322834645669293 30.322834645669293 30.322834645669293 30.322834645669293 30.322834645669293 30.322834645669293 30.322834645669293 30.322834645669293 30.322834645669293 30.322834645669293 30.322834645669293 30.322834645669293 30.322834645669293 30.322834645669293 30.322834645669293 30.322834645669293 30.322834645669293 30.322834645669293 30.322834645669293 30.322834645669293 30.322834645669293 30.322834645669293 30.322834645669293 30.322834645669293 30.322834645669293 30.322834645669293 30.322834645669293 30.322834645669293 30.322834645669293 30.322834645669293 30.322834645669293 30.322834645669293 30.322834645669293 30.322834645669293 30.322834645669293 30.322834645669293 30.322834645669293 30.322834645669293 30.322834645669293 30.322834645669293 30.322834645669293 30.322834645669293 30.322834645669293 30.322834645669293 30.322834645669293 30.322834645669293 30.322834645669293 30.322834645669293 30.322834645669293 30.322834645669293 30.322834645669293 30.322834645669293 30.322834645669293 30.322834645669293 30.322834645669293 30.322834645669293 30.322834645669293 30.322834645669293 30.322834645669293 30.322834645669293 30.322834645669293 30.322834645669293 30.322834645669293 30.322834645669293 30.322834645669293 30.29207104925838 30.322834645669293 30.322834645669293 30.322834645669293 30.322834645669293 30.322834645669293 30.322834645669293 30.322834645669293 30.322834645669293 30.322834645669293 30.322834645669293 30.322834645669293 30.322834645669293 30.322834645669293 30.322834645669293 30.322834645669293 30.322834645669293 30.322834645669293 30.322834645669293 30.322834645669293 30.322834645669293 30.322834645669293 30.322834645669293 30.322834645669293 30.322834645669293 30.322834645669293 30.322834645669293 30.322834645669293 30.322834645669293 30.322834645669293 30.322834645669293 30.322834645669293 30.322834645669293 30.322834645669293 30.322834645669293 30.322834645669293 30.322834645669293 30.29207104925838 30.322834645669293 30.322834645669293 30.322834645669293 30.322834645669293 30.322834645669293 30.322834645669293 30.322834645669293 30.322834645669293 30.322834645669293 30.322834645669293 30.322834645669293 30.322834645669293 30.322834645669293 30.322834645669293 30.322834645669293 30.322834645669293 30.322834645669293 30.322834645669293 30.322834645669293 30.322834645669293 30.322834645669293 30.322834645669293 30.322834645669293 30.322834645669293 30.322834645669293 30.322834645669293 30.322834645669293 30.322834645669293 30.322834645669293 30.322834645669293 30.322834645669293 30.322834645669293 30.322834645669293 30.322834645669293 30.322834645669293 30.322834645669293 30.322834645669293 30.322834645669293 30.322834645669293 30.322834645669293 30.322834645669293 30.322834645669293 30.322834645669293 30.322834645669293 30.322834645669293 30.322834645669293 30.322834645669293 30.322834645669293 30.322834645669293 30.322834645669293 30.322834645669293 30.322834645669293 30.322834645669293 30.322834645669293 30.322834645669293 30.322834645669293 30.322834645669293 30.322834645669293 30.322834645669293 30.322834645669293 30.322834645669293 30.322834645669293 30.322834645669293 30.322834645669293 30.322834645669293 30.322834645669293 30.322834645669293 30.322834645669293 30.322834645669293 30.322834645669293 30.322834645669293 30.322834645669293 30.322834645669293 30.322834645669293 30.322834645669293 30.322834645669293 30.322834645669293 30.322834645669293 30.322834645669293 30.322834645669293 30.322834645669293 30.322834645669293 30.322834645669293 30.322834645669293 30.322834645669293 30.322834645669293 30.322834645669293 30.322834645669293 30.322834645669293 30.322834645669293 30.322834645669293 30.322834645669293 30.322834645669293 30.322834645669293 30.322834645669293 30.322834645669293 30.322834645669293 30.322834645669293 30.322834645669293 30.322834645669293 30.322834645669293 30.322834645669293 30.353598242080206 30.353598242080206 30.38436183849112 30.38436183849112 30.415125434902034 30.415125434902034 30.415125434902034 30.445889031312948 30.47665262772386 30.507416224134772 30.507416224134772 30.538179820545686 30.5689434169566 30.599707013367514 30.630470609778428 30.66123420618934 30.72276139901117 30.784288591832997 30.87657938106574 30.938106573887566 30.999633766709394 31.06116095953122 31.153451748763963 31.245742537996705 31.36879692364036 31.491851309284012 31.584142098516754 31.70719648416041 31.768723676982237 31.79948727339315 31.922541659036806 31.984068851858634 32.04559604468046 32.107123237502286 32.168650430324114 32.29170481596777 32.414759201611425 32.507049990844166 32.59934078007691 32.63010437648782 32.72239516572056 32.84544955136422 32.99926753341879 33.060794726240616 33.060794726240616 33.2453763047061 33.368430690349754 33.55301226881524 33.860648232924376 33.89141182933528 33.922175425746204 34.16828419703351 34.35286577549899 34.5989745467863 34.75279252884087 34.99890130012818 35.24501007141549 35.491118842702804 35.67570042116829 35.952572788866505 36.1679179637429 36.53708112067387 36.81395348837209 37.060062259659404 37.2754074345358 37.552279802234025 37.767624977110415 38.167551730452296 38.38289690532869 38.69053286943783 38.875114447903314 39.09045962277971 39.39809558688884 39.85954953305256 40.136421900750776 40.444057864859914 40.690166636147225 41.05932979307819 41.36696575718733 41.61307452847464 41.88994689617286 42.16681926387108 42.35140084233657 42.62827321003479 42.84361838491119 43.12049075260941 43.39736312030763 43.612708295184035 43.828053470060425 44.10492583775865 44.25874381981322 44.50485259110053 44.781724958798755 45.05859732649698 45.27394250137337 45.45852407983885 45.82768723676982 46.104559604468044 46.28914118293353 46.56601355063175 46.750595129097235 46.996703900384546 47.24281267167186 47.519685039370074 47.765793810657385 47.95037538912287 48.22724775682109 48.50412012451932 48.65793810657389 48.96557407068302 49.18091924555942 49.365500824024906 49.55008240249039 49.673136788134045 49.888481963010435 50.042299945065004 50.10382713788683 50.2576451199414 50.4729902948178 50.596044680461446 50.78062625892693 50.903680644570585 51.11902581944699 51.33437099432338 51.51895257278886 51.76506134407617 52.0419337117744 52.22651529023988 52.62644204358176 52.87255081486907 53.08789598974546 53.33400476103277 53.54934993590917 54.01080388207288 54.226149056949275 54.44149423182567 54.74913019593481 54.99523896722212 55.395165720563995 55.641274491851306 55.85661966672771 56.13349203442593 56.441127998535066 56.56418238417872 56.90258194469877 57.08716352316425 57.39479948727339 57.6409082585607 57.8562534334371 58.1023622047244 58.44076176524446 58.533052554477194 58.7483977293536 58.90221571140816 59.117560886284565 59.30214246475004 59.45596044680461 59.732832814502835 59.886650796557404 60.00970518220106 60.132759567844715 60.22505035707745 60.34810474272111 60.53268632118659 60.62497711041934 60.74803149606299 60.80955868888482 60.901849478117555 60.96337667093938 61.02490386376122 61.14795824940487 61.27101263504852 61.33253982787035 61.45559421351401 61.51712140633583 61.609412195568574 61.609412195568574 61.64017579197949 61.64017579197949 61.64017579197949 61.6709393883904 61.701702984801315 61.73246658121223 61.76323017762314 61.79399377403406 61.82475737044497 61.855520966855885 61.8862845632668 61.947811756088626 62.04010254532137 62.07086614173228 62.101629738143195 62.16315693096502 62.19392052737594 62.19392052737594 62.22468412378685 62.22468412378685 62.22468412378685 62.22468412378685 62.19392052737594 62.22468412378685 62.22468412378685 62.22468412378685 62.22468412378685 62.22468412378685 62.22468412378685 62.22468412378685 62.22468412378685 62.22468412378685 62.22468412378685 62.22468412378685 62.22468412378685 62.255447720197765 62.28621131660868 62.31697491301959 62.347738509430506 62.37850210584142 62.37850210584142 62.409265702252334 62.409265702252334 62.409265702252334 62.409265702252334 62.44002929866325 62.47079289507416 62.47079289507416 62.50155649148507 62.50155649148507 62.50155649148507 62.53232008789599 62.53232008789599 62.53232008789599 62.53232008789599 62.53232008789599 62.53232008789599 62.53232008789599 62.53232008789599 62.53232008789599 62.53232008789599 62.53232008789599 62.53232008789599 62.53232008789599 62.53232008789599 62.53232008789599 62.53232008789599 62.53232008789599 62.5630836843069 62.59384728071782 62.59384728071782 62.59384728071782 62.62461087712873 62.62461087712873 62.62461087712873 62.65537447353964 62.65537447353964 62.68613806995056 62.68613806995056 62.68613806995056 62.68613806995056 62.68613806995056 62.716901666361466 62.716901666361466 62.68613806995056 62.68613806995056 62.716901666361466 62.68613806995056 62.68613806995056 62.68613806995056 62.68613806995056 62.68613806995056 62.68613806995056 62.68613806995056 62.68613806995056 62.68613806995056 62.68613806995056 62.68613806995056 62.68613806995056 62.68613806995056 62.68613806995056 62.68613806995056 62.68613806995056 62.65537447353964 62.68613806995056 62.68613806995056 62.68613806995056 62.68613806995056 62.68613806995056 62.68613806995056 62.68613806995056 62.68613806995056 62.68613806995056 62.68613806995056 62.68613806995056 62.68613806995056 62.68613806995056 62.68613806995056 62.65537447353964 62.68613806995056 62.68613806995056 62.68613806995056 62.68613806995056 62.68613806995056 62.68613806995056 62.68613806995056 62.65537447353964 62.65537447353964 62.65537447353964 62.65537447353964 62.65537447353964 62.65537447353964 62.65537447353964 62.65537447353964 62.65537447353964 62.65537447353964 62.65537447353964 62.65537447353964 62.65537447353964 62.65537447353964 62.65537447353964 62.65537447353964 62.65537447353964 62.65537447353964 62.65537447353964 62.65537447353964 62.65537447353964 62.65537447353964 62.62461087712873 62.62461087712873 62.62461087712873 62.59384728071782 62.59384728071782 62.59384728071782 62.59384728071782 62.59384728071782 62.59384728071782 62.59384728071782 62.59384728071782 62.59384728071782 62.59384728071782 62.59384728071782 62.59384728071782 62.59384728071782 62.59384728071782 62.59384728071782 62.59384728071782 62.59384728071782 62.59384728071782 62.59384728071782 62.59384728071782 62.59384728071782 62.62461087712873 62.59384728071782 62.59384728071782 62.59384728071782 62.59384728071782 62.59384728071782 62.59384728071782 62.59384728071782 62.59384728071782 62.59384728071782 62.59384728071782 62.59384728071782 62.59384728071782 62.59384728071782 62.5630836843069 62.5630836843069 62.5630836843069 62.5630836843069 62.5630836843069 62.5630836843069 62.5630836843069 62.5630836843069 62.5630836843069 62.5630836843069 62.5630836843069 62.5630836843069 62.5630836843069 62.5630836843069 62.5630836843069 62.5630836843069 62.5630836843069 62.5630836843069 62.5630836843069 62.5630836843069 62.5630836843069 62.53232008789599 62.53232008789599 62.53232008789599 62.53232008789599 62.53232008789599 62.53232008789599 62.50155649148507 62.50155649148507 62.50155649148507 62.47079289507416 62.47079289507416 62.47079289507416 62.47079289507416 62.47079289507416 62.47079289507416 62.44002929866325 62.44002929866325 62.409265702252334 62.409265702252334 62.37850210584142 62.37850210584142 62.347738509430506 62.31697491301959 62.31697491301959 62.31697491301959 62.31697491301959 62.31697491301959 62.28621131660868 62.255447720197765 62.255447720197765 62.22468412378685 62.19392052737594 62.19392052737594 62.19392052737594 62.16315693096502 62.16315693096502 62.16315693096502 62.13239333455411 62.16315693096502 62.13239333455411 62.13239333455411 62.101629738143195 62.13239333455411 62.13239333455411 62.101629738143195 62.101629738143195 62.101629738143195 62.101629738143195 62.07086614173228 62.07086614173228 62.04010254532137 62.04010254532137 62.04010254532137 62.04010254532137 62.009338948910454 62.009338948910454 61.97857535249954 61.97857535249954 61.97857535249954 61.947811756088626 61.91704815967771 61.91704815967771 61.8862845632668 61.855520966855885 61.855520966855885 61.82475737044497 61.82475737044497 61.79399377403406 61.82475737044497 61.82475737044497 61.82475737044497 61.82475737044497 61.82475737044497 61.79399377403406 61.79399377403406 61.79399377403406 61.79399377403406 61.79399377403406 61.79399377403406 61.79399377403406 61.79399377403406 61.76323017762314 61.76323017762314 61.79399377403406 61.76323017762314 61.76323017762314 61.76323017762314 61.76323017762314 61.76323017762314 61.76323017762314 61.73246658121223 61.73246658121223 61.701702984801315 61.701702984801315 61.701702984801315 61.701702984801315 61.701702984801315 61.6709393883904 61.6709393883904 61.64017579197949 61.64017579197949 61.64017579197949 61.609412195568574 61.609412195568574 61.57864859915766 61.57864859915766 61.547885002746746 61.547885002746746 61.547885002746746 61.547885002746746 61.547885002746746 61.51712140633583 61.48635780992492 61.45559421351401 61.42483061710309 61.42483061710309 61.42483061710309 61.42483061710309 61.42483061710309 61.42483061710309 61.39406702069218 61.39406702069218 61.36330342428126 61.30177623145944 61.27101263504852 61.27101263504852 61.20948544222669 61.20948544222669 61.17872184581578 61.14795824940487 61.14795824940487 61.11719465299395 61.086431056583045 61.055667460172124 60.96337667093938 60.932613074528476 60.87108588170665 60.80955868888482 60.686504303241165 60.62497711041934 60.53268632118659 60.40963193554294 60.3173411463102 60.19428676066654 60.00970518220106 59.85588720014648 59.732832814502835 59.579014832448266 59.45596044680461 59.30214246475004 59.117560886284565 58.96374290422999 58.779161325764505 58.563816150888115 58.44076176524446 58.19465299395715 57.94854422266984 57.79472624061527 57.54861746932796 57.39479948727339 57.14869071598608 56.87181834828786 56.62570957700055 56.348837209302324 56.16425563083684 55.948910455960444 55.67203808826222 55.48745650979674 55.05676616004395 54.74913019593481 54.5030214246475 54.16462186412745 53.918513092840136 53.580113532320084 53.33400476103277 52.96484160410181 52.62644204358176 52.31880607947262 52.07269730818531 51.73429774766526 51.51895257278886 51.08826222303607 50.842153451748764 50.596044680461446 50.34993590917414 50.042299945065004 49.82695477018861 49.39626442043581 49.21168284197033 48.873283281450284 48.65793810657389 48.44259293169749 48.13495696758835 47.70426661783556 47.36586705731551 47.08899468961728 46.87364951474089 46.53524995422084 46.196850393700785 45.950741622413474 45.67386925471526 45.36623329060612 45.15088811572972 44.90477934444241 44.72019776597693 44.35103460904596 44.16645303058048 43.95110785570408 43.73576268082768 43.581944698773114 43.39736312030763 43.0897271561985 42.905145577733016 42.68980040285662 42.47445522798022 42.35140084233657 42.105292071049256 41.951474088994686 41.7668925105292 41.55154733565281 41.42849295000916 41.21314777513276 40.997802600256364 40.843984618201794 40.65940303973631 40.50558505768174 40.290239882805345 40.10565830433986 39.95184032228529 39.76725874381981 39.5211499725325 39.428859183299764 39.275041201245195 39.15198681560154 38.90587804431423 38.721296465848745 38.629005676616 38.35213330891778 38.167551730452296 38.04449734480864 37.82915216993224 37.64457059146676 37.459989013001284 37.24464383812489 37.09082585607032 36.84471708478301 36.598608313495696 36.444790331441126 36.1679179637429 36.01409998168833 35.76799121040103 35.583409631935545 35.429591649880976 35.27577366782641 35.183482878593665 35.12195568577184 35.029664896539096 34.937374107306354 34.8143197216627 34.69126533601904 34.5989745467863 34.475920161142646 34.383629371909905 34.32210217908808 34.229811389855335 34.137520600622594 34.04522981138985 33.922175425746204 33.860648232924376 33.79912104010255 33.73759384728072 33.7068302508698 33.64530305804798 33.58377586522615 33.522248672404324 33.49148507599341 33.460721479582496 33.42995788317158 33.39919428676067 33.368430690349754 33.33766709393884 33.30690349752793 33.27613990111701 33.15308551547336 33.12232191906244 33.09155832265153 33.060794726240616 33.0300311298297 32.99926753341879 32.968503937007874 32.906976744186046 32.84544955136422 32.78392235854239 32.69163156930965 32.660867972898735 32.53781358725508 32.507049990844166 32.44552279802234 32.44552279802234 32.44552279802234 32.44552279802234 32.414759201611425 32.414759201611425 32.38399560520051 32.38399560520051 32.3532320087896 32.29170481596777 32.260941219556855 32.19941402673503 32.168650430324114 32.107123237502286 32.04559604468046 31.95330525544772 31.891778062625892 31.891778062625892 31.86101446621498 31.86101446621498 31.86101446621498 31.86101446621498 31.86101446621498 31.86101446621498 31.830250869804065 31.79948727339315 31.768723676982237 31.70719648416041 31.676432887749495 31.614905694927668 31.491851309284012 31.430324116462188 31.399560520051274 31.307269730818533 31.27650613440762 31.21497894158579 31.153451748763963 31.12268815235305 31.06116095953122 31.030397363120308 30.96887017029848 30.907342977476652 30.87657938106574 30.81505218824391 30.753524995422083 30.72276139901117 30.691997802600255 30.66123420618934 30.66123420618934 30.630470609778428 30.630470609778428 30.630470609778428 30.630470609778428 30.630470609778428 30.599707013367514 30.599707013367514 30.599707013367514 30.599707013367514 30.599707013367514 30.599707013367514 30.5689434169566 30.5689434169566 30.5689434169566 30.5689434169566 30.5689434169566 30.5689434169566 30.5689434169566 30.538179820545686 30.538179820545686 30.538179820545686 30.507416224134772 30.507416224134772 30.507416224134772 30.507416224134772 30.507416224134772 30.47665262772386 30.47665262772386 30.445889031312948 30.415125434902034 30.38436183849112 30.353598242080206 30.322834645669293 30.322834645669293 30.29207104925838 30.261307452847465 30.23054385643655 30.199780260025637 30.169016663614723 30.169016663614723 30.13825306720381 30.13825306720381 30.13825306720381 30.13825306720381 30.13825306720381 30.13825306720381 30.13825306720381 30.13825306720381 30.13825306720381 30.13825306720381 30.107489470792896 30.07672587438198 30.07672587438198 30.045962277971068 30.015198681560154 29.98443508514924 29.922907892327412 29.8921442959165 29.861380699505585 29.861380699505585 29.83061710309467 29.83061710309467 29.799853506683757 29.799853506683757 29.799853506683757 29.799853506683757 29.799853506683757 29.799853506683757 29.799853506683757 29.799853506683757 29.799853506683757 29.799853506683757 29.799853506683757 29.799853506683757 29.799853506683757 29.799853506683757 29.769089910272843 29.799853506683757 29.769089910272843 29.769089910272843 29.769089910272843 29.769089910272843 29.769089910272843 29.73832631386193 29.73832631386193 29.73832631386193 29.73832631386193 29.73832631386193 29.707562717451015 29.707562717451015 29.6767991210401 29.6767991210401 29.646035524629188 29.646035524629188 29.646035524629188 29.646035524629188 29.646035524629188 29.646035524629188 29.615271928218274 29.646035524629188 29.646035524629188 29.615271928218274 29.615271928218274 29.615271928218274 29.615271928218274 29.615271928218274 29.58450833180736 29.553744735396446 29.553744735396446 29.553744735396446 29.522981138985532 29.522981138985532 29.522981138985532 29.522981138985532 29.522981138985532 29.522981138985532 29.522981138985532 29.522981138985532 29.522981138985532 29.522981138985532 29.522981138985532 29.522981138985532 29.522981138985532 29.522981138985532 29.522981138985532 29.522981138985532 29.522981138985532 29.522981138985532 29.522981138985532 29.522981138985532 29.522981138985532 29.522981138985532 29.522981138985532 29.522981138985532 29.522981138985532 29.522981138985532 29.522981138985532 29.522981138985532 29.522981138985532 29.522981138985532 29.522981138985532 29.522981138985532 29.522981138985532 29.522981138985532 29.522981138985532 29.522981138985532 29.522981138985532 29.522981138985532 29.522981138985532 29.522981138985532 29.522981138985532 29.522981138985532 29.522981138985532 29.522981138985532 29.522981138985532 29.522981138985532 29.522981138985532 29.522981138985532 29.522981138985532 29.522981138985532 29.522981138985532 29.522981138985532 29.522981138985532 29.522981138985532 29.522981138985532 29.522981138985532 29.49221754257462 29.522981138985532 29.522981138985532 29.522981138985532 29.49221754257462 29.522981138985532 29.49221754257462 29.522981138985532 29.49221754257462 29.522981138985532 29.49221754257462 29.49221754257462 29.49221754257462 29.49221754257462 29.49221754257462 29.49221754257462 29.49221754257462 29.49221754257462 29.49221754257462 29.49221754257462 29.49221754257462 29.49221754257462 29.49221754257462 29.49221754257462 29.49221754257462 29.49221754257462 29.49221754257462 29.49221754257462 29.49221754257462 29.49221754257462 29.461453946163708 29.461453946163708 29.461453946163708 29.461453946163708 29.461453946163708 29.461453946163708 29.461453946163708 29.461453946163708 29.461453946163708 29.461453946163708 29.461453946163708 29.461453946163708 29.461453946163708 29.430690349752794 29.461453946163708 29.461453946163708 29.461453946163708 29.461453946163708 29.461453946163708 29.461453946163708 29.461453946163708 29.461453946163708 29.461453946163708 29.430690349752794 29.461453946163708 29.430690349752794 29.430690349752794 29.461453946163708 29.461453946163708 29.461453946163708 29.461453946163708 29.461453946163708 29.430690349752794 29.461453946163708 29.461453946163708 29.461453946163708 29.461453946163708 29.461453946163708 29.461453946163708 29.461453946163708 29.430690349752794 29.430690349752794 29.461453946163708 29.461453946163708 29.461453946163708 29.461453946163708 29.461453946163708 29.461453946163708 29.461453946163708 29.461453946163708 29.461453946163708 29.430690349752794 29.430690349752794 29.430690349752794 29.461453946163708 29.430690349752794 29.430690349752794 29.430690349752794 29.430690349752794 29.430690349752794 29.430690349752794 29.430690349752794 29.430690349752794 29.430690349752794 29.430690349752794 29.430690349752794 29.430690349752794 29.430690349752794 29.430690349752794 29.430690349752794 29.430690349752794 29.430690349752794 29.430690349752794 29.430690349752794 29.430690349752794 29.430690349752794 29.430690349752794 29.430690349752794 29.430690349752794 29.430690349752794 29.430690349752794 29.430690349752794 29.430690349752794 29.430690349752794 29.430690349752794 29.430690349752794 29.430690349752794 29.430690349752794 29.430690349752794 29.430690349752794 29.430690349752794 29.430690349752794 29.430690349752794 29.430690349752794 29.430690349752794 29.430690349752794 29.430690349752794 29.430690349752794 29.430690349752794 29.39992675334188 29.430690349752794 29.430690349752794 29.430690349752794 29.430690349752794 29.430690349752794 29.430690349752794 29.430690349752794 29.430690349752794 29.430690349752794 29.430690349752794 29.430690349752794 29.39992675334188 29.39992675334188 29.39992675334188 29.430690349752794 29.430690349752794 29.39992675334188 29.430690349752794 29.430690349752794 29.430690349752794 29.39992675334188 29.430690349752794 29.430690349752794 29.430690349752794 29.430690349752794 29.39992675334188 29.430690349752794 29.39992675334188 29.39992675334188 29.430690349752794 29.39992675334188 29.430690349752794 29.430690349752794 29.430690349752794 29.430690349752794 29.39992675334188 29.430690349752794 29.39992675334188 29.39992675334188 29.39992675334188 29.39992675334188 29.39992675334188 29.39992675334188 29.39992675334188 29.39992675334188 29.39992675334188 29.39992675334188 29.39992675334188 29.39992675334188 29.39992675334188 29.39992675334188 29.39992675334188 29.39992675334188 29.39992675334188 29.39992675334188 29.39992675334188 29.39992675334188 29.39992675334188 29.39992675334188 29.39992675334188 29.39992675334188 29.369163156930966 29.369163156930966 29.369163156930966 29.39992675334188 29.369163156930966 29.39992675334188 29.39992675334188 29.369163156930966 29.369163156930966 29.369163156930966 29.369163156930966 29.39992675334188 29.369163156930966 29.369163156930966 29.39992675334188 29.369163156930966 29.369163156930966 29.369163156930966 29.369163156930966 29.369163156930966 29.369163156930966 29.369163156930966 29.369163156930966 29.369163156930966 29.369163156930966 29.369163156930966 29.369163156930966 29.369163156930966 29.369163156930966 29.369163156930966 29.369163156930966 29.369163156930966 29.369163156930966 29.338399560520052 29.369163156930966 29.369163156930966 29.369163156930966 29.338399560520052 29.369163156930966 29.369163156930966 29.369163156930966 29.369163156930966 29.369163156930966 29.369163156930966 29.369163156930966 29.369163156930966 29.369163156930966 29.369163156930966 29.369163156930966 29.369163156930966 29.369163156930966 29.369163156930966 29.369163156930966 29.369163156930966 29.369163156930966 29.369163156930966 29.369163156930966 29.369163156930966 29.369163156930966 29.369163156930966 29.369163156930966 29.369163156930966 29.369163156930966 29.369163156930966 29.369163156930966 29.369163156930966 29.369163156930966 29.338399560520052 29.338399560520052 29.369163156930966 29.369163156930966 29.369163156930966 29.369163156930966 29.369163156930966 29.369163156930966 29.369163156930966 29.369163156930966 29.369163156930966 29.338399560520052 29.369163156930966 29.338399560520052 29.369163156930966 29.338399560520052 29.369163156930966 29.369163156930966 29.369163156930966 29.369163156930966 29.369163156930966 29.338399560520052 29.338399560520052 29.369163156930966 29.338399560520052 29.369163156930966 29.369163156930966 29.369163156930966 29.369163156930966 29.369163156930966 29.338399560520052 29.338399560520052 29.369163156930966 29.369163156930966 29.369163156930966 29.369163156930966 29.369163156930966 29.369163156930966 29.369163156930966 29.338399560520052 29.369163156930966 29.369163156930966 29.369163156930966 29.338399560520052 29.338399560520052 29.338399560520052 29.338399560520052 29.338399560520052 29.338399560520052 29.338399560520052 29.338399560520052 29.338399560520052 29.338399560520052 29.338399560520052 29.338399560520052 29.338399560520052 29.338399560520052 29.338399560520052 29.338399560520052 29.338399560520052 29.338399560520052 29.338399560520052 29.338399560520052 29.338399560520052 29.338399560520052 29.338399560520052 29.338399560520052 29.338399560520052 29.338399560520052 29.338399560520052 29.338399560520052 29.338399560520052 29.338399560520052 29.338399560520052 29.338399560520052 29.338399560520052 29.338399560520052 29.338399560520052 29.338399560520052 29.338399560520052 29.338399560520052 29.338399560520052 29.338399560520052 29.338399560520052 29.338399560520052 29.338399560520052 29.338399560520052 29.338399560520052 29.338399560520052 29.338399560520052 29.338399560520052 29.338399560520052 29.338399560520052 29.338399560520052 29.338399560520052 29.338399560520052 29.338399560520052 29.338399560520052 29.338399560520052 29.338399560520052 29.338399560520052 29.338399560520052 29.338399560520052 29.338399560520052 29.338399560520052 29.338399560520052 29.338399560520052 29.338399560520052 29.338399560520052 29.338399560520052 29.338399560520052 29.338399560520052 29.338399560520052 29.338399560520052 29.338399560520052 29.338399560520052 29.338399560520052 29.338399560520052 29.338399560520052 29.338399560520052 29.338399560520052 29.338399560520052 29.338399560520052 29.338399560520052 29.338399560520052 29.338399560520052 29.338399560520052 29.338399560520052 29.338399560520052 29.338399560520052 29.338399560520052 29.338399560520052 29.338399560520052 29.338399560520052 29.338399560520052 29.338399560520052 29.338399560520052 29.338399560520052 29.338399560520052 29.338399560520052 29.338399560520052 29.338399560520052 29.338399560520052 29.338399560520052 29.338399560520052 29.338399560520052 29.338399560520052 29.338399560520052 29.338399560520052 29.338399560520052 29.338399560520052 29.338399560520052 29.338399560520052 29.338399560520052 29.30763596410914 29.338399560520052 29.338399560520052 29.338399560520052 29.338399560520052 29.338399560520052 29.338399560520052 29.338399560520052 29.338399560520052 29.338399560520052 29.338399560520052 29.338399560520052 29.338399560520052 29.338399560520052 29.338399560520052 29.338399560520052 29.338399560520052 29.338399560520052 29.338399560520052 29.338399560520052 29.338399560520052 29.338399560520052 29.338399560520052 29.338399560520052 29.338399560520052 29.338399560520052 29.338399560520052 29.338399560520052 29.338399560520052 29.338399560520052 29.338399560520052 29.338399560520052 29.338399560520052 29.338399560520052 29.338399560520052 29.338399560520052 29.338399560520052 29.338399560520052 29.338399560520052 29.338399560520052 29.338399560520052 29.338399560520052 29.338399560520052 29.338399560520052 29.338399560520052 29.338399560520052 29.338399560520052 29.338399560520052 29.338399560520052 29.338399560520052 29.338399560520052 29.338399560520052 29.338399560520052 29.338399560520052 29.338399560520052 29.338399560520052 29.338399560520052 29.338399560520052 29.338399560520052 29.338399560520052 29.30763596410914 29.338399560520052 29.338399560520052 29.338399560520052 29.338399560520052 29.338399560520052 29.338399560520052 29.338399560520052 29.30763596410914 29.338399560520052 29.338399560520052 29.338399560520052 29.338399560520052 29.338399560520052 29.338399560520052 29.338399560520052 29.338399560520052 29.338399560520052 29.30763596410914 29.338399560520052 29.338399560520052 29.338399560520052 29.338399560520052 29.338399560520052 29.30763596410914 29.338399560520052 29.30763596410914 29.338399560520052 29.338399560520052 29.338399560520052 29.338399560520052 29.338399560520052 29.338399560520052 29.338399560520052 29.338399560520052 29.338399560520052 29.338399560520052 29.338399560520052 29.338399560520052 29.30763596410914 29.338399560520052 29.338399560520052 29.338399560520052 29.338399560520052 29.338399560520052 29.338399560520052 29.30763596410914 29.338399560520052 29.338399560520052 29.338399560520052 29.338399560520052 29.338399560520052 29.30763596410914 29.30763596410914 29.338399560520052 29.338399560520052 29.338399560520052 29.338399560520052 29.338399560520052 29.30763596410914 29.338399560520052 29.338399560520052 29.338399560520052 29.338399560520052 29.338399560520052 29.338399560520052 29.338399560520052 29.338399560520052 29.30763596410914 29.30763596410914 29.338399560520052 29.338399560520052 29.338399560520052 29.338399560520052 29.338399560520052 29.338399560520052 29.338399560520052 29.338399560520052 29.338399560520052 29.338399560520052 29.338399560520052 29.338399560520052 29.338399560520052 29.338399560520052 29.338399560520052 29.338399560520052 29.338399560520052 29.30763596410914 29.338399560520052 29.338399560520052 29.338399560520052 29.338399560520052 29.338399560520052 29.338399560520052 29.338399560520052 29.338399560520052 29.338399560520052 29.30763596410914 29.338399560520052 29.338399560520052 29.338399560520052 29.30763596410914 29.338399560520052 29.338399560520052 29.338399560520052 29.338399560520052 29.338399560520052 29.338399560520052 29.338399560520052 29.338399560520052 29.338399560520052 29.338399560520052 29.30763596410914 29.338399560520052 29.338399560520052 29.338399560520052 29.338399560520052 29.338399560520052 29.338399560520052 29.338399560520052 29.338399560520052 29.338399560520052 29.338399560520052 29.338399560520052 29.338399560520052 29.338399560520052 29.338399560520052 29.338399560520052 29.338399560520052 29.338399560520052 29.369163156930966 29.39992675334188 29.461453946163708 29.522981138985532 29.522981138985532 29.58450833180736 29.615271928218274 29.707562717451015 29.73832631386193 29.83061710309467 29.8921442959165 29.98443508514924 30.015198681560154 30.07672587438198 30.23054385643655 30.29207104925838 30.415125434902034 30.538179820545686 30.599707013367514 30.691997802600255 30.753524995422083 30.784288591832997 30.87657938106574 30.938106573887566 30.999633766709394 31.06116095953122 31.12268815235305 31.21497894158579 31.245742537996705 31.338033327229446 31.430324116462188 31.522614905694926 31.614905694927668 31.737960080571323 31.830250869804065 31.95330525544772 32.04559604468046 32.107123237502286 32.3532320087896 32.568577183665994 32.72239516572056 32.968503937007874 33.12232191906244 33.368430690349754 33.64530305804798 33.829884636513455 34.137520600622594 34.475920161142646 34.72202893242996 35.09119208936092 35.337300860648234 35.76799121040103 36.13715436733199 36.444790331441126 36.906244277604834 37.4907526094122 37.82915216993224 38.29060611609595 38.59824208020509 38.875114447903314 39.39809558688884 39.674967954587075 40.290239882805345 40.75169382896905 41.090093389489105 41.5207837392419 41.82841970335103 42.22834645669291 42.68980040285662 42.93590917414393 43.366599523896724 43.64347189159494 44.074162241347736 44.59714338033327 44.874015748031496 45.24317890496246 45.5508148690716 45.79692364035891 46.13532320087896 46.38143197216627 46.84288591832997 47.18128547885003 47.39663065372642 47.765793810657385 48.073429774766524 48.22724775682109 48.59641091375206 48.780992492217536 49.119392052737595 49.427028016846734 49.642373191723124 49.95000915583226 50.380699505585056 50.4729902948178 50.78062625892693 50.995971433803334 51.33437099432338 51.61124336202161 51.826588536898 52.257278886650795 52.56491485075993 52.65720563999267 52.9340780076909 53.118659586156376 53.33400476103277 53.70316791796374 53.826222303607395 54.072331074894706 54.2876762497711 54.41073063541476 54.68760300311298 54.841420985167545 55.026002563633035 55.27211133492034 55.395165720563995 55.61051089544039 55.85661966672771 56.01043764878227 56.225782823658676 56.41036440212415 56.62570957700055 56.841054751876946 56.994872733931516 57.210217908807905 57.517853872917044 57.6409082585607 57.79472624061527 57.917780626258924 58.19465299395715 58.37923457242263 58.563816150888115 58.779161325764505 58.93297930781908 59.117560886284565 59.30214246475004 59.425196850393704 59.60977842885918 59.76359641091375 59.886650796557404 60.00970518220106 60.1019959714338 60.22505035707745 60.34810474272111 60.40963193554294 60.50192272477568 60.62497711041934 60.74803149606299 60.84032228529573 60.932613074528476 61.11719465299395 61.20948544222669 61.30177623145944 61.51712140633583 61.6709393883904 61.76323017762314 61.947811756088626 62.07086614173228 62.255447720197765 62.44002929866325 62.53232008789599 62.68613806995056 62.83995605200513 62.93224684123786 63.055301226881525 63.17835561252517 63.27064640175792 63.39370078740157 63.48599157663431 63.60904596227797 63.70133675151071 63.79362754074345 63.85515473356528 63.916681926387106 63.978209119208934 64.00897271561985 64.03973631203075 64.1320271012635 64.19355429408533 64.22431789049625 64.25508148690716 64.31660867972897 64.34737227613991 64.37813587255081 64.40889946896172 64.47042666178355 64.53195385460538 64.59348104742722 64.65500824024903 64.71653543307087 64.74729902948178 64.80882622230361 64.83958981871451 64.87035341512544 64.90111701153634 64.99340780076909 65.0549349935909 65.08569859000184 65.14722578282365 65.17798937923456 65.2395165720564 65.2395165720564 65.30104376487822 65.36257095770006 65.42409815052187 65.42409815052187 65.48562534334371 65.51638893975462 65.54715253616553 65.57791613257645 65.57791613257645 65.60867972898737 65.63944332539828 65.67020692180918 65.73173411463102 65.76249771104193 65.79326130745284 65.82402490386376 65.85478850027468 65.88555209668559 65.94707928950741 66.00860648232924 66.03937007874015 66.07013367515107 66.1316608679729 66.1624244643838 66.22395165720565 66.25471525361655 66.28547885002746 66.31624244643838 66.3470060428493 66.37776963926021 66.37776963926021 66.40853323567111 66.40853323567111 66.47006042849296 66.47006042849296 66.50082402490386 66.50082402490386 66.50082402490386 66.50082402490386 66.50082402490386 66.50082402490386 66.50082402490386 66.47006042849296 66.47006042849296 66.47006042849296 66.43929683208202 66.43929683208202 66.43929683208202 66.40853323567111 66.40853323567111 66.40853323567111 66.40853323567111 66.37776963926021 66.40853323567111 66.37776963926021 66.40853323567111 66.37776963926021 66.37776963926021 66.37776963926021 66.40853323567111 66.40853323567111 66.37776963926021 66.40853323567111 66.40853323567111 66.40853323567111 66.40853323567111 66.37776963926021 66.37776963926021 66.40853323567111 66.37776963926021 66.40853323567111 66.40853323567111 66.40853323567111 66.37776963926021 66.37776963926021 66.37776963926021 66.40853323567111 66.37776963926021 66.40853323567111 66.40853323567111 66.37776963926021 66.37776963926021 66.40853323567111 66.40853323567111 66.40853323567111 66.40853323567111 66.40853323567111 66.40853323567111 66.37776963926021 66.37776963926021 66.37776963926021 66.37776963926021 66.3470060428493 66.3470060428493 66.31624244643838 66.28547885002746 66.28547885002746 66.25471525361655 66.25471525361655 66.22395165720565 66.22395165720565 66.22395165720565 66.19318806079472 66.19318806079472 66.1624244643838 66.1624244643838 66.1624244643838 66.1624244643838 66.1316608679729 66.1316608679729 66.1316608679729 66.1316608679729 66.1316608679729 66.1316608679729 66.1316608679729 66.1316608679729 66.1316608679729 66.1316608679729 66.1316608679729 66.1316608679729 66.1316608679729 66.1316608679729 66.1316608679729 66.1316608679729 66.1316608679729 66.10089727156199 66.10089727156199 66.10089727156199 66.10089727156199 66.10089727156199 66.07013367515107 66.07013367515107 66.07013367515107 66.10089727156199 66.07013367515107 66.10089727156199 66.07013367515107 66.07013367515107 66.07013367515107 66.07013367515107 66.07013367515107 66.03937007874015 66.00860648232924 66.00860648232924 66.00860648232924 65.97784288591834 65.97784288591834 66.00860648232924 66.00860648232924 66.00860648232924 66.00860648232924 66.00860648232924 66.00860648232924 66.00860648232924 66.00860648232924 66.00860648232924 66.00860648232924 66.00860648232924 65.97784288591834 66.00860648232924 66.00860648232924 66.00860648232924 66.00860648232924 66.00860648232924 65.97784288591834 65.97784288591834 65.97784288591834 65.97784288591834 65.97784288591834 65.97784288591834 65.97784288591834 65.97784288591834 65.97784288591834 65.97784288591834 65.97784288591834 65.97784288591834 65.97784288591834 65.94707928950741 65.9163156930965 65.88555209668559 65.85478850027468 65.85478850027468 65.82402490386376 65.82402490386376 65.82402490386376 65.79326130745284 65.79326130745284 65.76249771104193 65.76249771104193 65.76249771104193 65.76249771104193 65.76249771104193 65.73173411463102 65.73173411463102 65.73173411463102 65.73173411463102 65.7009705182201 65.67020692180918 65.63944332539828 65.60867972898737 65.57791613257645 65.51638893975462 65.48562534334371 65.45486174693279 65.42409815052187 65.45486174693279 65.45486174693279 65.45486174693279 65.42409815052187 65.45486174693279 65.42409815052187 65.45486174693279 65.42409815052187 65.42409815052187 65.42409815052187 65.42409815052187 65.42409815052187 65.42409815052187 65.42409815052187 65.42409815052187 65.42409815052187 65.42409815052187 65.42409815052187 65.39333455411096 65.39333455411096 65.39333455411096 65.36257095770006 65.36257095770006 65.36257095770006 65.36257095770006 65.36257095770006 65.36257095770006 65.36257095770006 65.36257095770006 65.36257095770006 65.36257095770006 65.36257095770006 65.36257095770006 65.36257095770006 65.39333455411096 65.36257095770006 65.36257095770006 65.39333455411096 65.39333455411096 65.39333455411096 65.39333455411096 65.36257095770006 65.39333455411096 65.36257095770006 65.36257095770006 65.39333455411096 65.39333455411096 65.39333455411096 65.39333455411096 65.39333455411096 65.39333455411096 65.39333455411096 65.39333455411096 65.39333455411096 65.39333455411096 65.39333455411096 65.39333455411096 65.39333455411096 65.39333455411096 65.39333455411096 65.39333455411096 65.39333455411096 65.36257095770006 65.36257095770006 65.36257095770006 65.36257095770006 65.36257095770006 65.36257095770006 65.36257095770006 65.36257095770006 65.36257095770006 65.36257095770006 65.33180736128914 65.33180736128914 65.33180736128914 65.30104376487822 65.27028016846731 65.27028016846731 65.2395165720564 65.20875297564548 65.14722578282365 65.08569859000184 65.0549349935909 64.99340780076909 64.90111701153634 64.83958981871451 64.77806262589269 64.71653543307087 64.5627174510163 64.47042666178355 64.40889946896172 64.28584508331807 64.19355429408533 64.07049990844168 63.916681926387106 63.79362754074345 63.670573155099795 63.516755173045226 63.39370078740157 63.239882805347 63.11682841970335 62.83995605200513 62.68613806995056 62.53232008789599 62.28621131660868 62.009338948910454 61.79399377403406 61.36330342428126 61.14795824940487 60.80955868888482 60.56344991759751 60.34810474272111 59.94817798937923 59.45596044680461 59.086797289873644 58.779161325764505 58.50228895806629 58.071598608313494 57.67167185497162 57.302508698040654 56.93334554110969 56.502655191356894 56.225782823658676 55.82585607031679 55.54898370261857 55.21058414209851 54.841420985167545 54.59531221388024 54.25691265336019 53.88774949642922 53.64164072514191 53.303241164621866 52.9340780076909 52.59567844717085 52.34956967588353 52.16498809741805 51.703534151254345 51.39589818714521 51.11902581944699 50.87291704815968 50.65757187328328 50.380699505585056 50.07306354147592 49.888481963010435 49.61160959531221 49.334737227613985 49.1501556491485 48.84251968503936 48.65793810657389 48.35030214246475 48.073429774766524 47.85808459989013 47.550448635780995 47.33510346090459 46.965940303973625 46.68906793627541 46.47372276139901 46.2276139901117 45.950741622413474 45.76616004394799 45.396996887017025 45.181651712140635 44.84325215162058 44.535616187511444 44.28950741622413 43.981871452114994 43.67423548800586 43.48965390954038 43.21278154184215 43.028199963376665 42.78209119208936 42.505218824391136 42.197582860282 41.92071049258377 41.705365317707376 41.55154733565281 41.27467496795458 41.090093389489105 40.75169382896905 40.56711225050357 40.413294268449 40.22871268998352 40.044131111518034 39.921076725874386 39.70573155099798 39.55191356894342 39.33656839406702 39.121223219190625 38.967405237136056 38.78282365867057 38.50595129097235 38.413660501739606 38.22907892327412 38.10602453763047 37.89067936275407 37.70609778428859 37.4907526094122 37.306171030946714 37.152353048892145 37.09082585607032 36.93700787401575 36.81395348837209 36.62937190990661 36.3832631386193 36.22944515656473 36.01409998168833 35.79875480681194 35.61417322834646 35.39882805347006 35.27577366782641 35.06042849295001 34.90661051089544 34.75279252884087 34.5989745467863 34.50668375755356 34.35286577549899 34.26057498626625 34.19904779344442 34.10675700421168 34.04522981138985 33.983702618568024 33.860648232924376 33.79912104010255 33.73759384728072 33.7068302508698 33.67606665445889 33.614539461637065 33.55301226881524 33.522248672404324 33.42995788317158 33.39919428676067 33.33766709393884 33.27613990111701 33.2453763047061 33.18384911188427 33.15308551547336 33.12232191906244 33.09155832265153 33.060794726240616 32.99926753341879 32.93774034059696 32.906976744186046 32.814685954953305 32.72239516572056 32.69163156930965 32.660867972898735 32.63010437648782 32.568577183665994 32.53781358725508 32.507049990844166 32.47628639443325 32.44552279802234 32.414759201611425 32.414759201611425 32.414759201611425 32.38399560520051 32.3532320087896 32.3532320087896 32.32246841237868 32.29170481596777 32.29170481596777 32.260941219556855 32.260941219556855 32.260941219556855 32.260941219556855 32.23017762314594 32.23017762314594 32.19941402673503 32.19941402673503 32.168650430324114 32.168650430324114 32.168650430324114 32.168650430324114 32.1378868339132 32.1378868339132 32.1378868339132 32.1378868339132 32.107123237502286 32.07635964109137 32.014832448269544 31.95330525544772 31.922541659036806 31.86101446621498 31.79948727339315 31.737960080571323 31.676432887749495 31.614905694927668 31.584142098516754 31.491851309284012 31.461087712873102 31.399560520051274 31.36879692364036 31.307269730818533 31.245742537996705 31.153451748763963 31.091924555942136 31.030397363120308 30.999633766709394 30.938106573887566 30.87657938106574 30.81505218824391 30.72276139901117 30.691997802600255 30.599707013367514 30.599707013367514 30.5689434169566 30.5689434169566 30.5689434169566 30.5689434169566 30.538179820545686 30.538179820545686 30.538179820545686 30.507416224134772 30.507416224134772 30.47665262772386 30.47665262772386 30.445889031312948 30.415125434902034 30.415125434902034 30.415125434902034 30.38436183849112 30.38436183849112 30.353598242080206 30.353598242080206 30.353598242080206 30.322834645669293 30.322834645669293 30.29207104925838 30.29207104925838 30.29207104925838 30.261307452847465 30.23054385643655 30.23054385643655 30.199780260025637 30.169016663614723 30.13825306720381 30.107489470792896 30.07672587438198 30.045962277971068 30.015198681560154 29.953671488738326 29.8921442959165 29.8921442959165 29.83061710309467 29.799853506683757 29.769089910272843 29.769089910272843 29.73832631386193 29.73832631386193 29.73832631386193 29.73832631386193 29.73832631386193 29.73832631386193 29.707562717451015 29.707562717451015 29.707562717451015 29.707562717451015 29.73832631386193 29.73832631386193 29.707562717451015 29.707562717451015 29.707562717451015 29.707562717451015 29.6767991210401 29.6767991210401 29.6767991210401 29.6767991210401 29.646035524629188 29.646035524629188 29.6767991210401 29.646035524629188 29.646035524629188 29.646035524629188 29.615271928218274 29.646035524629188 29.615271928218274 29.646035524629188 29.615271928218274 29.615271928218274 29.615271928218274 29.615271928218274 29.615271928218274 29.615271928218274 29.615271928218274 29.615271928218274 29.615271928218274 29.615271928218274 29.615271928218274 29.615271928218274 29.615271928218274 29.615271928218274 29.615271928218274 29.615271928218274 29.615271928218274 29.615271928218274 29.615271928218274 29.615271928218274 29.615271928218274 29.615271928218274 29.615271928218274 29.615271928218274 29.615271928218274 29.615271928218274 29.615271928218274 29.58450833180736 29.615271928218274 29.58450833180736 29.58450833180736 29.58450833180736 29.58450833180736 29.58450833180736 29.58450833180736 29.58450833180736 29.58450833180736 29.58450833180736 29.58450833180736 29.58450833180736 29.58450833180736 29.58450833180736 29.58450833180736 29.553744735396446 29.553744735396446 29.553744735396446 29.553744735396446 29.553744735396446 29.553744735396446 29.553744735396446 29.553744735396446 29.553744735396446 29.553744735396446 29.553744735396446 29.553744735396446 29.553744735396446 29.553744735396446 29.522981138985532 29.553744735396446 29.553744735396446 29.553744735396446 29.553744735396446 29.553744735396446 29.553744735396446 29.553744735396446 29.553744735396446 29.553744735396446 29.553744735396446 29.553744735396446 29.553744735396446 29.553744735396446 29.522981138985532 29.522981138985532 29.522981138985532 29.522981138985532 29.522981138985532 29.522981138985532 29.522981138985532 29.522981138985532 29.522981138985532 29.522981138985532 29.522981138985532 29.522981138985532 29.522981138985532 29.522981138985532 29.522981138985532 29.522981138985532 29.522981138985532 29.522981138985532 29.49221754257462 29.522981138985532 29.49221754257462 29.49221754257462 29.49221754257462 29.49221754257462 29.461453946163708 29.461453946163708 29.461453946163708 29.461453946163708 29.461453946163708 29.430690349752794 29.461453946163708 29.430690349752794 29.430690349752794 29.430690349752794 29.430690349752794 29.430690349752794 29.430690349752794 29.430690349752794 29.461453946163708 29.430690349752794 29.430690349752794 29.430690349752794 29.430690349752794 29.430690349752794 29.430690349752794 29.430690349752794 29.461453946163708 29.461453946163708 29.430690349752794 29.430690349752794 29.430690349752794 29.430690349752794 29.430690349752794 29.430690349752794 29.430690349752794 29.430690349752794 29.430690349752794 29.430690349752794 29.430690349752794 29.430690349752794 29.430690349752794 29.430690349752794 29.430690349752794 29.430690349752794 29.430690349752794 29.430690349752794 29.430690349752794 29.430690349752794 29.430690349752794 29.430690349752794 29.430690349752794 29.430690349752794 29.430690349752794 29.430690349752794 29.430690349752794 29.430690349752794 29.430690349752794 29.430690349752794 29.430690349752794 29.430690349752794 29.430690349752794 29.430690349752794 29.430690349752794 29.430690349752794 29.430690349752794 29.430690349752794 29.430690349752794 29.430690349752794 29.430690349752794 29.430690349752794 29.430690349752794 29.430690349752794 29.430690349752794 29.430690349752794 29.430690349752794 29.430690349752794 29.430690349752794 29.430690349752794 29.430690349752794 29.430690349752794 29.430690349752794 29.430690349752794 29.430690349752794 29.430690349752794 29.430690349752794 29.430690349752794 29.430690349752794 29.430690349752794 29.430690349752794 29.430690349752794 29.430690349752794 29.430690349752794 29.430690349752794 29.430690349752794 29.430690349752794 29.430690349752794 29.430690349752794 29.430690349752794 29.430690349752794 29.430690349752794 29.39992675334188 29.39992675334188 29.430690349752794 29.430690349752794 29.430690349752794 29.430690349752794 29.430690349752794 29.430690349752794 29.39992675334188 29.430690349752794 29.430690349752794 29.39992675334188 29.39992675334188 29.39992675334188 29.39992675334188 29.430690349752794 29.39992675334188 29.430690349752794 29.430690349752794 29.39992675334188 29.430690349752794 29.430690349752794 29.430690349752794 29.39992675334188 29.39992675334188 29.39992675334188 29.430690349752794 29.39992675334188 29.39992675334188 29.39992675334188 29.39992675334188 29.39992675334188 29.39992675334188 29.39992675334188 29.39992675334188 29.39992675334188 29.39992675334188 29.39992675334188 29.430690349752794 29.430690349752794 29.39992675334188 29.39992675334188 29.430690349752794 29.39992675334188 29.39992675334188 29.39992675334188 29.39992675334188 29.39992675334188 29.430690349752794 29.39992675334188 29.39992675334188 29.39992675334188 29.39992675334188 29.39992675334188 29.39992675334188 29.39992675334188 29.39992675334188 29.39992675334188 29.39992675334188 29.39992675334188 29.430690349752794 29.39992675334188 29.39992675334188 29.39992675334188 29.39992675334188 29.39992675334188 29.430690349752794 29.39992675334188 29.39992675334188 29.430690349752794 29.39992675334188 29.39992675334188 29.430690349752794 29.39992675334188 29.39992675334188 29.39992675334188 29.39992675334188 29.39992675334188 29.39992675334188 29.39992675334188 29.39992675334188 29.39992675334188 29.39992675334188 29.430690349752794 29.39992675334188 29.39992675334188 29.39992675334188 29.39992675334188 29.39992675334188 29.39992675334188 29.39992675334188 29.39992675334188 29.39992675334188 29.39992675334188 29.39992675334188 29.39992675334188 29.39992675334188 29.39992675334188 29.39992675334188 29.39992675334188 29.39992675334188 29.39992675334188 29.39992675334188 29.39992675334188 29.39992675334188 29.39992675334188 29.39992675334188 29.39992675334188 29.430690349752794 29.39992675334188 29.39992675334188 29.39992675334188 29.39992675334188 29.39992675334188 29.39992675334188 29.39992675334188 29.39992675334188 29.39992675334188 29.39992675334188 29.39992675334188 29.39992675334188 29.39992675334188 29.39992675334188 29.39992675334188 29.39992675334188 29.39992675334188 29.39992675334188 29.39992675334188 29.39992675334188 29.39992675334188 29.39992675334188 29.39992675334188 29.39992675334188 29.39992675334188 29.39992675334188 29.39992675334188 29.39992675334188 29.39992675334188 29.430690349752794 29.39992675334188 29.39992675334188 29.39992675334188 29.39992675334188 29.39992675334188 29.39992675334188 29.39992675334188 29.39992675334188 29.39992675334188 29.39992675334188 29.39992675334188 29.39992675334188 29.39992675334188 29.39992675334188 29.39992675334188 29.39992675334188 29.39992675334188 29.39992675334188 29.39992675334188 29.39992675334188 29.39992675334188 29.39992675334188 29.39992675334188 29.39992675334188 29.39992675334188 29.39992675334188 29.39992675334188 29.39992675334188 29.39992675334188 29.39992675334188 29.39992675334188 29.39992675334188 29.39992675334188 29.39992675334188 29.39992675334188 29.39992675334188 29.39992675334188 29.369163156930966 29.39992675334188 29.39992675334188 29.39992675334188 29.39992675334188 29.39992675334188 29.39992675334188 29.39992675334188 29.39992675334188 29.39992675334188 29.39992675334188 29.39992675334188 29.39992675334188 29.39992675334188 29.39992675334188 29.39992675334188 29.39992675334188 29.39992675334188 29.39992675334188 29.39992675334188 29.39992675334188 29.39992675334188 29.39992675334188 29.369163156930966 29.39992675334188 29.39992675334188 29.39992675334188 29.39992675334188 29.369163156930966 29.39992675334188 29.39992675334188 29.39992675334188 29.39992675334188 29.369163156930966 29.39992675334188 29.39992675334188 29.39992675334188 29.39992675334188 29.39992675334188 29.369163156930966 29.369163156930966 29.39992675334188 29.39992675334188 29.369163156930966 29.39992675334188 29.369163156930966 29.369163156930966 29.39992675334188 29.39992675334188 29.39992675334188 29.369163156930966 29.39992675334188 29.369163156930966 29.369163156930966 29.39992675334188 29.369163156930966 29.39992675334188 29.369163156930966 29.369163156930966 29.369163156930966 29.369163156930966 29.369163156930966 29.39992675334188 29.369163156930966 29.39992675334188 29.369163156930966 29.369163156930966 29.369163156930966 29.369163156930966 29.369163156930966 29.39992675334188 29.369163156930966 29.39992675334188 29.369163156930966 29.369163156930966 29.369163156930966 29.369163156930966 29.369163156930966 29.369163156930966 29.369163156930966 29.369163156930966 29.369163156930966 29.369163156930966 29.369163156930966 29.369163156930966 29.39992675334188 29.369163156930966 29.369163156930966 29.369163156930966 29.369163156930966 29.369163156930966 29.369163156930966 29.369163156930966 29.369163156930966 29.369163156930966 29.369163156930966 29.369163156930966 29.39992675334188 29.369163156930966 29.369163156930966 29.369163156930966 29.369163156930966 29.369163156930966 29.369163156930966 29.369163156930966 29.369163156930966 29.369163156930966 29.369163156930966 29.369163156930966 29.369163156930966 29.369163156930966 29.369163156930966 29.369163156930966 29.39992675334188 29.369163156930966 29.369163156930966 29.369163156930966 29.369163156930966 29.369163156930966 29.369163156930966 29.369163156930966 29.369163156930966 29.369163156930966 29.369163156930966 29.369163156930966 29.369163156930966 29.369163156930966 29.369163156930966 29.369163156930966 29.369163156930966 29.369163156930966 29.369163156930966 29.369163156930966 29.369163156930966 29.369163156930966 29.369163156930966 29.369163156930966 29.369163156930966 29.369163156930966 29.369163156930966 29.369163156930966 29.369163156930966 29.369163156930966 29.369163156930966 29.369163156930966 29.369163156930966 29.369163156930966 29.369163156930966 29.369163156930966 29.369163156930966 29.369163156930966 29.369163156930966 29.369163156930966 29.369163156930966 29.369163156930966 29.369163156930966 29.369163156930966 29.369163156930966 29.369163156930966 29.369163156930966 29.369163156930966 29.369163156930966 29.369163156930966 29.369163156930966 29.369163156930966 29.369163156930966 29.369163156930966 29.369163156930966 29.369163156930966 29.369163156930966 29.369163156930966 29.369163156930966 29.369163156930966 29.369163156930966 29.369163156930966 29.369163156930966 29.369163156930966 29.369163156930966 29.369163156930966 29.369163156930966 29.369163156930966 29.369163156930966 29.369163156930966 29.369163156930966 29.369163156930966 29.369163156930966 29.369163156930966 29.369163156930966 29.369163156930966 29.369163156930966 29.369163156930966 29.369163156930966 29.369163156930966 29.369163156930966 29.369163156930966 29.369163156930966 29.369163156930966 29.369163156930966 29.369163156930966 29.369163156930966 29.369163156930966 29.369163156930966 29.369163156930966 29.369163156930966 29.369163156930966 29.369163156930966 29.369163156930966 29.369163156930966 29.369163156930966 29.369163156930966 29.369163156930966 29.369163156930966 29.369163156930966 29.369163156930966 29.369163156930966 29.369163156930966 29.369163156930966 29.369163156930966 29.369163156930966 29.369163156930966 29.369163156930966 29.369163156930966 29.369163156930966 29.369163156930966 29.369163156930966 29.369163156930966 29.369163156930966 29.369163156930966 29.369163156930966 29.369163156930966 29.369163156930966 29.369163156930966 29.369163156930966 29.369163156930966 29.369163156930966 29.369163156930966 29.369163156930966 29.369163156930966 29.369163156930966 29.369163156930966 29.369163156930966 29.369163156930966 29.369163156930966 29.369163156930966 29.369163156930966 29.369163156930966 29.369163156930966 29.369163156930966 29.369163156930966 29.369163156930966 29.369163156930966 29.369163156930966 29.369163156930966 29.369163156930966 29.369163156930966 29.369163156930966 29.369163156930966 29.369163156930966 29.369163156930966 29.369163156930966 29.369163156930966 29.369163156930966 29.369163156930966 29.369163156930966 29.369163156930966 29.369163156930966 29.369163156930966 29.369163156930966 29.369163156930966 29.369163156930966 29.369163156930966 29.369163156930966 29.369163156930966 29.369163156930966 29.369163156930966 29.369163156930966 29.369163156930966 29.369163156930966 29.369163156930966 29.369163156930966 29.369163156930966 29.369163156930966 29.369163156930966 29.369163156930966 29.369163156930966 29.369163156930966 29.369163156930966 29.369163156930966 29.369163156930966 29.369163156930966 29.369163156930966 29.369163156930966 29.369163156930966 29.369163156930966 29.369163156930966 29.369163156930966 29.369163156930966 29.369163156930966 29.369163156930966 29.369163156930966 29.369163156930966 29.369163156930966 29.369163156930966 29.369163156930966 29.369163156930966 29.369163156930966 29.369163156930966 29.369163156930966 29.369163156930966 29.369163156930966 29.369163156930966 29.369163156930966 29.369163156930966 29.369163156930966 29.369163156930966 29.369163156930966 29.369163156930966 29.369163156930966 29.369163156930966 29.369163156930966 29.369163156930966 29.369163156930966 29.369163156930966 29.338399560520052 29.338399560520052 29.338399560520052 29.338399560520052 29.338399560520052 29.30763596410914 29.30763596410914 29.30763596410914 29.30763596410914 29.30763596410914 29.30763596410914 29.276872367698225 29.276872367698225 29.276872367698225 29.24610877128731 29.276872367698225 29.24610877128731 29.24610877128731 29.276872367698225 29.276872367698225 29.276872367698225 29.276872367698225 29.24610877128731 29.24610877128731 29.276872367698225 29.276872367698225 29.276872367698225 29.276872367698225 29.276872367698225 29.276872367698225 29.24610877128731 29.276872367698225 29.276872367698225 29.24610877128731 29.24610877128731 29.276872367698225 29.276872367698225 29.276872367698225 29.276872367698225 29.276872367698225 29.276872367698225 29.276872367698225 29.276872367698225 29.30763596410914 29.30763596410914 29.338399560520052 29.369163156930966 29.39992675334188 29.430690349752794 29.430690349752794 29.461453946163708 29.49221754257462 29.49221754257462 29.522981138985532 29.58450833180736 29.58450833180736 29.646035524629188 29.707562717451015 29.73832631386193 29.799853506683757 29.83061710309467 29.8921442959165 29.922907892327412 29.98443508514924 30.045962277971068 30.107489470792896 30.261307452847465 30.38436183849112 30.507416224134772 30.630470609778428 30.72276139901117 30.845815784654825 30.999633766709394 31.091924555942136 31.184215345174877 31.27650613440762 31.338033327229446 31.430324116462188 31.491851309284012 31.584142098516754 31.70719648416041 31.768723676982237 31.891778062625892 32.014832448269544 32.107123237502286 32.23017762314594 32.32246841237868 32.44552279802234 32.59934078007691 32.72239516572056 32.93774034059696 33.214612708295185 33.30690349752793 33.49148507599341 33.614539461637065 33.89141182933528 34.075993407800766 34.16828419703351 34.383629371909905 34.56821095037539 34.69126533601904 34.87584691448453 34.99890130012818 35.21424647500458 35.39882805347006 35.52188243911371 35.737227613990115 35.9218091924556 36.106390770921074 36.32173594579747 36.47555392785204 36.72166269913935 37.12158945248123 37.306171030946714 37.58304339864493 37.89067936275407 38.075260941219554 38.25984251968504 38.475187694561434 38.8443508514924 39.15198681560154 39.367331990477936 39.674967954587075 39.921076725874386 40.1979490935726 40.50558505768174 40.690166636147225 40.96703900384545 41.21314777513276 41.36696575718733 41.67460172129647 41.88994689617286 42.13605566746017 42.28987364951474 42.47445522798022 42.75132759567845 43.028199963376665 43.305072331074896 43.581944698773114 43.73576268082768 44.01263504852591 44.227980223402305 44.41256180186779 44.781724958798755 45.05859732649698 45.24317890496246 45.48928767624977 45.67386925471526 45.91997802600257 46.16608679728987 46.350668375755355 46.56601355063175 46.84288591832997 46.996703900384546 47.27357626808276 47.45815784654825 47.7965574070683 47.98113898553378 48.13495696758835 48.38106573887566 48.62717451016297 48.81175608862846 49.08862845632668 49.24244643838125 49.48855520966856 49.642373191723124 49.76542757736678 50.07306354147592 50.288408716352315 50.41146310199597 50.62680827687237 50.74986266251602 50.934444240981506 51.11902581944699 51.242080205090645 51.39589818714521 51.58047976561069 51.703534151254345 51.91887932613075 52.07269730818531 52.288042483061716 52.411096868705364 52.56491485075993 52.78026002563632 52.99560520051273 53.24171397180004 53.48782274308734 53.67240432155283 53.918513092840136 54.19538546053836 54.34920344259293 54.626075810291155 54.81065738875664 55.026002563633035 55.33363852774217 55.425929316974916 55.641274491851306 55.88738326313862 56.041201245193186 56.25654642006958 56.37960080571324 56.56418238417872 56.81029115546603 56.90258194469877 57.056399926753336 57.27174510162973 57.36403589086248 57.456326680095216 57.54861746932796 57.70243545138253 57.8562534334371 57.88701702984801 58.010071415491666 58.1023622047244 58.19465299395715 58.28694378318989 58.34847097601172 58.44076176524446 58.533052554477194 58.59457974729903 58.71763413294268 58.779161325764505 58.809924922175426 58.87145211499725 58.93297930781908 58.99450650064091 59.05603369346274 59.117560886284565 59.17908807910639 59.2098516755173 59.24061527192821 59.27137886833913 59.30214246475004 59.39443325398278 59.48672404321553 59.48672404321553 59.579014832448266 59.64054202527009 59.67130562168101 59.732832814502835 59.79436000732467 59.886650796557404 59.978941585790146 60.040468778611974 60.1019959714338 60.19428676066654 60.28657754989928 60.378868339132026 60.440395531953854 60.56344991759751 60.686504303241165 60.84032228529573 60.96337667093938 61.055667460172124 61.17872184581578 61.27101263504852 61.36330342428126 61.48635780992492 61.64017579197949 61.701702984801315 61.79399377403406 61.8862845632668 61.97857535249954 62.101629738143195 62.13239333455411 62.22468412378685 62.31697491301959 62.347738509430506 62.409265702252334 62.47079289507416 62.59384728071782 62.65537447353964 62.74766526277239 62.83995605200513 62.93224684123786 62.96301043764878 63.055301226881525 63.11682841970335 63.14759201611426 63.20911920893609 63.239882805347 63.30140999816883 63.30140999816883 63.30140999816883 63.30140999816883 63.30140999816883 63.30140999816883 63.30140999816883 63.30140999816883 63.30140999816883 63.30140999816883 63.30140999816883 63.30140999816883 63.30140999816883 63.30140999816883 63.30140999816883 63.30140999816883 63.30140999816883 63.30140999816883 63.30140999816883 63.30140999816883 63.30140999816883 63.30140999816883 63.27064640175792 63.27064640175792 63.27064640175792 63.27064640175792 63.239882805347 63.239882805347 63.239882805347 63.239882805347 63.239882805347 63.239882805347 63.239882805347 63.239882805347 63.239882805347 63.239882805347 63.20911920893609 63.20911920893609 63.20911920893609 63.20911920893609 63.20911920893609 63.20911920893609 63.239882805347 63.20911920893609 63.239882805347 63.20911920893609 63.20911920893609 63.239882805347 63.20911920893609 63.17835561252517 63.20911920893609 63.20911920893609 63.20911920893609 63.20911920893609 63.17835561252517 63.20911920893609 63.20911920893609 63.20911920893609 63.17835561252517 63.20911920893609 63.20911920893609 63.17835561252517 63.17835561252517 63.17835561252517 63.14759201611426 63.14759201611426 63.11682841970335 63.08606482329243 63.08606482329243 63.055301226881525 63.055301226881525 63.055301226881525 63.024537630470604 63.024537630470604 63.024537630470604 63.024537630470604 63.024537630470604 63.024537630470604 63.024537630470604 63.024537630470604 63.024537630470604 63.024537630470604 63.024537630470604 63.024537630470604 63.024537630470604 63.024537630470604 63.024537630470604 63.024537630470604 62.99377403405969 62.99377403405969 63.024537630470604 62.99377403405969 63.024537630470604 62.99377403405969 62.99377403405969 62.99377403405969 62.99377403405969 62.99377403405969 62.99377403405969 62.99377403405969 62.99377403405969 62.99377403405969 62.99377403405969 62.99377403405969 62.99377403405969 62.99377403405969 62.99377403405969 62.99377403405969 62.99377403405969 62.99377403405969 62.99377403405969 62.99377403405969 62.99377403405969 62.99377403405969 62.99377403405969 62.99377403405969 62.99377403405969 62.99377403405969 62.99377403405969 62.96301043764878 62.96301043764878 62.96301043764878 62.93224684123786 62.901483244826956 62.901483244826956 62.870719648416035 62.870719648416035 62.870719648416035 62.83995605200513 62.83995605200513 62.83995605200513 62.83995605200513 62.83995605200513 62.83995605200513 62.83995605200513 62.80919245559421 62.80919245559421 62.80919245559421 62.77842885918329 62.77842885918329 62.77842885918329 62.77842885918329 62.77842885918329 62.77842885918329 62.74766526277239 62.716901666361466 62.74766526277239 62.74766526277239 62.716901666361466 62.74766526277239 62.74766526277239 62.74766526277239 62.74766526277239 62.74766526277239 62.74766526277239 62.74766526277239 62.716901666361466 62.716901666361466 62.716901666361466 62.68613806995056 62.68613806995056 62.68613806995056 62.65537447353964 62.65537447353964 62.65537447353964 62.62461087712873 62.62461087712873 62.59384728071782 62.5630836843069 62.5630836843069 62.5630836843069 62.53232008789599 62.53232008789599 62.50155649148507 62.50155649148507 62.50155649148507 62.50155649148507 62.50155649148507 62.50155649148507 62.50155649148507 62.50155649148507 62.50155649148507 62.50155649148507 62.50155649148507 62.50155649148507 62.50155649148507 62.50155649148507 62.50155649148507 62.50155649148507 62.50155649148507 62.50155649148507 62.50155649148507 62.50155649148507 62.50155649148507 62.50155649148507 62.50155649148507 62.47079289507416 62.47079289507416 62.47079289507416 62.44002929866325 62.44002929866325 62.409265702252334 62.409265702252334 62.409265702252334 62.409265702252334 62.37850210584142 62.37850210584142 62.37850210584142 62.37850210584142 62.37850210584142 62.37850210584142 62.37850210584142 62.37850210584142 62.37850210584142 62.37850210584142 62.37850210584142 62.37850210584142 62.37850210584142 62.37850210584142 62.37850210584142 62.37850210584142 62.37850210584142 62.37850210584142 62.37850210584142 62.37850210584142 62.37850210584142 62.37850210584142 62.37850210584142 62.37850210584142 62.37850210584142 62.347738509430506 62.347738509430506 62.347738509430506 62.31697491301959 62.31697491301959 62.31697491301959 62.31697491301959 62.31697491301959 62.31697491301959 62.28621131660868 62.31697491301959 62.31697491301959 62.28621131660868 62.31697491301959 62.31697491301959 62.31697491301959 62.28621131660868 62.255447720197765 62.255447720197765 62.255447720197765 62.255447720197765 62.255447720197765 62.22468412378685 62.22468412378685 62.22468412378685 62.19392052737594 62.19392052737594 62.16315693096502 62.16315693096502 62.13239333455411 62.13239333455411 62.13239333455411 62.101629738143195 62.101629738143195 62.07086614173228 62.04010254532137 62.04010254532137 62.04010254532137 62.009338948910454 62.009338948910454 61.97857535249954 61.947811756088626 61.947811756088626 61.947811756088626 61.91704815967771 61.8862845632668 61.855520966855885 61.82475737044497 61.79399377403406 61.73246658121223 61.701702984801315 61.64017579197949 61.547885002746746 61.51712140633583 61.42483061710309 61.36330342428126 61.240249038637614 61.14795824940487 61.02490386376122 60.901849478117555 60.778795092473906 60.71726789965207 60.594213514008416 60.440395531953854 60.34810474272111 60.16352316425563 60.040468778611974 59.85588720014648 59.67130562168101 59.54825123603735 59.332906061160955 59.2098516755173 59.025270097051816 58.84068851858633 58.71763413294268 58.50228895806629 58.317707379600805 58.163889397546235 57.94854422266984 57.79472624061527 57.54861746932796 57.33327229445156 57.210217908807905 56.994872733931516 56.68723676982238 56.59494598058963 56.41036440212415 56.225782823658676 55.88738326313862 55.61051089544039 55.395165720563995 55.11829335286578 54.841420985167545 54.626075810291155 54.34920344259293 54.16462186412745 53.85698590001831 53.610877128731005 53.42629555026552 53.18018677897821 52.99560520051273 52.78026002563632 52.56491485075993 52.411096868705364 52.19575169382897 51.91887932613075 51.76506134407617 51.54971616919978 51.39589818714521 51.149789415857896 50.995971433803334 50.71909906610511 50.50375389122871 50.2576451199414 50.01153634865409 49.82695477018861 49.673136788134045 49.45779161325764 49.21168284197033 49.05786485991577 48.780992492217536 48.50412012451932 48.319538546053835 47.98113898553378 47.7965574070683 47.64273942501373 47.39663065372642 47.24281267167186 47.02746749679545 46.71983153268632 46.53524995422084 46.28914118293353 46.13532320087896 45.91997802600257 45.76616004394799 45.61234206189343 45.30470609778429 45.089360922907886 44.935542940853324 44.6586705731551 44.474088994689616 44.227980223402305 43.92034425929317 43.67423548800586 43.45889031312946 43.18201794543124 43.028199963376665 42.78209119208936 42.53598242080205 42.32063724592565 42.13605566746017 41.9822376854056 41.73612891411829 41.490020142830986 41.243911371543675 40.997802600256364 40.87474821461271 40.65940303973631 40.50558505768174 40.35176707562717 39.982603918696206 39.76725874381981 39.644204358176154 39.428859183299764 39.275041201245195 39.0596960263688 38.78282365867057 38.69053286943783 38.53671488738326 38.413660501739606 38.38289690532869 38.25984251968504 38.10602453763047 37.89067936275407 37.73686138069951 37.61380699505585 37.521516205823104 37.398461820179456 37.24464383812489 37.09082585607032 36.998535066837576 36.84471708478301 36.66013550631752 36.506317524262954 36.32173594579747 36.1679179637429 36.01409998168833 35.86028199963376 35.82951840322285 35.737227613990115 35.61417322834646 35.491118842702804 35.39882805347006 35.30653726423732 35.21424647500458 35.09119208936092 35.06042849295001 34.99890130012818 34.937374107306354 34.90661051089544 34.90661051089544 34.90661051089544 34.90661051089544 34.87584691448453 34.84508331807361 34.783556125251785 34.75279252884087 34.72202893242996 34.66050173960813 34.5989745467863 34.537447353964474 34.44515656473173 34.383629371909905 34.229811389855335 34.16828419703351 34.10675700421168 34.01446621497894 33.95293902215711 33.89141182933528 33.829884636513455 33.79912104010255 33.76835744369163 33.76835744369163 33.73759384728072 33.73759384728072 33.73759384728072 33.67606665445889 33.64530305804798 33.58377586522615 33.522248672404324 33.49148507599341 33.460721479582496 33.42995788317158 33.42995788317158 33.39919428676067 33.39919428676067 33.33766709393884 33.30690349752793 33.27613990111701 33.214612708295185 33.18384911188427 33.15308551547336 33.09155832265153 33.060794726240616 32.99926753341879 32.93774034059696 32.87621314777513 32.84544955136422 32.814685954953305 32.75315876213148 32.69163156930965 32.660867972898735 32.59934078007691 32.53781358725508 32.47628639443325 32.414759201611425 32.3532320087896 32.29170481596777 32.19941402673503 32.107123237502286 32.04559604468046 31.984068851858634 31.922541659036806 31.830250869804065 31.737960080571323 31.676432887749495 31.614905694927668 31.522614905694926 31.461087712873102 31.36879692364036 31.36879692364036 31.338033327229446 31.338033327229446 31.338033327229446 31.338033327229446 31.338033327229446 31.338033327229446 31.338033327229446 31.338033327229446 31.338033327229446 31.338033327229446 31.338033327229446 31.338033327229446 31.338033327229446 31.307269730818533 31.27650613440762 31.27650613440762 31.245742537996705 31.21497894158579 31.21497894158579 31.184215345174877 31.184215345174877 31.153451748763963 31.153451748763963 31.12268815235305 31.091924555942136 31.091924555942136 31.091924555942136 31.030397363120308 30.999633766709394 30.96887017029848 30.938106573887566 30.907342977476652 30.87657938106574 30.845815784654825 30.81505218824391 30.81505218824391 30.784288591832997 30.784288591832997 30.753524995422083 30.72276139901117 30.72276139901117 30.691997802600255 30.66123420618934 30.66123420618934 30.599707013367514 30.599707013367514 30.5689434169566 30.5689434169566 30.5689434169566 30.5689434169566 30.5689434169566 30.5689434169566 30.5689434169566 30.5689434169566 30.5689434169566 30.5689434169566 30.5689434169566 30.5689434169566 30.5689434169566 30.5689434169566 30.5689434169566 30.5689434169566 30.5689434169566 30.538179820545686 30.538179820545686 30.538179820545686 30.538179820545686 30.538179820545686 30.538179820545686 30.507416224134772 30.538179820545686 30.507416224134772 30.507416224134772 30.507416224134772 30.507416224134772 30.507416224134772 30.507416224134772 30.507416224134772 30.507416224134772 30.507416224134772 30.507416224134772 30.507416224134772 30.507416224134772 30.507416224134772 30.507416224134772 30.507416224134772 30.507416224134772 30.507416224134772 30.507416224134772 30.507416224134772 30.507416224134772 30.507416224134772 30.507416224134772 30.507416224134772 30.507416224134772 30.507416224134772 30.507416224134772 30.507416224134772 30.507416224134772 30.507416224134772 30.507416224134772 30.507416224134772 30.507416224134772 30.507416224134772 30.507416224134772 30.507416224134772 30.507416224134772 30.507416224134772 30.507416224134772 30.507416224134772 30.507416224134772 30.47665262772386 30.507416224134772 30.507416224134772 30.507416224134772 30.507416224134772 30.507416224134772 30.507416224134772 30.507416224134772 30.507416224134772 30.507416224134772 30.47665262772386 30.507416224134772 30.507416224134772 30.47665262772386 30.507416224134772 30.507416224134772 30.507416224134772 30.507416224134772 30.507416224134772 30.47665262772386 30.507416224134772 30.47665262772386 30.507416224134772 30.47665262772386 30.507416224134772 30.47665262772386 30.507416224134772 30.47665262772386 30.47665262772386 30.47665262772386 30.507416224134772 30.507416224134772 30.47665262772386 30.47665262772386 30.507416224134772 30.507416224134772 30.507416224134772 30.47665262772386 30.507416224134772 30.47665262772386 30.47665262772386 30.47665262772386 30.507416224134772 30.507416224134772 30.47665262772386 30.47665262772386 30.47665262772386 30.47665262772386 30.47665262772386 30.47665262772386 30.47665262772386 30.507416224134772 30.507416224134772 30.507416224134772 30.47665262772386 30.47665262772386 30.47665262772386 30.507416224134772 30.507416224134772 30.507416224134772 30.47665262772386 30.47665262772386 30.47665262772386 30.507416224134772 30.47665262772386 30.47665262772386 30.47665262772386 30.47665262772386 30.47665262772386 30.507416224134772 30.47665262772386 30.47665262772386 30.47665262772386 30.47665262772386 30.47665262772386 30.47665262772386 30.47665262772386 30.47665262772386 30.47665262772386 30.47665262772386 30.47665262772386 30.47665262772386 30.47665262772386 30.47665262772386 30.47665262772386 30.47665262772386 30.47665262772386 30.47665262772386 30.47665262772386 30.47665262772386 30.47665262772386 30.47665262772386 30.47665262772386 30.47665262772386 30.47665262772386 30.47665262772386 30.47665262772386 30.47665262772386 30.47665262772386 30.507416224134772 30.47665262772386 30.47665262772386 30.47665262772386 30.47665262772386 30.47665262772386 30.47665262772386 30.47665262772386 30.47665262772386 30.47665262772386 30.47665262772386 30.47665262772386 30.47665262772386 30.47665262772386 30.47665262772386 30.47665262772386 30.47665262772386 30.47665262772386 30.47665262772386 30.47665262772386 30.47665262772386 30.47665262772386 30.47665262772386 30.47665262772386 30.47665262772386 30.47665262772386 30.47665262772386 30.47665262772386 30.47665262772386 30.47665262772386 30.47665262772386 30.47665262772386 30.47665262772386 30.47665262772386 30.47665262772386 30.47665262772386 30.47665262772386 30.47665262772386 30.47665262772386 30.47665262772386 30.47665262772386 30.47665262772386 30.47665262772386 30.47665262772386 30.47665262772386 30.47665262772386 30.47665262772386 30.47665262772386 30.47665262772386 30.47665262772386 30.47665262772386 30.47665262772386 30.47665262772386 30.47665262772386 30.47665262772386 30.47665262772386 30.47665262772386 30.47665262772386 30.47665262772386 30.47665262772386 30.47665262772386 30.47665262772386 30.47665262772386 30.47665262772386 30.47665262772386 30.47665262772386 30.47665262772386 30.47665262772386 30.47665262772386 30.47665262772386 30.47665262772386 30.47665262772386 30.47665262772386 30.47665262772386 30.47665262772386 30.47665262772386 30.47665262772386 30.47665262772386 30.47665262772386 30.47665262772386 30.47665262772386 30.47665262772386 30.47665262772386 30.47665262772386 30.47665262772386 30.47665262772386 30.47665262772386 30.47665262772386 30.47665262772386 30.47665262772386 30.47665262772386 30.47665262772386 30.47665262772386 30.47665262772386 30.47665262772386 30.47665262772386 30.47665262772386 30.47665262772386 30.47665262772386 30.47665262772386 30.47665262772386 30.47665262772386 30.47665262772386 30.47665262772386 30.47665262772386 30.47665262772386 30.47665262772386 30.47665262772386 30.47665262772386 30.47665262772386 30.47665262772386 30.47665262772386 30.47665262772386 30.47665262772386 30.47665262772386 30.47665262772386 30.47665262772386 30.47665262772386 30.47665262772386 30.47665262772386 30.47665262772386 30.47665262772386 30.47665262772386 30.47665262772386 30.47665262772386 30.47665262772386 30.47665262772386 30.47665262772386 30.47665262772386 30.47665262772386 30.47665262772386 30.47665262772386 30.47665262772386 30.47665262772386 30.47665262772386 30.47665262772386 30.47665262772386 30.47665262772386 30.47665262772386 30.47665262772386 30.47665262772386 30.47665262772386 30.47665262772386 30.47665262772386 30.47665262772386 30.47665262772386 30.47665262772386 30.47665262772386 30.47665262772386 30.47665262772386 30.47665262772386 30.47665262772386 30.47665262772386 30.47665262772386 30.47665262772386 30.47665262772386 30.47665262772386 30.47665262772386 30.47665262772386 30.47665262772386 30.47665262772386 30.47665262772386 30.47665262772386 30.47665262772386 30.47665262772386 30.47665262772386 30.47665262772386 30.47665262772386 30.47665262772386 30.47665262772386 30.47665262772386 30.47665262772386 30.47665262772386 30.47665262772386 30.47665262772386 30.47665262772386 30.47665262772386 30.47665262772386 30.47665262772386 30.47665262772386 30.47665262772386 30.47665262772386 30.47665262772386 30.47665262772386 30.47665262772386 30.47665262772386 30.47665262772386 30.47665262772386 30.47665262772386 30.47665262772386 30.47665262772386 30.47665262772386 30.47665262772386 30.47665262772386 30.47665262772386 30.47665262772386 30.47665262772386 30.47665262772386 30.47665262772386 30.47665262772386 30.47665262772386 30.47665262772386 30.47665262772386 30.47665262772386 30.47665262772386 30.47665262772386 30.47665262772386 30.47665262772386 30.47665262772386 30.47665262772386 30.47665262772386 30.47665262772386 30.47665262772386 30.47665262772386 30.47665262772386 30.47665262772386 30.47665262772386 30.47665262772386 30.47665262772386 30.47665262772386 30.47665262772386 30.47665262772386 30.507416224134772 30.47665262772386 30.47665262772386 30.47665262772386 30.47665262772386 30.47665262772386 30.47665262772386 30.47665262772386 30.47665262772386 30.47665262772386 30.47665262772386 30.47665262772386 30.47665262772386 30.47665262772386 30.47665262772386 30.47665262772386 30.47665262772386 30.47665262772386 30.47665262772386 30.47665262772386 30.47665262772386 30.47665262772386 30.47665262772386 30.47665262772386 30.47665262772386 30.47665262772386 30.47665262772386 30.47665262772386 30.47665262772386 30.47665262772386 30.47665262772386 30.47665262772386 30.47665262772386 30.47665262772386 30.47665262772386 30.47665262772386 30.47665262772386 30.47665262772386 30.47665262772386 30.47665262772386 30.47665262772386 30.47665262772386 30.47665262772386 30.47665262772386 30.47665262772386 30.47665262772386 30.47665262772386 30.47665262772386 30.47665262772386 30.47665262772386 30.47665262772386 30.47665262772386 30.47665262772386 30.47665262772386 30.47665262772386 30.47665262772386 30.47665262772386 30.47665262772386 30.47665262772386 30.47665262772386 30.47665262772386 30.47665262772386 30.47665262772386 30.47665262772386 30.47665262772386 30.47665262772386 30.47665262772386 30.47665262772386 30.47665262772386 30.47665262772386 30.47665262772386 30.47665262772386 30.47665262772386 30.47665262772386 30.47665262772386 30.47665262772386 30.47665262772386 30.47665262772386 30.47665262772386 30.47665262772386 30.47665262772386 30.47665262772386 30.47665262772386 30.47665262772386 30.47665262772386 30.47665262772386 30.47665262772386 30.47665262772386 30.47665262772386 30.47665262772386 30.47665262772386 30.47665262772386 30.47665262772386 30.47665262772386 30.47665262772386 30.47665262772386 30.47665262772386 30.47665262772386 30.47665262772386 30.47665262772386 30.47665262772386 30.47665262772386 30.47665262772386 30.47665262772386 30.47665262772386 30.47665262772386 30.47665262772386 30.47665262772386 30.47665262772386 30.47665262772386 30.47665262772386 30.47665262772386 30.47665262772386 30.47665262772386 30.47665262772386 30.47665262772386 30.47665262772386 30.47665262772386 30.47665262772386 30.47665262772386 30.47665262772386 30.47665262772386 30.47665262772386 30.47665262772386 30.47665262772386 30.47665262772386 30.47665262772386 30.47665262772386 30.47665262772386 30.47665262772386 30.47665262772386 30.47665262772386 30.47665262772386 30.47665262772386 30.47665262772386 30.47665262772386 30.47665262772386 30.47665262772386 30.47665262772386 30.47665262772386 30.47665262772386 30.47665262772386 30.47665262772386 30.47665262772386 30.47665262772386 30.47665262772386 30.47665262772386 30.47665262772386 30.47665262772386 30.47665262772386 30.47665262772386 30.47665262772386 30.47665262772386 30.47665262772386 30.47665262772386 30.47665262772386 30.47665262772386 30.47665262772386 30.47665262772386 30.47665262772386 30.47665262772386 30.47665262772386 30.47665262772386 30.47665262772386 30.47665262772386 30.47665262772386 30.47665262772386 30.47665262772386 30.47665262772386 30.47665262772386 30.47665262772386 30.47665262772386 30.47665262772386 30.47665262772386 30.47665262772386 30.47665262772386 30.47665262772386 30.47665262772386 30.47665262772386 30.47665262772386 30.47665262772386 30.47665262772386 30.47665262772386 30.47665262772386 30.47665262772386 30.47665262772386 30.47665262772386 30.47665262772386 30.47665262772386 30.47665262772386 30.47665262772386 30.47665262772386 30.47665262772386 30.47665262772386 30.47665262772386 30.47665262772386 30.47665262772386 30.47665262772386 30.47665262772386 30.47665262772386 30.47665262772386 30.47665262772386 30.47665262772386 30.47665262772386 30.47665262772386 30.47665262772386 30.47665262772386 30.47665262772386 30.47665262772386 30.47665262772386 30.47665262772386 30.47665262772386 30.47665262772386 30.47665262772386 30.47665262772386 30.47665262772386 30.47665262772386 30.47665262772386 30.47665262772386 30.47665262772386 30.47665262772386 30.47665262772386 30.47665262772386 30.47665262772386 30.47665262772386 30.47665262772386 30.47665262772386 30.47665262772386 30.47665262772386 30.47665262772386 30.47665262772386 30.47665262772386 30.47665262772386 30.47665262772386 30.47665262772386 30.47665262772386 30.47665262772386 30.47665262772386 30.47665262772386 30.47665262772386 30.47665262772386 30.47665262772386 30.47665262772386 30.47665262772386 30.47665262772386 30.47665262772386 30.47665262772386 30.47665262772386 30.47665262772386 30.47665262772386 30.47665262772386 30.47665262772386 30.47665262772386 30.47665262772386 30.47665262772386 30.47665262772386 30.47665262772386 30.47665262772386 30.47665262772386 30.47665262772386 30.47665262772386 30.47665262772386 30.47665262772386 30.47665262772386 30.47665262772386 30.47665262772386 30.47665262772386 30.47665262772386 30.47665262772386 30.47665262772386 30.47665262772386 30.47665262772386 30.47665262772386 30.47665262772386 30.47665262772386 30.47665262772386 30.47665262772386 30.47665262772386 30.47665262772386 30.47665262772386 30.47665262772386 30.47665262772386 30.47665262772386 30.47665262772386 30.47665262772386 30.47665262772386 30.47665262772386 30.47665262772386 30.47665262772386 30.47665262772386 30.47665262772386 30.47665262772386 30.47665262772386 30.47665262772386 30.47665262772386 30.47665262772386 30.47665262772386 30.47665262772386 30.47665262772386 30.47665262772386 30.47665262772386 30.47665262772386 30.47665262772386 30.507416224134772 30.507416224134772 30.507416224134772 30.538179820545686 30.538179820545686 30.538179820545686 30.538179820545686 30.538179820545686 30.5689434169566 30.5689434169566 30.5689434169566 30.5689434169566 30.5689434169566 30.5689434169566 30.599707013367514 30.599707013367514 30.599707013367514 30.630470609778428 30.630470609778428 30.66123420618934 30.66123420618934 30.691997802600255 30.72276139901117 30.72276139901117 30.784288591832997 30.784288591832997 30.845815784654825 30.845815784654825 30.87657938106574 30.96887017029848 30.999633766709394 31.030397363120308 31.06116095953122 31.12268815235305 31.184215345174877 31.27650613440762 31.338033327229446 31.399560520051274 31.461087712873102 31.522614905694926 31.614905694927668 31.676432887749495 31.768723676982237 31.79948727339315 31.830250869804065 31.922541659036806 32.014832448269544 32.04559604468046 32.1378868339132 32.19941402673503 32.29170481596777 32.414759201611425 32.44552279802234 32.44552279802234 32.47628639443325 32.47628639443325 32.507049990844166 32.507049990844166 32.507049990844166 32.53781358725508 32.568577183665994 32.69163156930965 32.814685954953305 32.906976744186046 33.0300311298297 33.15308551547336 33.39919428676067 33.55301226881524 33.7068302508698 33.89141182933528 34.075993407800766 34.26057498626625 34.537447353964474 34.72202893242996 34.96813770371727 35.24501007141549 35.46035524629189 35.76799121040103 36.106390770921074 36.41402673503021 36.598608313495696 36.84471708478301 37.21388024171397 37.521516205823104 37.73686138069951 38.19831532686321 38.567478483794176 38.81358725508149 39.0596960263688 39.275041201245195 39.79802234023072 40.136421900750776 40.38253067203809 40.690166636147225 40.96703900384545 41.21314777513276 41.490020142830986 41.67460172129647 41.92071049258377 42.16681926387108 42.38216443874748 42.62827321003479 42.8743819813221 43.12049075260941 43.39736312030763 43.581944698773114 43.85881706647134 44.25874381981322 44.535616187511444 44.75096136238784 44.99707013367515 45.3354696941952 45.5508148690716 45.82768723676982 46.104559604468044 46.41219556857718 46.596777147042665 46.87364951474089 47.08899468961728 47.36586705731551 47.61197582860282 47.765793810657385 47.98113898553378 48.19648416041018 48.319538546053835 48.565647317341146 48.6887017029848 48.780992492217536 48.96557407068302 49.08862845632668 49.27321003479216 49.48855520966856 49.673136788134045 49.91924555942135 50.07306354147592 50.34993590917414 50.62680827687237 50.842153451748764 51.149789415857896 51.3651345907343 51.703534151254345 52.011170115363484 52.22651529023988 52.65720563999267 52.9340780076909 53.14942318256729 53.3955319538546 53.610877128731005 53.918513092840136 54.2876762497711 54.5030214246475 54.81065738875664 55.087529756454856 55.27211133492034 55.48745650979674 55.76432887749496 56.01043764878227 56.25654642006958 56.441127998535066 56.656473173411456 56.90258194469877 57.117927119575164 57.33327229445156 57.48709027650613 57.70243545138253 57.88701702984801 58.010071415491666 58.19465299395715 58.44076176524446 58.533052554477194 58.68687053653177 58.779161325764505 58.96374290422999 59.086797289873644 59.24061527192821 59.39443325398278 59.54825123603735 59.60977842885918 59.732832814502835 59.82512360373558 59.978941585790146 60.1019959714338 60.16352316425563 60.25581395348837 60.3173411463102 60.378868339132026 60.440395531953854 60.47115912836477 60.50192272477568 60.53268632118659 60.53268632118659 60.53268632118659 60.53268632118659 60.56344991759751 60.594213514008416 60.655740706830244 60.686504303241165 60.71726789965207 60.778795092473906 60.87108588170665 60.932613074528476 61.02490386376122 61.086431056583045 61.20948544222669 61.30177623145944 61.39406702069218 61.45559421351401 61.51712140633583 61.547885002746746 61.57864859915766 61.57864859915766 61.57864859915766 61.57864859915766 61.57864859915766 61.57864859915766 61.57864859915766 61.57864859915766 61.57864859915766 61.609412195568574 61.609412195568574 61.64017579197949 61.64017579197949 61.64017579197949 61.64017579197949 61.64017579197949 61.64017579197949 61.6709393883904 61.64017579197949 61.64017579197949 61.64017579197949 61.6709393883904 61.64017579197949 61.6709393883904 61.64017579197949 61.64017579197949 61.64017579197949 61.64017579197949 61.6709393883904 61.64017579197949 61.64017579197949 61.6709393883904 61.6709393883904 61.64017579197949 61.64017579197949 61.6709393883904 61.64017579197949 61.64017579197949 61.64017579197949 61.64017579197949 61.64017579197949 61.64017579197949 61.64017579197949 61.64017579197949 61.64017579197949 61.64017579197949 61.64017579197949 61.6709393883904 61.701702984801315 61.73246658121223 61.73246658121223 61.701702984801315 61.73246658121223 61.73246658121223 61.73246658121223 61.73246658121223 61.73246658121223 61.73246658121223 61.76323017762314 61.73246658121223 61.73246658121223 61.73246658121223 61.73246658121223 61.73246658121223 61.73246658121223 61.73246658121223 61.73246658121223 61.73246658121223 61.73246658121223 61.73246658121223 61.73246658121223 61.73246658121223 61.73246658121223 61.73246658121223 61.73246658121223 61.73246658121223 61.73246658121223 61.73246658121223 61.73246658121223 61.73246658121223 61.73246658121223 61.73246658121223 61.73246658121223 61.73246658121223 61.73246658121223 61.73246658121223 61.73246658121223 61.73246658121223 61.73246658121223 61.73246658121223 61.73246658121223 61.73246658121223 61.73246658121223 61.73246658121223 61.73246658121223 61.73246658121223 61.73246658121223 61.73246658121223 61.73246658121223 61.73246658121223 61.73246658121223 61.73246658121223 61.73246658121223 61.73246658121223 