25.0 25.0 25.0 25.0 25.0 25.0 25.0 25.021973997436366 25.0 25.0 25.0 25.0 25.0 25.0 25.0 25.0 25.0 25.0 25.0 25.0 25.0 25.0 25.0 25.0 25.0 25.0 25.0 25.0 25.0 25.0 25.0 25.0 25.0 25.0 25.0 25.021973997436366 25.0 25.0 25.0 25.0 25.0 25.021973997436366 25.0 25.0 25.0 25.0 25.0 25.0 25.0 25.0 25.0 25.0 25.0 25.0 25.0 25.0 25.0 25.0 25.0 25.0 25.0 25.0 25.0 25.0 25.0 25.0 25.0 25.0 25.0 25.0 25.0 25.0 25.0 25.0 25.0 25.0 25.0 25.0 25.0 25.0 25.0 25.0 25.0 25.0 25.0 25.0 25.0 25.0 24.978026002563634 25.0 25.0 25.0 25.0 25.0 25.0 25.0 25.0 25.0 25.0 25.0 24.978026002563634 25.0 24.978026002563634 25.0 25.0 25.0 25.0 25.0 25.0 25.0 25.0 25.0 25.0 25.0 25.0 25.0 25.0 24.978026002563634 24.978026002563634 24.978026002563634 25.0 25.0 25.0 25.0 25.0 25.0 25.0 24.978026002563634 25.0 25.0 25.0 25.0 25.0 25.0 25.0 25.0 25.0 25.0 25.0 25.0 25.0 25.0 24.978026002563634 25.0 24.978026002563634 24.978026002563634 25.0 24.978026002563634 24.978026002563634 25.0 24.978026002563634 24.978026002563634 24.978026002563634 25.0 25.0 25.0 24.978026002563634 25.0 25.0 25.0 24.978026002563634 24.978026002563634 25.0 25.0 25.0 25.0 25.0 24.978026002563634 25.0 24.978026002563634 24.978026002563634 25.0 25.0 24.978026002563634 25.0 25.0 25.0 25.0 25.0 25.0 25.0 25.0 24.978026002563634 24.978026002563634 24.978026002563634 24.978026002563634 24.978026002563634 25.0 25.0 25.0 24.978026002563634 25.0 25.0 25.0 25.0 24.978026002563634 25.0 25.0 25.0 25.0 25.0 25.0 24.978026002563634 25.0 25.0 25.0 25.0 24.978026002563634 24.978026002563634 24.978026002563634 24.978026002563634 25.0 25.0 25.0 25.0 25.0 25.0 25.0 24.978026002563634 25.0 24.978026002563634 25.0 25.0 24.978026002563634 25.0 25.0 24.978026002563634 25.0 25.0 25.0 25.0 24.978026002563634 25.0 25.0 24.978026002563634 25.0 25.0 25.0 25.0 25.0 25.0 25.0 25.0 24.978026002563634 25.0 24.978026002563634 24.978026002563634 25.0 24.978026002563634 24.978026002563634 24.978026002563634 24.978026002563634 25.0 25.0 25.0 25.0 25.0 24.978026002563634 25.0 25.0 25.0 25.0 25.0 24.978026002563634 24.978026002563634 25.0 24.978026002563634 25.0 25.0 25.0 25.0 25.0 25.0 24.978026002563634 25.0 25.0 25.0 25.0 25.0 25.0 24.978026002563634 24.978026002563634 25.0 25.0 25.0 24.978026002563634 25.0 24.978026002563634 24.978026002563634 25.0 24.978026002563634 24.978026002563634 25.0 25.0 25.0 25.0 25.0 24.978026002563634 25.0 25.0 25.0 24.978026002563634 25.0 25.0 25.0 25.0 24.978026002563634 25.0 25.0 24.978026002563634 25.0 24.978026002563634 24.978026002563634 25.0 25.0 24.978026002563634 24.978026002563634 25.0 25.0 25.0 25.0 25.0 24.978026002563634 24.978026002563634 24.978026002563634 24.978026002563634 25.0 24.978026002563634 25.0 24.978026002563634 24.978026002563634 24.978026002563634 25.0 24.978026002563634 24.978026002563634 25.0 24.978026002563634 25.0 25.0 25.0 25.0 24.978026002563634 25.0 25.0 25.0 25.0 24.978026002563634 25.0 24.978026002563634 25.0 25.0 24.978026002563634 25.0 24.978026002563634 25.0 25.0 25.0 25.0 25.0 25.0 25.0 25.0 24.978026002563634 25.0 24.978026002563634 25.0 25.0 25.0 25.0 25.0 25.0 24.978026002563634 25.0 24.978026002563634 25.0 24.978026002563634 25.0 24.978026002563634 24.978026002563634 25.0 24.978026002563634 25.0 25.0 24.978026002563634 24.978026002563634 24.978026002563634 24.978026002563634 24.978026002563634 25.0 24.978026002563634 24.978026002563634 25.0 25.0 24.978026002563634 24.978026002563634 25.0 25.0 25.0 25.0 24.978026002563634 24.978026002563634 24.978026002563634 25.0 24.978026002563634 25.0 24.978026002563634 25.0 24.978026002563634 24.978026002563634 25.0 25.0 25.0 25.0 25.0 25.0 25.0 25.0 25.0 24.978026002563634 25.0 24.978026002563634 25.0 25.0 25.0 25.0 25.0 25.0 24.978026002563634 25.0 24.978026002563634 25.0 25.0 24.978026002563634 25.0 25.0 24.978026002563634 25.0 25.0 25.0 25.0 25.0 25.0 25.0 24.978026002563634 25.0 25.0 25.0 25.0 25.0 25.0 25.0 25.0 25.0 25.0 25.0 25.0 25.0 25.0 25.0 25.0 25.0 25.0 24.978026002563634 25.0 25.0 25.0 25.0 25.0 25.0 25.0 25.0 25.0 25.0 25.0 25.0 25.0 25.0 25.0 25.0 24.978026002563634 25.0 24.978026002563634 25.0 25.0 25.0 25.0 25.0 25.0 25.0 25.0 24.978026002563634 25.0 25.0 25.0 25.0 25.0 25.0 25.0 25.0 25.0 24.978026002563634 24.978026002563634 25.0 25.0 25.0 25.0 24.978026002563634 25.0 25.0 25.0 25.0 25.0 24.978026002563634 25.0 24.978026002563634 25.0 25.0 25.0 25.0 25.0 25.0 25.0 25.0 25.0 25.0 25.0 25.0 25.0 25.0 25.0 25.0 25.0 25.0 25.0 25.0 25.0 25.0 25.0 25.0 25.0 25.0 25.0 25.0 25.0 25.0 25.0 25.0 25.0 25.0 25.0 25.0 25.0 25.0 25.0 25.0 25.0 25.0 25.0 25.0 25.021973997436366 25.0 25.021973997436366 25.021973997436366 25.021973997436366 25.021973997436366 25.021973997436366 25.021973997436366 25.043947994872735 25.043947994872735 25.043947994872735 25.0659219923091 25.0659219923091 25.0659219923091 25.08789598974547 25.109869987181835 25.1318439846182 25.15381798205457 25.175791979490935 25.197765976927304 25.241713971800035 25.263687969236404 25.263687969236404 25.28566196667277 25.329609961545504 25.35158395898187 25.37355795641824 25.417505951290973 25.483427943600073 25.549349935909174 25.637245925654643 25.747115912836477 25.856985900018312 25.988829884636512 26.120673869254716 26.252517853872916 26.406335835927486 26.538179820545686 26.67002380516389 26.82384178721846 26.999633766709394 27.131477751327594 27.307269730818533 27.527009705182202 27.790697674418606 28.142281633400476 28.53781358725508 29.021241530855153 29.526643471891596 30.054019410364404 30.58139534883721 31.130745284746382 31.72404321552829 32.33931514374657 32.95458707196484 33.54788500274675 34.18513092840139 34.8443508514924 35.48159677714705 36.16279069767442 36.843984618201794 37.48123054385644 38.18439846182018 38.90954037722029 39.590734297747666 40.33785021058414 41.084966123420614 41.81010803882073 42.57919794909357 43.348287859366415 44.139351767075624 44.8864676799121 45.72147958249405 46.490569492766895 47.325581395348834 48.11664530305805 48.88573521333089 49.63285112616737 50.379967039003844 51.12708295184032 51.85222486724043 52.59934078007691 53.324482695477016 54.00567661600439 54.73081853140451 55.39003845449551 56.07123237502289 56.77440029298663 57.43362021607764 58.13678813404138 58.79600805713239 59.4552279802234 60.114447903314414 60.729719831532684 61.34499175975096 61.9822376854056 62.59750961362388 63.212781541842155 63.74015748031496 64.26753341878776 64.7729353598242 65.27833730086064 65.73979124702436 66.20124519318806 66.61875114447903 67.01428309833364 67.36586705731551 67.71745101629739 68.00311298297015 68.26680095220655 68.48654092657023 68.66233290606115 68.81615088811573 68.9699688701703 69.1018128547885 69.21168284197034 69.34352682658854 69.47537081120674 69.60721479582494 69.78300677531587 69.95879875480682 70.13459073429775 70.31038271378868 70.48617469327962 70.63999267533418 70.77183665995238 70.88170664713422 70.9696026368797 71.01355063175242 71.0355246291888 71.07947262406154 71.07947262406154 71.07947262406154 71.07947262406154 71.07947262406154 71.07947262406154 71.07947262406154 71.07947262406154 71.07947262406154 71.07947262406154 71.07947262406154 71.07947262406154 71.07947262406154 71.07947262406154 71.07947262406154 71.07947262406154 71.07947262406154 71.07947262406154 71.07947262406154 71.07947262406154 71.07947262406154 71.07947262406154 71.07947262406154 71.07947262406154 71.05749862662516 71.07947262406154 71.05749862662516 71.05749862662516 71.05749862662516 71.05749862662516 71.05749862662516 71.05749862662516 71.05749862662516 71.05749862662516 71.05749862662516 71.0355246291888 71.01355063175242 71.01355063175242 71.01355063175242 70.99157663431606 71.01355063175242 71.01355063175242 70.99157663431606 70.99157663431606 71.01355063175242 70.99157663431606 70.99157663431606 70.99157663431606 70.99157663431606 70.99157663431606 70.99157663431606 70.99157663431606 70.99157663431606 70.99157663431606 70.99157663431606 70.9696026368797 70.9696026368797 70.9696026368797 70.9696026368797 70.9696026368797 70.9696026368797 70.94762863944334 70.94762863944334 70.94762863944334 70.9696026368797 70.94762863944334 70.9696026368797 70.9696026368797 70.94762863944334 70.94762863944334 70.94762863944334 70.9036806445706 70.88170664713422 70.8377586522615 70.8377586522615 70.81578465482514 70.81578465482514 70.81578465482514 70.81578465482514 70.79381065738875 70.77183665995238 70.74986266251602 70.74986266251602 70.74986266251602 70.74986266251602 70.74986266251602 70.74986266251602 70.74986266251602 70.74986266251602 70.74986266251602 70.74986266251602 70.74986266251602 70.74986266251602 70.77183665995238 70.74986266251602 70.74986266251602 70.74986266251602 70.77183665995238 70.74986266251602 70.74986266251602 70.74986266251602 70.74986266251602 70.74986266251602 70.74986266251602 70.74986266251602 70.74986266251602 70.74986266251602 70.72788866507966 70.70591466764328 70.68394067020692 70.63999267533418 70.63999267533418 70.59604468046146 70.59604468046146 70.61801867789782 70.59604468046146 70.59604468046146 70.59604468046146 70.61801867789782 70.61801867789782 70.61801867789782 70.61801867789782 70.61801867789782 70.61801867789782 70.61801867789782 70.59604468046146 70.59604468046146 70.59604468046146 70.59604468046146 70.59604468046146 70.59604468046146 70.59604468046146 70.61801867789782 70.61801867789782 70.59604468046146 70.61801867789782 70.61801867789782 70.61801867789782 70.61801867789782 70.61801867789782 70.61801867789782 70.59604468046146 70.61801867789782 70.61801867789782 70.61801867789782 70.59604468046146 70.59604468046146 70.59604468046146 70.57407068302508 70.57407068302508 70.57407068302508 70.57407068302508 70.57407068302508 70.57407068302508 70.57407068302508 70.57407068302508 70.57407068302508 70.57407068302508 70.55209668558872 70.57407068302508 70.57407068302508 70.57407068302508 70.57407068302508 70.57407068302508 70.55209668558872 70.57407068302508 70.57407068302508 70.57407068302508 70.57407068302508 70.57407068302508 70.57407068302508 70.57407068302508 70.57407068302508 70.57407068302508 70.57407068302508 70.57407068302508 70.57407068302508 70.57407068302508 70.57407068302508 70.57407068302508 70.57407068302508 70.57407068302508 70.57407068302508 70.57407068302508 70.57407068302508 70.57407068302508 70.57407068302508 70.57407068302508 70.57407068302508 70.57407068302508 70.57407068302508 70.57407068302508 70.57407068302508 70.57407068302508 70.57407068302508 70.57407068302508 70.57407068302508 70.57407068302508 70.57407068302508 70.57407068302508 70.57407068302508 70.57407068302508 70.57407068302508 70.53012268815235 70.50814869071598 70.48617469327962 70.48617469327962 70.46420069584326 70.46420069584326 70.46420069584326 70.46420069584326 70.44222669840688 70.44222669840688 70.44222669840688 70.42025270097052 70.42025270097052 70.39827870353415 70.39827870353415 70.39827870353415 70.37630470609778 70.35433070866142 70.33235671122506 70.33235671122506 70.31038271378868 70.31038271378868 70.28840871635232 70.31038271378868 70.28840871635232 70.28840871635232 70.26643471891595 70.24446072147958 70.22248672404322 70.15656473173412 70.15656473173412 70.13459073429775 70.06866874198866 70.02472074711591 69.93682475737045 69.8269547701886 69.7610327778795 69.6291887932613 69.54129280351583 69.38747482146127 69.12378685222487 68.99194286760667 68.77220289324299 68.55246291887933 68.37667093938839 68.11298297015199 67.93719099066105 67.62955502655191 67.32191906244277 67.08020509064274 66.72862113166087 66.35506317524263 66.06940120856986 65.62992125984252 65.1684673136788 64.86083134956968 64.3774034059696 64.04779344442409 63.52041750595129 63.058963559787585 62.707379600805716 62.02618568027834 61.5207837392419 61.21314777513276 60.88353781358725 60.378135872550814 60.026551913568944 59.34535799304157 59.01574803149606 58.48837209302326 58.13678813404138 57.58743819813221 57.038088262223035 56.664530305804796 56.09320637245926 55.52188243911371 55.10437648782275 54.48910455960447 54.02765061344076 53.434352682658854 52.797106757004215 52.357626808276876 51.6764328877495 51.19300494414942 50.599707013367514 49.786669108221936 49.39113715436733 48.99560520051273 48.40230726973082 47.80900933894891 47.23768540560337 46.886101446621495 46.380699505585056 45.89727156198498 45.54568760300312 45.0183116645303 44.4909357260575 44.11737776963926 43.590001831166454 43.260391869620946 42.733015931148145 42.1616919978026 41.72221204907526 41.15088811572972 40.535616187511444 40.096136238784105 39.458890313129466 38.75572239516572 38.07452847463834 37.54715253616554 37.063724592565464 36.294634682292624 35.921076725874386 35.30580479765611 34.75645486174693 34.38289690532869 33.83354696941952 33.284197033510345 32.932613074528476 32.53708112067387 31.94378318989196 31.636147225782825 31.15271928218275 30.845083318073613 30.405603369346274 29.834279436000735 29.350851492400658 29.153085515473357 28.55978758469145 28.010437648782275 27.592931697491302 27.373191723127633 26.626075810291155 26.14264786669108 26.07672587438198 25.747115912836477 25.571323933345543 25.43947994872734 25.21973997436367 24.956052005127265 24.384728071781726 24.296832082036257 24.208936092290788 23.98919611792712 23.835378135872553 23.681560153817983 23.373924189708845 23.19813221021791 23.242080205090645 23.242080205090645 23.41787218458158 24.71433803332723 25.483427943600073 25.593297930781908 25.593297930781908 25.615271928218274 25.615271928218274 25.65921992309101 25.681193920527377 25.72514191540011 25.747115912836477 25.747115912836477 25.72514191540011 25.703167917963743 25.65921992309101 25.593297930781908 25.571323933345543 25.50540194103644 25.461453946163708 25.417505951290973 25.37355795641824 25.329609961545504 25.28566196667277 25.241713971800035 25.21973997436367 25.21973997436367 25.197765976927304 25.197765976927304 25.197765976927304 25.197765976927304 25.197765976927304 25.175791979490935 25.175791979490935 25.175791979490935 25.175791979490935 25.175791979490935 25.175791979490935 25.175791979490935 25.175791979490935 25.15381798205457 25.15381798205457 25.175791979490935 25.15381798205457 25.15381798205457 25.15381798205457 25.15381798205457 25.15381798205457 25.15381798205457 25.15381798205457 25.15381798205457 25.15381798205457 25.15381798205457 25.15381798205457 25.15381798205457 25.15381798205457 25.1318439846182 25.1318439846182 25.1318439846182 25.1318439846182 25.1318439846182 25.1318439846182 25.1318439846182 25.1318439846182 25.1318439846182 25.1318439846182 25.1318439846182 25.1318439846182 25.1318439846182 25.1318439846182 25.1318439846182 25.1318439846182 25.1318439846182 25.1318439846182 25.1318439846182 25.1318439846182 25.1318439846182 25.1318439846182 25.109869987181835 25.109869987181835 25.1318439846182 25.109869987181835 25.109869987181835 25.109869987181835 25.109869987181835 25.109869987181835 25.109869987181835 25.109869987181835 25.109869987181835 25.109869987181835 25.109869987181835 25.08789598974547 25.109869987181835 25.109869987181835 25.109869987181835 25.109869987181835 25.109869987181835 25.109869987181835 25.109869987181835 25.109869987181835 25.109869987181835 25.08789598974547 25.109869987181835 25.08789598974547 25.109869987181835 25.109869987181835 25.08789598974547 25.109869987181835 25.08789598974547 25.109869987181835 25.109869987181835 25.109869987181835 25.109869987181835 25.109869987181835 25.109869987181835 25.109869987181835 25.08789598974547 25.08789598974547 25.109869987181835 25.109869987181835 25.109869987181835 25.109869987181835 25.109869987181835 25.109869987181835 25.08789598974547 25.109869987181835 25.08789598974547 25.08789598974547 25.08789598974547 25.08789598974547 25.08789598974547 25.08789598974547 25.08789598974547 25.08789598974547 25.08789598974547 25.08789598974547 25.08789598974547 25.08789598974547 25.08789598974547 25.08789598974547 25.08789598974547 25.08789598974547 25.08789598974547 25.08789598974547 25.08789598974547 25.08789598974547 25.08789598974547 25.08789598974547 25.08789598974547 25.08789598974547 25.08789598974547 25.0659219923091 25.08789598974547 25.08789598974547 25.0659219923091 25.08789598974547 25.08789598974547 25.0659219923091 25.0659219923091 25.0659219923091 25.0659219923091 25.08789598974547 25.0659219923091 25.0659219923091 25.0659219923091 25.0659219923091 25.0659219923091 25.0659219923091 25.0659219923091 25.0659219923091 25.0659219923091 25.0659219923091 25.0659219923091 25.0659219923091 25.0659219923091 25.0659219923091 25.0659219923091 25.0659219923091 25.0659219923091 25.0659219923091 25.0659219923091 25.0659219923091 25.0659219923091 25.0659219923091 25.0659219923091 25.0659219923091 25.0659219923091 25.0659219923091 25.0659219923091 25.0659219923091 25.0659219923091 25.043947994872735 25.0659219923091 25.043947994872735 25.0659219923091 25.043947994872735 25.043947994872735 25.043947994872735 25.043947994872735 25.0659219923091 25.0659219923091 25.0659219923091 25.043947994872735 25.0659219923091 25.043947994872735 25.043947994872735 25.043947994872735 25.043947994872735 25.043947994872735 25.0659219923091 25.0659219923091 25.043947994872735 25.043947994872735 25.043947994872735 25.043947994872735 25.043947994872735 25.043947994872735 25.043947994872735 25.043947994872735 25.043947994872735 25.043947994872735 25.043947994872735 25.043947994872735 25.043947994872735 25.043947994872735 25.043947994872735 25.043947994872735 25.043947994872735 25.043947994872735 25.043947994872735 25.043947994872735 25.043947994872735 25.043947994872735 25.043947994872735 25.043947994872735 25.043947994872735 25.043947994872735 25.043947994872735 25.0659219923091 25.043947994872735 25.0659219923091 25.0659219923091 25.0659219923091 25.0659219923091 25.0659219923091 25.08789598974547 25.08789598974547 25.109869987181835 25.1318439846182 25.1318439846182 25.15381798205457 25.15381798205457 25.175791979490935 25.175791979490935 25.21973997436367 25.263687969236404 25.329609961545504 25.417505951290973 25.483427943600073 25.593297930781908 25.681193920527377 25.747115912836477 25.878959897454678 25.966855887200147 26.07672587438198 26.186595861563816 26.274491851309286 26.38436183849112 26.406335835927486 26.36238784105475 26.626075810291155 26.82384178721846 27.241347738509432 27.68082768723677 27.96648965390954 28.427943600073245 29.109137520600623 29.504669474455227 30.07599340780077 30.471525361655374 30.932979307819082 31.548251236037355 32.27339315143747 33.240249038637614 33.98736495147409 34.49276689251053 35.06409082585607 35.59146676432888 36.16279069767442 37.1735945797473 37.7668925105292 38.62387841054752 39.4369163156931 39.986266251602274 41.084966123420614 41.63431605932979 42.13971800036623 42.95275590551181 43.52407983885735 44.271195751693824 44.77659769273027 45.78740157480315 46.51254349020326 47.017945431239696 47.50137337483977 48.18256729536715 48.68796923640359 49.654825123603736 50.160227064640175 50.95129097234938 51.72038088262223 52.3356528108405 53.104742721113354 53.91778062625893 54.4671305621681 55.30214246475005 55.82951840322285 56.598608313495696 57.30177623145944 58.20271012635048 58.42245010071415 58.9937740340597 59.34535799304157 59.82878593664164 60.180369895623514 60.53195385460538 60.90551181102362 61.14722578282366 61.32301776231459 61.49880974180553 61.60867972898736 61.89434169566014 61.93828969053287 62.09210767258744 62.24592565464201 62.33382164438748 62.46566562900568 62.59750961362388 62.68540560336935 62.88317158029665 62.927119575169385 63.058963559787585 63.23475553927852 63.278703534151255 63.366599523896724 63.454495513642186 63.498443508514924 63.542391503387655 63.564365500824024 63.586339498260394 63.586339498260394 63.608313495696756 63.608313495696756 63.608313495696756 63.608313495696756 63.630287493133125 63.608313495696756 63.630287493133125 63.630287493133125 63.630287493133125 63.630287493133125 63.630287493133125 63.630287493133125 63.630287493133125 63.630287493133125 63.608313495696756 63.608313495696756 63.608313495696756 63.608313495696756 63.608313495696756 63.586339498260394 63.586339498260394 63.542391503387655 63.52041750595129 63.498443508514924 63.498443508514924 63.454495513642186 63.454495513642186 63.410547518769455 63.388573521333086 63.366599523896724 63.322651529023986 63.300677531587624 63.300677531587624 63.278703534151255 63.278703534151255 63.278703534151255 63.278703534151255 63.300677531587624 63.278703534151255 63.278703534151255 63.278703534151255 63.278703534151255 63.278703534151255 63.278703534151255 63.278703534151255 63.278703534151255 63.256729536714886 63.23475553927852 63.23475553927852 63.23475553927852 63.212781541842155 63.212781541842155 63.212781541842155 63.212781541842155 63.212781541842155 63.212781541842155 63.190807544405786 63.212781541842155 63.212781541842155 63.212781541842155 63.212781541842155 63.190807544405786 63.16883354696942 63.146859549533055 63.10291155466032 63.080937557223955 63.058963559787585 63.058963559787585 63.036989562351216 63.036989562351216 63.036989562351216 63.036989562351216 63.01501556491485 62.993041567478485 62.993041567478485 62.971067570042116 62.971067570042116 62.94909357260575 62.927119575169385 62.905145577733016 62.88317158029665 62.86119758286028 62.839223585423916 62.81724958798755 62.79527559055118 62.773301593114816 62.773301593114816 62.75132759567845 62.72935359824208 62.75132759567845 62.72935359824208 62.72935359824208 62.707379600805716 62.68540560336935 62.66343160593298 62.64145760849661 62.61948361106025 62.57553561618751 62.55356161875115 62.55356161875115 62.50961362387841 62.50961362387841 62.487639626442046 62.46566562900568 62.44369163156931 62.39974363669658 62.39974363669658 62.37776963926021 62.37776963926021 62.37776963926021 62.35579564182384 62.35579564182384 62.33382164438748 62.31184764695111 62.28987364951474 62.26789965207837 62.26789965207837 62.22395165720564 62.22395165720564 62.20197765976927 62.18000366233291 62.18000366233291 62.18000366233291 62.18000366233291 62.15802966489654 62.15802966489654 62.15802966489654 62.15802966489654 62.15802966489654 62.15802966489654 62.15802966489654 62.15802966489654 62.15802966489654 62.15802966489654 62.15802966489654 62.15802966489654 62.15802966489654 62.15802966489654 62.13605566746017 62.15802966489654 62.15802966489654 62.15802966489654 62.13605566746017 62.13605566746017 62.13605566746017 62.13605566746017 62.13605566746017 62.13605566746017 62.11408167002381 62.11408167002381 62.07013367515107 62.07013367515107 62.02618568027834 62.00421168284197 61.9822376854056 61.96026368796924 61.93828969053287 61.9163156930965 61.89434169566014 61.87236769822377 61.87236769822377 61.87236769822377 61.87236769822377 61.87236769822377 61.8503937007874 61.87236769822377 61.87236769822377 61.87236769822377 61.87236769822377 61.87236769822377 61.87236769822377 61.87236769822377 61.87236769822377 61.87236769822377 61.87236769822377 61.87236769822377 61.87236769822377 61.87236769822377 61.87236769822377 61.87236769822377 61.87236769822377 61.87236769822377 61.87236769822377 61.87236769822377 61.87236769822377 61.87236769822377 61.87236769822377 61.87236769822377 61.87236769822377 61.8503937007874 61.82841970335103 61.82841970335103 61.82841970335103 61.82841970335103 61.82841970335103 61.82841970335103 61.82841970335103 61.82841970335103 61.80644570591467 61.80644570591467 61.80644570591467 61.80644570591467 61.80644570591467 61.80644570591467 61.80644570591467 61.82841970335103 61.82841970335103 61.82841970335103 61.80644570591467 61.80644570591467 61.82841970335103 61.82841970335103 61.82841970335103 61.80644570591467 61.80644570591467 61.82841970335103 61.80644570591467 61.80644570591467 61.80644570591467 61.7844717084783 61.7844717084783 61.76249771104193 61.76249771104193 61.76249771104193 61.76249771104193 61.76249771104193 61.76249771104193 61.74052371360557 61.76249771104193 61.76249771104193 61.76249771104193 61.76249771104193 61.76249771104193 61.76249771104193 61.74052371360557 61.76249771104193 61.74052371360557 61.76249771104193 61.76249771104193 61.76249771104193 61.76249771104193 61.76249771104193 61.76249771104193 61.76249771104193 61.76249771104193 61.74052371360557 61.69657571873283 61.6526277238601 61.586705731551 61.5207837392419 61.36696575718733 61.19117377769639 61.08130379051456 60.88353781358725 60.83958981871452 60.55392785204175 60.312213880241714 60.136421900750776 59.82878593664164 59.433253982787036 59.301409998168836 58.81798205456876 58.55429408533236 58.26863211865959 57.80717817249588 57.34572422633217 56.686504303241165 56.488738326313864 55.983336385277426 55.43398644936825 55.03845449551364 54.64292254165903 54.18146859549533 53.829884636513455 53.104742721113354 52.37960080571324 52.15986083134957 51.63248489287676 51.39077092107672 50.62168101080388 49.984435085149244 49.56692913385827 48.97363120307636 48.35835927485809 47.91887932613075 47.2816334004761 46.842153451748764 46.20490752609412 45.52371360556674 45.0842336568394 44.4250137337484 43.74381981322102 43.282365867057315 42.42537996703901 41.9639260208753 41.54642006958433 41.019044131111514 40.403772202893244 39.8324482695477 39.26112433620216 38.88756637978392 38.40413843618385 37.96465848745651 37.67899652078374 37.327412561801864 37.063724592565464 36.73411463101996 36.294634682292624 36.184764695110786 35.83318073612892 35.61344076176525 35.28383080021974 34.93224684123787 34.69053286943783 34.31697491301959 33.96539095403772 33.61380699505585 33.372093023255815 32.95458707196484 32.5151071232375 32.22944515656473 31.78996520783739 31.328511261673686 30.976927302691813 30.317707379600805 29.284929500091557 28.64768357443692 28.16425563083684 27.68082768723677 27.241347738509432 26.88976377952756 26.757919794909355 26.472257828236586 25.922907892327412 25.791063907709212 25.65921992309101 25.527375938472808 25.43947994872734 25.263687969236404 25.263687969236404 25.175791979490935 25.175791979490935 25.263687969236404 25.241713971800035 25.21973997436367 25.0659219923091 24.91210401025453 24.78026002563633 24.64841604101813 25.37355795641824 25.791063907709212 25.878959897454678 25.835011902581943 25.813037905145578 25.813037905145578 25.835011902581943 25.856985900018312 25.878959897454678 25.856985900018312 25.856985900018312 25.856985900018312 25.835011902581943 25.835011902581943 25.813037905145578 25.791063907709212 25.791063907709212 25.791063907709212 25.769089910272843 25.747115912836477 25.747115912836477 25.72514191540011 25.72514191540011 25.703167917963743 25.681193920527377 25.65921992309101 25.637245925654643 25.615271928218274 25.615271928218274 25.593297930781908 25.571323933345543 25.549349935909174 25.527375938472808 25.527375938472808 25.483427943600073 25.483427943600073 25.461453946163708 25.461453946163708 25.43947994872734 25.417505951290973 25.417505951290973 25.395531953854604 25.37355795641824 25.37355795641824 25.37355795641824 25.35158395898187 25.37355795641824 25.35158395898187 25.35158395898187 25.35158395898187 25.35158395898187 25.35158395898187 25.35158395898187 25.329609961545504 25.329609961545504 25.329609961545504 25.329609961545504 25.329609961545504 25.329609961545504 25.329609961545504 25.30763596410914 25.30763596410914 25.30763596410914 25.30763596410914 25.30763596410914 25.30763596410914 25.30763596410914 25.28566196667277 25.28566196667277 25.30763596410914 25.28566196667277 25.28566196667277 25.28566196667277 25.28566196667277 25.28566196667277 25.28566196667277 25.28566196667277 25.28566196667277 25.28566196667277 25.28566196667277 25.28566196667277 25.263687969236404 25.28566196667277 25.28566196667277 25.28566196667277 25.28566196667277 25.28566196667277 25.28566196667277 25.28566196667277 25.28566196667277 25.28566196667277 25.28566196667277 25.28566196667277 25.28566196667277 25.263687969236404 25.263687969236404 25.263687969236404 25.263687969236404 25.263687969236404 25.263687969236404 25.263687969236404 25.263687969236404 25.263687969236404 25.263687969236404 25.263687969236404 25.263687969236404 25.263687969236404 25.263687969236404 25.263687969236404 25.241713971800035 25.263687969236404 25.263687969236404 25.241713971800035 25.241713971800035 25.263687969236404 25.241713971800035 25.263687969236404 25.263687969236404 25.241713971800035 25.241713971800035 25.241713971800035 25.263687969236404 25.263687969236404 25.241713971800035 25.241713971800035 25.263687969236404 25.241713971800035 25.241713971800035 25.241713971800035 25.241713971800035 25.241713971800035 25.241713971800035 25.241713971800035 25.241713971800035 25.241713971800035 25.241713971800035 25.241713971800035 25.241713971800035 25.241713971800035 25.241713971800035 25.21973997436367 25.241713971800035 25.241713971800035 25.21973997436367 25.241713971800035 25.21973997436367 25.21973997436367 25.21973997436367 25.21973997436367 25.21973997436367 25.197765976927304 25.197765976927304 25.197765976927304 25.197765976927304 25.197765976927304 25.197765976927304 25.197765976927304 25.197765976927304 25.197765976927304 25.197765976927304 25.197765976927304 25.197765976927304 25.197765976927304 25.197765976927304 25.197765976927304 25.197765976927304 25.197765976927304 25.197765976927304 25.197765976927304 25.197765976927304 25.197765976927304 25.197765976927304 25.197765976927304 25.197765976927304 25.197765976927304 25.197765976927304 25.197765976927304 25.197765976927304 25.197765976927304 25.197765976927304 25.175791979490935 25.197765976927304 25.197765976927304 25.197765976927304 25.175791979490935 25.197765976927304 25.175791979490935 25.197765976927304 25.197765976927304 25.197765976927304 25.175791979490935 25.175791979490935 25.175791979490935 25.175791979490935 25.175791979490935 25.175791979490935 25.175791979490935 25.175791979490935 25.175791979490935 25.175791979490935 25.175791979490935 25.175791979490935 25.175791979490935 25.175791979490935 25.175791979490935 25.175791979490935 25.175791979490935 25.175791979490935 25.175791979490935 25.175791979490935 25.175791979490935 25.175791979490935 25.175791979490935 25.175791979490935 25.15381798205457 25.175791979490935 25.15381798205457 25.175791979490935 25.175791979490935 25.175791979490935 25.175791979490935 25.175791979490935 25.175791979490935 25.175791979490935 25.175791979490935 25.175791979490935 25.175791979490935 25.175791979490935 25.175791979490935 25.175791979490935 25.175791979490935 25.175791979490935 25.175791979490935 25.175791979490935 25.175791979490935 25.175791979490935 25.175791979490935 25.175791979490935 25.175791979490935 25.197765976927304 25.197765976927304 25.197765976927304 25.197765976927304 25.197765976927304 25.197765976927304 25.21973997436367 25.21973997436367 25.21973997436367 25.241713971800035 25.263687969236404 25.241713971800035 25.263687969236404 25.263687969236404 25.28566196667277 25.28566196667277 25.28566196667277 25.30763596410914 25.30763596410914 25.30763596410914 25.329609961545504 25.37355795641824 25.37355795641824 25.417505951290973 25.43947994872734 25.483427943600073 25.549349935909174 25.615271928218274 25.703167917963743 25.769089910272843 25.900933894891047 26.01080388207288 26.054751876945616 26.252517853872916 26.38436183849112 26.51620582310932 26.73594579747299 26.999633766709394 27.219373741073063 27.505035707745833 27.702801684673137 28.05438564365501 28.230177623145945 28.40596960263688 28.64768357443692 28.97729353598242 29.131111518036988 29.394799487273392 29.48269547701886 29.790331441127996 30.097967405237135 30.471525361655374 30.845083318073613 31.262589269364586 31.68009522065556 32.16352316425563 32.4491851309284 32.82274308734664 33.32814502838308 33.701702984801315 34.207104925837754 34.7784288591833 35.15198681560154 35.94305072331075 36.338582677165356 36.756088628456325 37.261490569492764 37.61307452847464 38.16242446438381 38.88756637978392 39.28309833363853 39.854422266984066 40.403772202893244 40.71140816700238 41.15088811572972 41.52444607214796 42.24958798754807 42.798937923457245 43.172495879875484 43.655923823475554 43.98553378502106 44.51290972349386 45.04028566196667 45.43581761582128 45.985167551730456 46.534517487639626 46.93004944149423 47.69913935176707 48.11664530305805 48.53415125434902 49.12744918513093 49.56692913385827 50.204175059512906 50.62168101080388 51.43471891594946 52.02801684673137 52.423548800585976 52.775132759567846 53.280534700604285 53.80791063907709 54.29133858267717 54.77476652627723 55.06042849295001 55.63175242629555 55.87346639809559 56.181102362204726 56.554660318622965 56.818348287859365 57.21388024171397 57.49954220838674 57.89507416224135 58.29060611609595 58.55429408533236 59.191540010987 59.433253982787036 59.674967954587075 59.872733931514375 60.092473905878045 60.224317890496245 60.46603186229628 60.597875846914484 60.663797839223584 60.75169382896905 60.795641823841784 60.81761582127815 60.83958981871452 60.83958981871452 60.83958981871452 60.86156381615089 60.88353781358725 60.90551181102362 60.92748580845999 60.94945980589635 60.97143380333272 60.99340780076909 60.99340780076909 60.97143380333272 60.99340780076909 60.99340780076909 61.01538179820545 61.01538179820545 61.01538179820545 61.01538179820545 61.01538179820545 61.03735579564182 61.05932979307819 61.10327778795092 61.14722578282366 61.19117377769639 61.23512177256912 61.27906976744186 61.32301776231459 61.32301776231459 61.34499175975096 61.34499175975096 61.34499175975096 61.36696575718733 61.34499175975096 61.34499175975096 61.34499175975096 61.34499175975096 61.32301776231459 61.34499175975096 61.32301776231459 61.32301776231459 61.32301776231459 61.32301776231459 61.32301776231459 61.32301776231459 61.30104376487823 61.30104376487823 61.30104376487823 61.27906976744186 61.27906976744186 61.25709577000549 61.25709577000549 61.23512177256912 61.23512177256912 61.23512177256912 61.23512177256912 61.25709577000549 61.23512177256912 61.23512177256912 61.23512177256912 61.23512177256912 61.21314777513276 61.21314777513276 61.19117377769639 61.19117377769639 61.16919978026002 61.16919978026002 61.16919978026002 61.16919978026002 61.14722578282366 61.16919978026002 61.14722578282366 61.14722578282366 61.16919978026002 61.16919978026002 61.16919978026002 61.16919978026002 61.16919978026002 61.16919978026002 61.16919978026002 61.16919978026002 61.16919978026002 61.14722578282366 61.16919978026002 61.14722578282366 61.14722578282366 61.14722578282366 61.14722578282366 61.14722578282366 61.16919978026002 61.16919978026002 61.14722578282366 61.14722578282366 61.14722578282366 61.16919978026002 61.14722578282366 61.16919978026002 61.16919978026002 61.16919978026002 61.16919978026002 61.16919978026002 61.14722578282366 61.14722578282366 61.16919978026002 61.14722578282366 61.12525178538729 61.10327778795092 61.08130379051456 61.08130379051456 61.05932979307819 61.05932979307819 61.05932979307819 61.05932979307819 61.05932979307819 61.05932979307819 61.05932979307819 61.03735579564182 61.01538179820545 61.01538179820545 60.99340780076909 60.99340780076909 60.97143380333272 60.94945980589635 60.94945980589635 60.94945980589635 60.92748580845999 60.92748580845999 60.90551181102362 60.90551181102362 60.88353781358725 60.90551181102362 60.90551181102362 60.90551181102362 60.90551181102362 60.90551181102362 60.90551181102362 60.90551181102362 60.90551181102362 60.90551181102362 60.90551181102362 60.90551181102362 60.90551181102362 60.90551181102362 60.90551181102362 60.92748580845999 60.92748580845999 60.90551181102362 60.90551181102362 60.90551181102362 60.90551181102362 60.90551181102362 60.90551181102362 60.90551181102362 60.90551181102362 60.90551181102362 60.90551181102362 60.90551181102362 60.90551181102362 60.88353781358725 60.90551181102362 60.90551181102362 60.90551181102362 60.90551181102362 60.90551181102362 60.90551181102362 60.90551181102362 60.90551181102362 60.90551181102362 60.90551181102362 60.90551181102362 60.90551181102362 60.92748580845999 60.90551181102362 60.90551181102362 60.90551181102362 60.90551181102362 60.90551181102362 60.90551181102362 60.90551181102362 60.90551181102362 60.81761582127815 60.663797839223584 60.55392785204175 60.356161875114445 60.202343893059876 59.982603918696206 59.76286394433254 59.54312396996887 59.367331990477936 59.16956601355063 59.03772202893243 58.59824208020509 58.46639809558689 58.29060611609595 58.11481413660502 57.93902215711408 57.74125618018678 57.323750228895804 57.257828236586704 56.77440029298663 56.51071232375023 56.07123237502289 55.76359641091375 55.23622047244095 54.6648965390954 54.203442592931694 53.588170664713424 52.95092473905878 52.423548800585976 51.7423548800586 51.03918696209485 50.577733015931145 49.874565097967405 49.43508514924007 48.53415125434902 48.05072331074895 47.65519135689434 47.061893426112434 46.490569492766895 46.13898553378502 45.63358359274858 45.10620765427578 44.6227797106757 44.24922175425746 43.765793810657385 43.45815784654825 42.82091192089361 42.49130195934811 42.00787401574803 41.65629005676616 41.12891411829335 40.62351217725691 40.227980223402305 39.744552279802235 39.26112433620216 38.93151437465666 38.47006042849295 38.18439846182018 37.65702252334737 37.3054385643655 37.063724592565464 36.843984618201794 36.51437465665629 36.316608679728986 36.00897271561985 35.61344076176525 35.37172678996521 35.02014283098333 34.7784288591833 34.49276689251053 34.11920893609229 33.701702984801315 33.306171030946714 33.04248306171031 32.646951107855706 32.2514191540011 31.94378318989196 31.37245925654642 31.108771287310017 30.823109320637247 30.42757736678264 30.119941402673504 29.724409448818896 29.153085515473357 28.362021607764145 27.329243728254898 27.17542574620033 26.97765976927303 26.494231825672955 26.186595861563816 25.900933894891047 25.791063907709212 25.747115912836477 25.615271928218274 25.593297930781908 25.50540194103644 25.483427943600073 25.461453946163708 25.461453946163708 25.483427943600073 25.703167917963743 26.23054385643655 26.318439846182017 26.36238784105475 26.406335835927486 26.472257828236586 26.42830983336385 26.36238784105475 26.274491851309286 26.120673869254716 26.07672587438198 25.944881889763778 25.835011902581943 25.813037905145578 25.813037905145578 25.813037905145578 25.835011902581943 25.835011902581943 25.835011902581943 25.856985900018312 25.878959897454678 25.878959897454678 25.878959897454678 25.878959897454678 25.878959897454678 25.856985900018312 25.856985900018312 25.813037905145578 25.791063907709212 25.769089910272843 25.747115912836477 25.747115912836477 25.747115912836477 25.72514191540011 25.72514191540011 25.72514191540011 25.703167917963743 25.703167917963743 25.703167917963743 25.681193920527377 25.681193920527377 25.681193920527377 25.681193920527377 25.65921992309101 25.65921992309101 25.65921992309101 25.65921992309101 25.637245925654643 25.637245925654643 25.615271928218274 25.615271928218274 25.593297930781908 25.593297930781908 25.571323933345543 25.571323933345543 25.571323933345543 25.571323933345543 25.549349935909174 25.549349935909174 25.549349935909174 25.549349935909174 25.549349935909174 25.527375938472808 25.527375938472808 25.527375938472808 25.50540194103644 25.527375938472808 25.50540194103644 25.50540194103644 25.50540194103644 25.483427943600073 25.50540194103644 25.50540194103644 25.483427943600073 25.483427943600073 25.50540194103644 25.50540194103644 25.50540194103644 25.50540194103644 25.50540194103644 25.50540194103644 25.50540194103644 25.50540194103644 25.483427943600073 25.483427943600073 25.50540194103644 25.50540194103644 25.483427943600073 25.483427943600073 25.483427943600073 25.50540194103644 25.50540194103644 25.50540194103644 25.50540194103644 25.50540194103644 25.50540194103644 25.50540194103644 25.50540194103644 25.50540194103644 25.50540194103644 25.50540194103644 25.50540194103644 25.50540194103644 25.50540194103644 25.50540194103644 25.50540194103644 25.50540194103644 25.50540194103644 25.50540194103644 25.50540194103644 25.483427943600073 25.483427943600073 25.483427943600073 25.483427943600073 25.461453946163708 25.461453946163708 25.461453946163708 25.461453946163708 25.461453946163708 25.461453946163708 25.43947994872734 25.417505951290973 25.417505951290973 25.417505951290973 25.417505951290973 25.395531953854604 25.395531953854604 25.395531953854604 25.395531953854604 25.37355795641824 25.395531953854604 25.395531953854604 25.37355795641824 25.395531953854604 25.37355795641824 25.37355795641824 25.395531953854604 25.37355795641824 25.37355795641824 25.37355795641824 25.37355795641824 25.37355795641824 25.35158395898187 25.35158395898187 25.35158395898187 25.35158395898187 25.35158395898187 25.35158395898187 25.35158395898187 25.35158395898187 25.35158395898187 25.35158395898187 25.35158395898187 25.35158395898187 25.35158395898187 25.35158395898187 25.35158395898187 25.329609961545504 25.35158395898187 25.329609961545504 25.329609961545504 25.35158395898187 25.35158395898187 25.329609961545504 25.329609961545504 25.329609961545504 25.329609961545504 25.329609961545504 25.329609961545504 25.35158395898187 25.329609961545504 25.329609961545504 25.329609961545504 25.329609961545504 25.329609961545504 25.329609961545504 25.329609961545504 25.329609961545504 25.329609961545504 25.35158395898187 25.35158395898187 25.35158395898187 25.35158395898187 25.35158395898187 25.35158395898187 25.37355795641824 25.37355795641824 25.395531953854604 25.395531953854604 25.417505951290973 25.43947994872734 25.461453946163708 25.483427943600073 25.50540194103644 25.549349935909174 25.615271928218274 25.637245925654643 25.681193920527377 25.747115912836477 25.835011902581943 25.922907892327412 26.01080388207288 26.120673869254716 26.274491851309286 26.406335835927486 26.494231825672955 26.626075810291155 26.691997802600255 26.82384178721846 26.95568577183666 27.02160776414576 27.131477751327594 27.17542574620033 27.285295733382164 27.373191723127633 27.439113715436733 27.570957700054933 27.614905694927668 27.768723676982237 28.05438564365501 28.18622962827321 28.449917597509614 28.69163156930965 29.021241530855153 29.350851492400658 29.592565464200696 29.944149423182566 30.251785387291704 30.471525361655374 30.823109320637247 31.108771287310017 31.30653726423732 31.68009522065556 31.767991210401025 32.00970518220106 32.2514191540011 32.42721113349204 32.734847097601175 32.932613074528476 33.130379051455776 33.48196301043765 33.723676982237684 34.009338948910454 34.33894891045596 34.55868888481963 34.88829884636513 35.0421168284197 35.54751876945615 35.87712873100165 36.118842702801686 36.536348654092656 36.953854605383626 37.4372825489837 37.7668925105292 38.11847646951108 38.82164438747482 39.19520234389306 39.5687603003113 40.118110236220474 40.84325215162058 41.23878410547519 41.63431605932979 41.9639260208753 42.51327595678447 43.040651895257284 43.61197582860282 44.11737776963926 44.66672770554844 44.99633766709394 45.50173960813038 45.853323567112255 46.380699505585056 46.886101446621495 47.23768540560337 47.74308734663981 48.24848928767625 48.62204724409449 49.2812671671855 49.610877128731005 49.962461087712875 50.46786302874931 50.79747299029482 51.28090093389489 51.89617286211316 52.2038088262223 52.68723676982238 53.01684673136788 53.302508698040654 53.67606665445889 53.961728621131655 54.51107855704083 54.90661051089544 55.17029848013185 55.65372642373192 55.82951840322285 56.07123237502289 56.444790331441126 56.598608313495696 56.752426295550265 56.884270280168465 57.038088262223035 57.257828236586704 57.323750228895804 57.41164621864127 57.49954220838674 57.56546420069584 57.65336019044131 57.69730818531404 57.80717817249588 57.87310016480498 57.91704815967771 57.96099615455045 58.00494414942318 58.00494414942318 58.02691814685955 58.04889214429592 58.04889214429592 58.04889214429592 58.04889214429592 58.04889214429592 58.04889214429592 58.04889214429592 58.04889214429592 58.04889214429592 58.04889214429592 58.07086614173228 58.09284013916865 58.11481413660502 58.13678813404138 58.15876213147775 58.18073612891412 58.22468412378685 58.24665812122322 58.29060611609595 58.31258011353232 58.31258011353232 58.31258011353232 58.31258011353232 58.31258011353232 58.31258011353232 58.31258011353232 58.31258011353232 58.33455411096869 58.33455411096869 58.35652810840505 58.35652810840505 58.35652810840505 58.35652810840505 58.35652810840505 58.35652810840505 58.33455411096869 58.33455411096869 58.33455411096869 58.33455411096869 58.35652810840505 58.33455411096869 58.33455411096869 58.33455411096869 58.33455411096869 58.33455411096869 58.33455411096869 58.33455411096869 58.33455411096869 58.33455411096869 58.33455411096869 58.33455411096869 58.33455411096869 58.33455411096869 58.33455411096869 58.33455411096869 58.33455411096869 58.33455411096869 58.33455411096869 58.33455411096869 58.33455411096869 58.33455411096869 58.33455411096869 58.33455411096869 58.33455411096869 58.33455411096869 58.33455411096869 58.33455411096869 58.33455411096869 58.33455411096869 58.33455411096869 58.31258011353232 58.33455411096869 58.33455411096869 58.31258011353232 58.31258011353232 58.31258011353232 58.31258011353232 58.31258011353232 58.31258011353232 58.29060611609595 58.29060611609595 58.26863211865959 58.26863211865959 58.24665812122322 58.24665812122322 58.24665812122322 58.24665812122322 58.24665812122322 58.24665812122322 58.24665812122322 58.24665812122322 58.24665812122322 58.24665812122322 58.24665812122322 58.24665812122322 58.24665812122322 58.24665812122322 58.24665812122322 58.24665812122322 58.26863211865959 58.26863211865959 58.26863211865959 58.24665812122322 58.24665812122322 58.24665812122322 58.24665812122322 58.24665812122322 58.24665812122322 58.24665812122322 58.24665812122322 58.24665812122322 58.24665812122322 58.24665812122322 58.24665812122322 58.22468412378685 58.22468412378685 58.22468412378685 58.20271012635048 58.20271012635048 58.18073612891412 58.18073612891412 58.18073612891412 58.18073612891412 58.18073612891412 58.18073612891412 58.18073612891412 58.18073612891412 58.18073612891412 58.18073612891412 58.18073612891412 58.18073612891412 58.18073612891412 58.18073612891412 58.18073612891412 58.18073612891412 58.18073612891412 58.18073612891412 58.18073612891412 58.15876213147775 58.18073612891412 58.15876213147775 58.18073612891412 58.15876213147775 58.15876213147775 58.15876213147775 58.15876213147775 58.15876213147775 58.15876213147775 58.13678813404138 58.13678813404138 58.13678813404138 58.13678813404138 58.13678813404138 58.13678813404138 58.11481413660502 58.09284013916865 58.07086614173228 58.04889214429592 58.04889214429592 58.02691814685955 58.00494414942318 58.00494414942318 57.98297015198681 57.98297015198681 57.96099615455045 57.96099615455045 57.93902215711408 57.93902215711408 57.93902215711408 57.93902215711408 57.93902215711408 57.93902215711408 57.93902215711408 57.93902215711408 57.93902215711408 57.93902215711408 57.91704815967771 57.91704815967771 57.89507416224135 57.87310016480498 57.87310016480498 57.87310016480498 57.85112616736861 57.82915216993224 57.76323017762314 57.67533418787768 57.58743819813221 57.41164621864127 57.169932246841235 56.9941402673503 56.686504303241165 56.466764328877495 56.09320637245926 55.67570042116829 55.41201245193188 54.97253250320454 54.5330525544772 54.02765061344076 53.368430690349754 53.01684673136788 52.841054751876946 52.31367881340414 51.72038088262223 50.86339498260392 50.445889031312944 49.962461087712875 49.25929316974913 48.77586522614906 48.05072331074895 47.30360739791247 46.820179454312395 45.89727156198498 45.45779161325764 45.04028566196667 44.22724775682109 44.02948177989379 43.568027833730085 42.95275590551181 42.68906793627541 42.38143197216627 41.98590001831167 41.74418604651163 41.26075810291155 40.97509613623878 40.68943416956601 40.206006225965936 39.898370261856805 39.39296832082036 39.107306354147596 38.88756637978392 38.36019044131112 38.07452847463834 37.7009705182201 37.327412561801864 37.08569859000183 36.73411463101996 36.51437465665629 36.09686870536532 35.89910272843802 35.70133675151071 35.45962277971068 35.19593481047427 35.0421168284197 34.7784288591833 34.53671488738326 34.31697491301959 34.09723493865592 33.943416956601354 33.701702984801315 33.416041018128546 33.196301043764876 32.91063907709211 32.69089910272844 32.3832631386193 32.0536531770738 31.833913202710125 31.57022523347372 31.130745284746382 30.845083318073613 30.471525361655374 30.163889397546235 29.48269547701886 28.823475553927853 28.25215162058231 27.87859366416407 27.636879692364037 27.461087712873102 27.285295733382164 27.10950375389123 26.88976377952756 26.67002380516389 26.538179820545686 26.36238784105475 26.098699871818347 25.791063907709212 25.593297930781908 25.43947994872734 25.483427943600073 25.37355795641824 25.35158395898187 25.15381798205457 24.91210401025453 24.8681560153818 24.890130012818165 24.8681560153818 24.956052005127265 24.978026002563634 24.978026002563634 25.1318439846182 25.30763596410914 25.527375938472808 25.681193920527377 25.703167917963743 25.527375938472808 25.37355795641824 25.263687969236404 25.593297930781908 25.703167917963743 25.835011902581943 25.835011902581943 25.856985900018312 25.900933894891047 25.944881889763778 25.944881889763778 25.922907892327412 25.900933894891047 25.878959897454678 25.878959897454678 25.856985900018312 25.835011902581943 25.835011902581943 25.813037905145578 25.769089910272843 25.769089910272843 25.747115912836477 25.703167917963743 25.681193920527377 25.681193920527377 25.65921992309101 25.637245925654643 25.615271928218274 25.593297930781908 25.549349935909174 25.549349935909174 25.527375938472808 25.50540194103644 25.483427943600073 25.483427943600073 25.461453946163708 25.461453946163708 25.43947994872734 25.43947994872734 25.417505951290973 25.417505951290973 25.417505951290973 25.417505951290973 25.417505951290973 25.395531953854604 25.395531953854604 25.395531953854604 25.395531953854604 25.395531953854604 25.37355795641824 25.37355795641824 25.37355795641824 25.37355795641824 25.35158395898187 25.35158395898187 25.35158395898187 25.35158395898187 25.35158395898187 25.35158395898187 25.35158395898187 25.35158395898187 25.35158395898187 25.35158395898187 25.329609961545504 25.35158395898187 25.329609961545504 25.329609961545504 25.329609961545504 25.329609961545504 25.329609961545504 25.329609961545504 25.329609961545504 25.329609961545504 25.329609961545504 25.329609961545504 25.329609961545504 25.329609961545504 25.329609961545504 25.329609961545504 25.329609961545504 25.30763596410914 25.329609961545504 25.329609961545504 25.329609961545504 25.329609961545504 25.30763596410914 25.329609961545504 25.329609961545504 25.30763596410914 25.30763596410914 25.30763596410914 25.329609961545504 25.30763596410914 25.329609961545504 25.329609961545504 25.30763596410914 25.329609961545504 25.329609961545504 25.30763596410914 25.329609961545504 25.329609961545504 25.30763596410914 25.329609961545504 25.30763596410914 25.329609961545504 25.329609961545504 25.329609961545504 25.329609961545504 25.329609961545504 25.329609961545504 25.329609961545504 25.329609961545504 25.329609961545504 25.329609961545504 25.329609961545504 25.329609961545504 25.329609961545504 25.329609961545504 25.329609961545504 25.329609961545504 25.329609961545504 25.329609961545504 25.329609961545504 25.329609961545504 25.329609961545504 25.329609961545504 25.329609961545504 25.329609961545504 25.329609961545504 25.329609961545504 25.30763596410914 25.30763596410914 25.329609961545504 25.30763596410914 25.30763596410914 25.30763596410914 25.30763596410914 25.30763596410914 25.30763596410914 25.30763596410914 25.30763596410914 25.30763596410914 25.30763596410914 25.30763596410914 25.30763596410914 25.30763596410914 25.30763596410914 25.30763596410914 25.30763596410914 25.30763596410914 25.30763596410914 25.30763596410914 25.30763596410914 25.30763596410914 25.30763596410914 25.30763596410914 25.28566196667277 25.30763596410914 25.30763596410914 25.30763596410914 25.28566196667277 25.30763596410914 25.30763596410914 25.30763596410914 25.28566196667277 25.28566196667277 25.28566196667277 25.30763596410914 25.30763596410914 25.28566196667277 25.30763596410914 25.28566196667277 25.28566196667277 25.30763596410914 25.30763596410914 25.28566196667277 25.30763596410914 25.28566196667277 25.30763596410914 25.28566196667277 25.30763596410914 25.28566196667277 25.30763596410914 25.30763596410914 25.30763596410914 25.30763596410914 25.30763596410914 25.30763596410914 25.329609961545504 25.329609961545504 25.35158395898187 25.35158395898187 25.35158395898187 25.35158395898187 25.37355795641824 25.37355795641824 25.395531953854604 25.43947994872734 25.461453946163708 25.50540194103644 25.549349935909174 25.615271928218274 25.681193920527377 25.747115912836477 25.878959897454678 25.988829884636512 26.07672587438198 26.164621864127447 26.36238784105475 26.45028383080022 26.626075810291155 26.779893792345725 27.04358176158213 27.505035707745833 27.636879692364037 28.05438564365501 28.515839589818714 28.867423548800588 29.372825489837027 29.70243545138253 30.22981138985534 30.757187328328143 31.08679728987365 31.65812122321919 32.09760117194653 32.49313312580114 32.97656106940121 33.48196301043765 33.96539095403772 34.6465848745651 35.0421168284197 35.41567478483794 35.81120673869255 36.44845266434719 36.80003662332906 37.15162058231093 37.67899652078374 38.36019044131112 38.55795641823842 39.06335835927486 39.4369163156931 39.986266251602274 40.55759018494781 40.90917414392968 41.43655008240249 41.9639260208753 42.293535982420806 42.97472990294818 43.304339864493684 43.67789782091192 44.3590917414393 44.71067570042116 45.26002563633034 45.83134956967588 46.22688152353049 46.79820545687603 47.039919428676065 47.76506134407617 48.38033327229445 48.77586522614906 49.3471891594946 49.962461087712875 50.577733015931145 50.99523896722212 51.34682292620399 51.91814685954954 52.46749679545871 52.841054751876946 53.346456692913385 53.851858633949824 54.24739058780443 54.64292254165903 54.86266251602271 55.10437648782275 55.49990844167735 55.67570042116829 55.917414392968325 56.115180369895626 56.26899835195019 56.444790331441126 56.598608313495696 56.7304522981139 56.8622962827321 56.950192272477565 57.038088262223035 57.08203625709577 57.14795824940487 57.191906244277604 57.21388024171397 57.235854239150335 57.235854239150335 57.235854239150335 57.235854239150335 57.235854239150335 57.235854239150335 57.235854239150335 57.235854239150335 57.235854239150335 57.235854239150335 57.235854239150335 57.235854239150335 57.21388024171397 57.21388024171397 57.21388024171397 57.235854239150335 57.21388024171397 57.21388024171397 57.21388024171397 57.21388024171397 57.235854239150335 57.21388024171397 57.21388024171397 57.21388024171397 57.21388024171397 57.235854239150335 57.235854239150335 57.21388024171397 57.21388024171397 57.21388024171397 57.235854239150335 57.235854239150335 57.235854239150335 57.235854239150335 57.235854239150335 57.235854239150335 57.235854239150335 57.21388024171397 57.21388024171397 57.235854239150335 57.21388024171397 57.21388024171397 57.21388024171397 57.21388024171397 57.21388024171397 57.21388024171397 57.21388024171397 57.21388024171397 57.21388024171397 57.21388024171397 57.21388024171397 57.191906244277604 57.191906244277604 57.169932246841235 57.169932246841235 57.169932246841235 57.125984251968504 57.125984251968504 57.104010254532135 57.08203625709577 57.08203625709577 57.08203625709577 57.060062259659404 57.060062259659404 57.060062259659404 57.060062259659404 57.060062259659404 57.060062259659404 57.060062259659404 57.08203625709577 57.08203625709577 57.060062259659404 57.060062259659404 57.08203625709577 57.08203625709577 57.08203625709577 57.08203625709577 57.060062259659404 57.08203625709577 57.08203625709577 57.08203625709577 57.060062259659404 57.08203625709577 57.08203625709577 57.08203625709577 57.08203625709577 57.060062259659404 57.060062259659404 57.08203625709577 57.060062259659404 57.08203625709577 57.060062259659404 57.060062259659404 57.060062259659404 57.060062259659404 57.060062259659404 57.060062259659404 57.060062259659404 57.060062259659404 57.060062259659404 57.060062259659404 57.038088262223035 57.038088262223035 57.038088262223035 57.038088262223035 57.060062259659404 57.060062259659404 57.060062259659404 57.060062259659404 57.060062259659404 57.060062259659404 57.060062259659404 57.038088262223035 57.060062259659404 57.038088262223035 57.038088262223035 57.060062259659404 57.038088262223035 57.038088262223035 57.038088262223035 57.038088262223035 57.038088262223035 57.038088262223035 57.016114264786665 56.9941402673503 56.9941402673503 56.9941402673503 56.972166269913934 56.972166269913934 56.972166269913934 56.972166269913934 56.972166269913934 56.972166269913934 56.972166269913934 56.9941402673503 56.972166269913934 56.9941402673503 56.972166269913934 56.9941402673503 56.9941402673503 56.9941402673503 56.972166269913934 56.972166269913934 56.972166269913934 56.9941402673503 56.972166269913934 56.9941402673503 56.972166269913934 56.972166269913934 56.972166269913934 56.972166269913934 56.972166269913934 56.972166269913934 56.972166269913934 56.972166269913934 56.972166269913934 56.972166269913934 56.972166269913934 56.972166269913934 56.9941402673503 56.972166269913934 56.972166269913934 56.9941402673503 56.972166269913934 56.972166269913934 56.9941402673503 56.972166269913934 56.972166269913934 56.972166269913934 56.972166269913934 56.972166269913934 56.972166269913934 56.950192272477565 56.950192272477565 56.950192272477565 56.950192272477565 56.950192272477565 56.9282182750412 56.950192272477565 56.9282182750412 56.9282182750412 56.9282182750412 56.9282182750412 56.906244277604834 56.8622962827321 56.8622962827321 56.840322285295734 56.818348287859365 56.77440029298663 56.77440029298663 56.70847830067753 56.70847830067753 56.686504303241165 56.664530305804796 56.620582310932065 56.598608313495696 56.51071232375023 56.444790331441126 56.378868339132026 56.312946346822926 56.20307635964109 56.13715436733199 55.983336385277426 55.93938839040469 55.80754440578649 55.63175242629555 55.52188243911371 55.32411646218641 55.01648049807727 54.84068851858634 54.44515656473173 54.401208569859 54.137520600622594 53.80791063907709 53.566196667277055 53.08276872367698 52.68723676982238 52.40157480314961 51.8082768723677 51.69840688518586 51.17103094671306 50.643655008240245 50.314045046694744 49.786669108221936 49.2812671671855 48.95165720563999 48.44625526460355 47.91887932613075 47.56729536714887 47.039919428676065 46.600439479948726 46.07306354147592 45.50173960813038 45.12818165171214 44.4250137337484 44.073429774766524 43.699871818348285 43.106573887566384 42.776963926020876 42.44735396447537 41.89800402856619 41.61234206189343 41.17286211316609 40.86522614905695 40.447720197765975 40.030214246475005 39.7006042849295 39.305072331074896 38.82164438747482 38.33821644387475 38.00860648232924 37.67899652078374 37.1735945797473 36.668192638710856 36.338582677165356 35.78923274125618 35.10803882072881 34.80040285661967 34.40487090276506 34.11920893609229 33.83354696941952 33.372093023255815 33.152353048892145 32.82274308734664 32.62497711041934 32.33931514374657 32.03167917963743 31.833913202710125 31.57022523347372 31.30653726423732 31.08679728987365 30.845083318073613 30.691265336019043 30.339681377037174 30.097967405237135 29.9880974180553 29.724409448818896 29.41677348470976 29.219007507782457 28.889397546236953 28.515839589818714 28.208203625709576 27.856619666727706 27.592931697491302 27.461087712873102 27.461087712873102 27.395165720564 27.329243728254898 27.285295733382164 27.197399743636698 27.153451748763963 27.131477751327594 27.087529756454863 27.04358176158213 26.97765976927303 26.911737776963925 26.867789782091194 26.80186778978209 26.713971800036624 26.648049807727524 26.58212781541842 26.538179820545686 26.494231825672955 26.42830983336385 26.38436183849112 26.29646584874565 26.252517853872916 26.23054385643655 26.164621864127447 26.120673869254716 26.098699871818347 26.054751876945616 26.032777879509247 25.966855887200147 25.900933894891047 25.856985900018312 25.791063907709212 25.769089910272843 25.747115912836477 25.72514191540011 25.703167917963743 25.65921992309101 25.637245925654643 25.593297930781908 25.571323933345543 25.549349935909174 25.549349935909174 25.50540194103644 25.50540194103644 25.50540194103644 25.483427943600073 25.483427943600073 25.483427943600073 25.483427943600073 25.461453946163708 25.461453946163708 25.461453946163708 25.461453946163708 25.43947994872734 25.43947994872734 25.417505951290973 25.417505951290973 25.417505951290973 25.395531953854604 25.395531953854604 25.395531953854604 25.395531953854604 25.417505951290973 25.395531953854604 25.395531953854604 25.395531953854604 25.395531953854604 25.395531953854604 25.37355795641824 25.37355795641824 25.37355795641824 25.37355795641824 25.37355795641824 25.37355795641824 25.37355795641824 25.37355795641824 25.37355795641824 25.35158395898187 25.37355795641824 25.37355795641824 25.37355795641824 25.37355795641824 25.37355795641824 25.37355795641824 25.37355795641824 25.37355795641824 25.37355795641824 25.37355795641824 25.37355795641824 25.37355795641824 25.37355795641824 25.37355795641824 25.37355795641824 25.37355795641824 25.35158395898187 25.37355795641824 25.37355795641824 25.37355795641824 25.37355795641824 25.37355795641824 25.37355795641824 25.37355795641824 25.37355795641824 25.37355795641824 25.37355795641824 25.37355795641824 25.37355795641824 25.37355795641824 25.37355795641824 25.37355795641824 25.37355795641824 25.37355795641824 25.37355795641824 25.37355795641824 25.37355795641824 25.37355795641824 25.37355795641824 25.37355795641824 25.37355795641824 25.37355795641824 25.37355795641824 25.37355795641824 25.37355795641824 25.37355795641824 25.37355795641824 25.37355795641824 25.37355795641824 25.37355795641824 25.37355795641824 25.37355795641824 25.37355795641824 25.37355795641824 25.37355795641824 25.37355795641824 25.37355795641824 25.37355795641824 25.37355795641824 25.37355795641824 25.37355795641824 25.37355795641824 25.37355795641824 25.37355795641824 25.37355795641824 25.37355795641824 25.37355795641824 25.37355795641824 25.37355795641824 25.37355795641824 25.37355795641824 25.37355795641824 25.37355795641824 25.37355795641824 25.37355795641824 25.37355795641824 25.37355795641824 25.37355795641824 25.37355795641824 25.37355795641824 25.37355795641824 25.35158395898187 25.35158395898187 25.35158395898187 25.37355795641824 25.37355795641824 25.35158395898187 25.35158395898187 25.37355795641824 25.37355795641824 25.37355795641824 25.35158395898187 25.35158395898187 25.37355795641824 25.37355795641824 25.35158395898187 25.35158395898187 25.35158395898187 25.35158395898187 25.35158395898187 25.37355795641824 25.35158395898187 25.35158395898187 25.35158395898187 25.35158395898187 25.35158395898187 25.35158395898187 25.35158395898187 25.35158395898187 25.35158395898187 25.35158395898187 25.35158395898187 25.329609961545504 25.35158395898187 25.35158395898187 25.35158395898187 25.329609961545504 25.35158395898187 25.35158395898187 25.35158395898187 25.329609961545504 25.329609961545504 25.329609961545504 25.329609961545504 25.329609961545504 25.35158395898187 25.35158395898187 25.329609961545504 25.329609961545504 25.329609961545504 25.329609961545504 25.329609961545504 25.329609961545504 25.329609961545504 25.329609961545504 25.329609961545504 25.329609961545504 25.329609961545504 25.329609961545504 25.329609961545504 25.329609961545504 25.329609961545504 25.329609961545504 25.329609961545504 25.329609961545504 25.329609961545504 25.329609961545504 25.35158395898187 25.35158395898187 25.35158395898187 25.35158395898187 25.35158395898187 25.35158395898187 25.37355795641824 25.37355795641824 25.395531953854604 25.395531953854604 25.395531953854604 25.417505951290973 25.43947994872734 25.461453946163708 25.50540194103644 25.549349935909174 25.593297930781908 25.65921992309101 25.72514191540011 25.791063907709212 25.856985900018312 25.944881889763778 25.988829884636512 26.120673869254716 26.208569859000182 26.340413843618386 26.42830983336385 26.58212781541842 26.82384178721846 27.131477751327594 27.329243728254898 27.636879692364037 28.09833363852774 28.40596960263688 28.933345541109688 29.526643471891596 29.944149423182566 30.493499359091743 30.86705731550998 31.37245925654642 31.855887200146494 32.16352316425563 32.800769089910276 33.064457059146676 33.39406702069218 33.855520966855885 34.31697491301959 34.82237685405603 35.32777879509247 35.63541475920161 36.14081670023805 36.51437465665629 36.909906610510895 37.5691265336019 37.98663248489288 38.53598242080205 39.107306354147596 39.5028383080022 40.096136238784105 40.49166819263871 41.10694012085699 41.91997802600257 42.31550997985717 42.930781908075446 43.54605383629372 43.787767808093754 44.3590917414393 44.77659769273027 45.32594762863944 46.13898553378502 46.622413477385095 47.17176341329427 47.76506134407617 48.18256729536715 48.77586522614906 49.19337117744003 49.742721113349205 50.29207104925838 50.643655008240245 51.149056949276684 51.6764328877495 52.11591283647684 52.57736678264054 52.775132759567846 53.14869071598608 53.54422266984069 53.80791063907709 54.203442592931694 54.70884453396813 55.08240249038637 55.30214246475005 55.54385643655009 55.76359641091375 56.181102362204726 56.400842336568395 56.64255630836843 56.8622962827321 57.038088262223035 57.235854239150335 57.389672221204904 57.56546420069584 57.76323017762314 57.89507416224135 58.04889214429592 58.20271012635048 58.29060611609595 58.46639809558689 58.55429408533236 58.66416407251419 58.79600805713239 58.8619300494415 58.97180003662333 59.01574803149606 59.10364402124153 59.14759201611427 59.16956601355063 59.191540010987 59.301409998168836 59.34535799304157 59.3893059879143 59.433253982787036 59.433253982787036 59.4552279802234 59.4552279802234 59.4552279802234 59.4552279802234 59.433253982787036 59.4552279802234 59.4552279802234 59.4552279802234 59.433253982787036 59.433253982787036 59.433253982787036 59.433253982787036 59.433253982787036 59.3893059879143 59.367331990477936 59.34535799304157 59.34535799304157 59.34535799304157 59.3233839956052 59.3233839956052 59.3233839956052 59.3233839956052 59.3233839956052 59.3233839956052 59.3233839956052 59.3233839956052 59.3233839956052 59.301409998168836 59.301409998168836 59.301409998168836 59.301409998168836 59.27943600073247 59.27943600073247 59.27943600073247 59.301409998168836 59.301409998168836 59.2574620032961 59.21351400842337 59.191540010987 59.14759201611427 59.10364402124153 59.08167002380517 59.03772202893243 58.9937740340597 58.97180003662333 58.9278520417506 58.90587804431423 58.83995605200513 58.83995605200513 58.81798205456876 58.79600805713239 58.77403405969603 58.77403405969603 58.77403405969603 58.77403405969603 58.77403405969603 58.77403405969603 58.77403405969603 58.77403405969603 58.77403405969603 58.77403405969603 58.77403405969603 58.77403405969603 58.77403405969603 58.77403405969603 58.77403405969603 58.77403405969603 58.77403405969603 58.79600805713239 58.77403405969603 58.77403405969603 58.77403405969603 58.77403405969603 58.75206006225966 58.68613806995056 58.66416407251419 58.62021607764146 58.57626808276872 58.55429408533236 58.51034609045962 58.44442409815052 58.42245010071415 58.40047610327779 58.40047610327779 58.37850210584142 58.37850210584142 58.37850210584142 58.35652810840505 58.33455411096869 58.31258011353232 58.29060611609595 58.29060611609595 58.26863211865959 58.26863211865959 58.26863211865959 58.26863211865959 58.29060611609595 58.26863211865959 58.26863211865959 58.26863211865959 58.26863211865959 58.26863211865959 58.26863211865959 58.26863211865959 58.24665812122322 58.22468412378685 58.20271012635048 58.18073612891412 58.15876213147775 58.13678813404138 58.09284013916865 58.04889214429592 58.00494414942318 57.96099615455045 57.89507416224135 57.87310016480498 57.80717817249588 57.76323017762314 57.74125618018678 57.71928218275041 57.69730818531404 57.67533418787768 57.67533418787768 57.67533418787768 57.67533418787768 57.67533418787768 57.67533418787768 57.67533418787768 57.67533418787768 57.67533418787768 57.65336019044131 57.63138619300494 57.609412195568574 57.58743819813221 57.56546420069584 57.52151620582311 57.52151620582311 57.47756821095037 57.45559421351401 57.43362021607764 57.41164621864127 57.389672221204904 57.389672221204904 57.36769822376854 57.36769822376854 57.34572422633217 57.34572422633217 57.323750228895804 57.323750228895804 57.30177623145944 57.30177623145944 57.30177623145944 57.30177623145944 57.30177623145944 57.30177623145944 57.30177623145944 57.30177623145944 57.27980223402307 57.27980223402307 57.257828236586704 57.257828236586704 57.235854239150335 57.235854239150335 57.235854239150335 57.257828236586704 57.257828236586704 57.257828236586704 57.257828236586704 57.257828236586704 57.27980223402307 57.257828236586704 57.27980223402307 57.257828236586704 57.27980223402307 57.27980223402307 57.30177623145944 57.30177623145944 57.30177623145944 57.30177623145944 57.30177623145944 57.27980223402307 57.27980223402307 57.27980223402307 57.30177623145944 57.30177623145944 57.30177623145944 57.30177623145944 57.30177623145944 57.30177623145944 57.30177623145944 57.30177623145944 57.27980223402307 57.27980223402307 57.27980223402307 57.27980223402307 57.27980223402307 57.27980223402307 57.27980223402307 57.27980223402307 57.27980223402307 57.27980223402307 57.27980223402307 57.30177623145944 57.30177623145944 57.30177623145944 57.30177623145944 57.30177623145944 57.30177623145944 57.27980223402307 57.27980223402307 57.257828236586704 57.257828236586704 57.235854239150335 57.21388024171397 57.191906244277604 57.169932246841235 57.169932246841235 57.169932246841235 57.14795824940487 57.125984251968504 57.08203625709577 57.060062259659404 57.016114264786665 56.972166269913934 56.9282182750412 56.818348287859365 56.64255630836843 56.554660318622965 56.356894341695664 56.20307635964109 55.89544039553195 55.56583043398645 55.30214246475005 54.90661051089544 54.57700054934993 54.11554660318623 53.61014466214979 53.236586705731554 52.62131477751328 52.02801684673137 51.58853689800403 50.75352499542208 50.314045046694744 49.676799121040105 49.06152719282183 48.64402124153085 48.24848928767625 47.61124336202161 47.039919428676065 46.490569492766895 46.117011536348656 45.61160959531222 45.06225965940304 44.71067570042116 44.02948177989379 43.699871818348285 43.348287859366415 42.82091192089361 42.46932796191174 41.54642006958433 41.17286211316609 40.77733015931148 40.42574620032961 39.898370261856805 39.48086431056583 38.82164438747482 38.49203442592932 38.00860648232924 37.59110053103827 37.28346456692913 36.953854605383626 36.624244643838125 36.250686687419886 35.921076725874386 35.70133675151071 35.37172678996521 35.06409082585607 34.75645486174693 34.44881889763779 34.25105292071049 34.05328694378319 33.723676982237684 33.503937007874015 33.152353048892145 32.66892510529207 32.42721113349204 32.07562717451016 31.81193920527376 31.548251236037355 31.24061527192822 30.932979307819082 30.647317341146312 30.383629371909905 30.22981138985534 30.010071415491666 29.944149423182566 29.70243545138253 29.48269547701886 29.350851492400658 29.153085515473357 28.889397546236953 28.69163156930965 28.38399560520051 28.16425563083684 27.81267167185497 27.658853689800402 27.548983702618568 27.395165720564 27.285295733382164 27.197399743636698 27.131477751327594 27.131477751327594 27.10950375389123 27.065555759018494 27.065555759018494 27.065555759018494 27.065555759018494 27.04358176158213 26.97765976927303 26.95568577183666 26.88976377952756 26.779893792345725 26.713971800036624 26.626075810291155 26.51620582310932 26.472257828236586 26.38436183849112 26.340413843618386 26.274491851309286 26.23054385643655 26.208569859000182 26.186595861563816 26.164621864127447 26.14264786669108 26.120673869254716 26.098699871818347 26.07672587438198 26.07672587438198 26.054751876945616 26.032777879509247 26.01080388207288 26.01080388207288 25.988829884636512 25.966855887200147 25.944881889763778 25.944881889763778 25.922907892327412 25.922907892327412 25.900933894891047 25.878959897454678 25.856985900018312 25.856985900018312 25.835011902581943 25.835011902581943 25.813037905145578 25.769089910272843 25.747115912836477 25.72514191540011 25.703167917963743 25.681193920527377 25.681193920527377 25.65921992309101 25.65921992309101 25.65921992309101 25.637245925654643 25.637245925654643 25.615271928218274 25.615271928218274 25.615271928218274 25.615271928218274 25.593297930781908 25.593297930781908 25.593297930781908 25.571323933345543 25.571323933345543 25.571323933345543 25.571323933345543 25.571323933345543 25.571323933345543 25.571323933345543 25.549349935909174 25.549349935909174 25.549349935909174 25.549349935909174 25.549349935909174 25.549349935909174 25.549349935909174 25.527375938472808 25.527375938472808 25.527375938472808 25.50540194103644 25.50540194103644 25.50540194103644 25.50540194103644 25.50540194103644 25.483427943600073 25.483427943600073 25.483427943600073 25.50540194103644 25.483427943600073 25.483427943600073 25.483427943600073 25.483427943600073 25.483427943600073 25.483427943600073 25.483427943600073 25.483427943600073 25.483427943600073 25.461453946163708 25.461453946163708 25.461453946163708 25.461453946163708 25.461453946163708 25.461453946163708 25.461453946163708 25.461453946163708 25.461453946163708 25.461453946163708 25.461453946163708 25.43947994872734 25.461453946163708 25.461453946163708 25.43947994872734 25.43947994872734 25.43947994872734 25.43947994872734 25.43947994872734 25.43947994872734 25.43947994872734 25.417505951290973 25.417505951290973 25.417505951290973 25.417505951290973 25.417505951290973 25.417505951290973 25.395531953854604 25.395531953854604 25.395531953854604 25.395531953854604 25.395531953854604 25.37355795641824 25.37355795641824 25.37355795641824 25.37355795641824 25.37355795641824 25.37355795641824 25.37355795641824 25.37355795641824 25.37355795641824 25.37355795641824 25.35158395898187 25.37355795641824 25.37355795641824 25.35158395898187 25.37355795641824 25.35158395898187 25.35158395898187 25.37355795641824 25.37355795641824 25.37355795641824 25.35158395898187 25.37355795641824 25.35158395898187 25.35158395898187 25.37355795641824 25.37355795641824 25.35158395898187 25.37355795641824 25.35158395898187 25.35158395898187 25.37355795641824 25.37355795641824 25.35158395898187 25.35158395898187 25.37355795641824 25.35158395898187 25.35158395898187 25.35158395898187 25.35158395898187 25.35158395898187 25.35158395898187 25.35158395898187 25.35158395898187 25.37355795641824 25.35158395898187 25.35158395898187 25.35158395898187 25.35158395898187 25.35158395898187 25.35158395898187 25.35158395898187 25.35158395898187 25.35158395898187 25.35158395898187 25.35158395898187 25.35158395898187 25.35158395898187 25.35158395898187 25.35158395898187 25.35158395898187 25.35158395898187 25.35158395898187 25.35158395898187 25.329609961545504 25.329609961545504 25.35158395898187 25.35158395898187 25.329609961545504 25.329609961545504 25.329609961545504 25.329609961545504 25.329609961545504 25.329609961545504 25.329609961545504 25.329609961545504 25.329609961545504 25.329609961545504 25.329609961545504 25.329609961545504 25.329609961545504 25.30763596410914 25.30763596410914 25.329609961545504 25.30763596410914 25.329609961545504 25.329609961545504 25.329609961545504 25.30763596410914 25.329609961545504 25.30763596410914 25.329609961545504 25.30763596410914 25.30763596410914 25.30763596410914 25.30763596410914 25.30763596410914 25.30763596410914 25.30763596410914 25.30763596410914 25.30763596410914 25.30763596410914 25.30763596410914 25.30763596410914 25.30763596410914 25.28566196667277 25.30763596410914 25.28566196667277 25.28566196667277 25.28566196667277 25.28566196667277 25.30763596410914 25.28566196667277 25.30763596410914 25.30763596410914 25.28566196667277 25.30763596410914 25.28566196667277 25.28566196667277 25.28566196667277 25.28566196667277 25.28566196667277 25.28566196667277 25.28566196667277 25.28566196667277 25.30763596410914 25.28566196667277 25.28566196667277 25.28566196667277 25.28566196667277 25.28566196667277 25.28566196667277 25.28566196667277 25.28566196667277 25.28566196667277 25.28566196667277 25.28566196667277 25.28566196667277 25.28566196667277 25.28566196667277 25.30763596410914 25.30763596410914 25.30763596410914 25.30763596410914 25.30763596410914 25.30763596410914 25.30763596410914 25.329609961545504 25.329609961545504 25.30763596410914 25.329609961545504 25.329609961545504 25.329609961545504 25.329609961545504 25.35158395898187 25.35158395898187 25.37355795641824 25.37355795641824 25.417505951290973 25.43947994872734 25.483427943600073 25.50540194103644 25.549349935909174 25.615271928218274 25.681193920527377 25.703167917963743 25.791063907709212 25.835011902581943 25.900933894891047 25.944881889763778 26.054751876945616 26.14264786669108 26.23054385643655 26.29646584874565 26.45028383080022 26.538179820545686 26.691997802600255 26.867789782091194 27.02160776414576 27.351217725691264 27.592931697491302 27.96648965390954 28.362021607764145 28.669657571873284 29.065189525727888 29.48269547701886 29.746383446255265 30.119941402673504 30.537447353964474 31.042849295000916 31.35048525911005 31.702069218091925 32.3173411463102 32.69089910272844 33.262223036073976 33.83354696941952 34.22907892327412 34.69053286943783 35.41567478483794 35.81120673869255 36.426478666910825 36.80003662332906 37.59110053103827 37.96465848745651 38.36019044131112 38.95348837209302 39.546786302874935 40.096136238784105 40.49166819263871 40.84325215162058 41.59036806445706 41.9639260208753 42.31550997985717 43.01867789782091 43.370261856802784 43.765793810657385 44.4909357260575 44.86449368247574 45.41384361838491 45.94121955685772 46.292803515839594 46.86412744918513 47.215711408167 47.74308734663981 48.29243728254899 48.64402124153085 49.12744918513093 49.610877128731005 50.072331074894706 50.336019044131106 50.62168101080388 51.03918696209485 51.41274491851309 51.6764328877495 52.2038088262223 52.62131477751328 52.863028749313315 53.236586705731554 53.346456692913385 53.632118659586155 53.93975462369529 54.04962461087713 54.203442592931694 54.31331258011353 54.35726057498627 54.42318256729537 54.4671305621681 54.48910455960447 54.51107855704083 54.5330525544772 54.55502655191357 54.55502655191357 54.55502655191357 54.55502655191357 54.55502655191357 54.55502655191357 54.55502655191357 54.55502655191357 54.55502655191357 54.55502655191357 54.57700054934993 54.57700054934993 54.62094854422267 54.64292254165903 54.68687053653177 54.73081853140451 54.77476652627723 54.79674052371361 54.84068851858634 54.86266251602271 54.88463651345907 54.90661051089544 54.92858450833181 54.92858450833181 54.92858450833181 54.92858450833181 54.92858450833181 54.90661051089544 54.92858450833181 54.90661051089544 54.90661051089544 54.90661051089544 54.90661051089544 54.92858450833181 54.90661051089544 54.90661051089544 54.90661051089544 54.90661051089544 54.90661051089544 54.90661051089544 54.90661051089544 54.92858450833181 54.90661051089544 54.90661051089544 54.90661051089544 54.90661051089544 54.90661051089544 54.90661051089544 54.88463651345907 54.88463651345907 54.88463651345907 54.88463651345907 54.88463651345907 54.88463651345907 54.88463651345907 54.86266251602271 54.84068851858634 54.81871452114997 54.79674052371361 54.77476652627723 54.75279252884087 54.73081853140451 54.6648965390954 54.64292254165903 54.5989745467863 54.57700054934993 54.5330525544772 54.51107855704083 54.48910455960447 54.4671305621681 54.44515656473173 54.42318256729537 54.401208569859 54.37923457242263 54.35726057498627 54.31331258011353 54.31331258011353 54.269364585240794 54.24739058780443 54.24739058780443 54.22541659036806 54.22541659036806 54.203442592931694 54.203442592931694 54.18146859549533 54.15949459805896 54.137520600622594 54.137520600622594 54.137520600622594 54.137520600622594 54.137520600622594 54.11554660318623 54.11554660318623 54.09357260574986 54.11554660318623 54.09357260574986 54.071598608313494 54.071598608313494 54.04962461087713 54.04962461087713 54.04962461087713 54.04962461087713 54.04962461087713 54.04962461087713 54.04962461087713 54.04962461087713 54.04962461087713 54.04962461087713 54.04962461087713 54.04962461087713 54.04962461087713 54.04962461087713 54.071598608313494 54.04962461087713 54.071598608313494 54.071598608313494 54.071598608313494 54.071598608313494 54.071598608313494 54.071598608313494 54.071598608313494 54.071598608313494 54.071598608313494 54.04962461087713 54.071598608313494 54.071598608313494 54.071598608313494 54.071598608313494 54.071598608313494 54.04962461087713 54.04962461087713 54.071598608313494 54.071598608313494 54.071598608313494 54.04962461087713 54.04962461087713 54.071598608313494 54.04962461087713 54.071598608313494 54.071598608313494 54.071598608313494 54.071598608313494 54.071598608313494 54.071598608313494 54.071598608313494 54.071598608313494 54.071598608313494 54.071598608313494 54.071598608313494 54.071598608313494 54.071598608313494 54.071598608313494 54.04962461087713 54.04962461087713 54.071598608313494 54.071598608313494 54.071598608313494 54.071598608313494 54.071598608313494 54.071598608313494 54.071598608313494 54.071598608313494 54.071598608313494 54.071598608313494 54.071598608313494 54.071598608313494 54.071598608313494 54.04962461087713 54.071598608313494 54.071598608313494 54.04962461087713 54.04962461087713 54.04962461087713 54.02765061344076 54.02765061344076 54.02765061344076 54.02765061344076 54.02765061344076 54.02765061344076 54.02765061344076 54.00567661600439 53.98370261856803 53.98370261856803 53.961728621131655 53.961728621131655 53.93975462369529 53.93975462369529 53.91778062625893 53.895806628822555 53.895806628822555 53.87383263138619 53.87383263138619 53.87383263138619 53.851858633949824 53.851858633949824 53.851858633949824 53.829884636513455 53.829884636513455 53.80791063907709 53.785936641640724 53.763962644204355 53.763962644204355 53.74198864676799 53.720014649331624 53.720014649331624 53.720014649331624 53.720014649331624 53.720014649331624 53.720014649331624 53.720014649331624 53.720014649331624 53.720014649331624 53.720014649331624 53.720014649331624 53.720014649331624 53.720014649331624 53.720014649331624 53.720014649331624 53.720014649331624 53.698040651895255 53.698040651895255 53.698040651895255 53.698040651895255 53.698040651895255 53.698040651895255 53.698040651895255 53.698040651895255 53.698040651895255 53.698040651895255 53.720014649331624 53.720014649331624 53.720014649331624 53.720014649331624 53.720014649331624 53.720014649331624 53.720014649331624 53.720014649331624 53.720014649331624 53.720014649331624 53.720014649331624 53.720014649331624 53.720014649331624 53.720014649331624 53.720014649331624 53.698040651895255 53.698040651895255 53.698040651895255 53.67606665445889 53.67606665445889 53.654092657022524 53.632118659586155 53.61014466214979 53.588170664713424 53.588170664713424 53.566196667277055 53.54422266984069 53.54422266984069 53.54422266984069 53.54422266984069 53.52224867240432 53.54422266984069 53.54422266984069 53.54422266984069 53.52224867240432 53.54422266984069 53.52224867240432 53.52224867240432 53.52224867240432 53.500274674967955 53.500274674967955 53.52224867240432 53.500274674967955 53.52224867240432 53.52224867240432 53.52224867240432 53.52224867240432 53.52224867240432 53.52224867240432 53.52224867240432 53.52224867240432 53.500274674967955 53.434352682658854 53.324482695477016 53.258560703167916 53.104742721113354 52.994872733931516 52.797106757004215 52.57736678264054 52.40157480314961 52.22578282365867 51.83025086980406 51.58853689800403 51.10510895440396 50.97326496978575 50.55575901849478 50.072331074894706 49.544955136421905 49.171397180003666 48.66599523896723 48.27046328511261 47.63321735945797 47.215711408167 46.556491485075995 45.74345357993042 45.32594762863944 44.90844167734847 44.3590917414393 43.941585790148324 43.370261856802784 42.75498992858451 42.13971800036623 41.56839406702069 41.19483611060245 40.77733015931148 40.140084233656836 39.744552279802235 39.26112433620216 38.88756637978392 38.38216443874748 37.72294451565647 37.5691265336019 36.953854605383626 36.646218641274494 36.338582677165356 35.986998718183486 35.70133675151071 35.28383080021974 34.60263687969236 34.36092290789233 34.09723493865592 33.83354696941952 33.61380699505585 33.32814502838308 33.152353048892145 32.82274308734664 32.581029115546606 32.33931514374657 32.16352316425563 32.07562717451016 31.74601721296466 31.52627723860099 31.37245925654642 31.174693279619117 30.976927302691813 30.845083318073613 30.625343343709943 30.44955136421901 30.14191540010987 29.834279436000735 29.592565464200696 29.219007507782457 28.867423548800588 28.62570957700055 28.208203625709576 27.988463651345906 27.90056766160044 27.768723676982237 27.724775682109502 27.636879692364037 27.592931697491302 27.548983702618568 27.505035707745833 27.483061710309467 27.417139718000367 27.351217725691264 27.307269730818533 27.219373741073063 27.10950375389123 27.04358176158213 26.911737776963925 26.82384178721846 26.691997802600255 26.538179820545686 26.42830983336385 26.23054385643655 26.07672587438198 26.01080388207288 25.922907892327412 25.878959897454678 25.835011902581943 25.791063907709212 25.791063907709212 25.747115912836477 25.72514191540011 25.703167917963743 25.65921992309101 25.637245925654643 25.593297930781908 25.571323933345543 25.549349935909174 25.50540194103644 25.461453946163708 25.461453946163708 25.43947994872734 25.43947994872734 25.417505951290973 25.417505951290973 25.417505951290973 25.417505951290973 25.417505951290973 25.417505951290973 25.417505951290973 25.417505951290973 25.395531953854604 25.395531953854604 25.395531953854604 25.395531953854604 25.395531953854604 25.395531953854604 25.395531953854604 25.395531953854604 25.395531953854604 25.395531953854604 25.395531953854604 25.395531953854604 25.37355795641824 25.37355795641824 25.37355795641824 25.37355795641824 25.37355795641824 25.37355795641824 25.37355795641824 25.35158395898187 25.35158395898187 25.35158395898187 25.35158395898187 25.35158395898187 25.329609961545504 25.329609961545504 25.35158395898187 25.329609961545504 25.329609961545504 25.329609961545504 25.329609961545504 25.329609961545504 25.329609961545504 25.329609961545504 25.329609961545504 25.30763596410914 25.329609961545504 25.30763596410914 25.30763596410914 25.30763596410914 25.30763596410914 25.30763596410914 25.30763596410914 25.28566196667277 25.28566196667277 25.28566196667277 25.28566196667277 25.28566196667277 25.28566196667277 25.28566196667277 25.28566196667277 25.28566196667277 25.28566196667277 25.28566196667277 25.28566196667277 25.263687969236404 25.28566196667277 25.28566196667277 25.28566196667277 25.263687969236404 25.263687969236404 25.263687969236404 25.263687969236404 25.263687969236404 25.263687969236404 25.263687969236404 25.263687969236404 25.263687969236404 25.263687969236404 25.263687969236404 25.263687969236404 25.263687969236404 25.263687969236404 25.263687969236404 25.263687969236404 25.263687969236404 25.241713971800035 25.263687969236404 25.263687969236404 25.263687969236404 25.263687969236404 25.263687969236404 25.263687969236404 25.263687969236404 25.263687969236404 25.263687969236404 25.263687969236404 25.241713971800035 25.241713971800035 25.241713971800035 25.241713971800035 25.241713971800035 25.241713971800035 25.241713971800035 25.241713971800035 25.241713971800035 25.241713971800035 25.241713971800035 25.241713971800035 25.241713971800035 25.241713971800035 25.241713971800035 25.241713971800035 25.241713971800035 25.241713971800035 25.241713971800035 25.241713971800035 25.241713971800035 25.241713971800035 25.241713971800035 25.241713971800035 25.241713971800035 25.241713971800035 25.241713971800035 25.241713971800035 25.241713971800035 25.241713971800035 25.241713971800035 25.241713971800035 25.241713971800035 25.241713971800035 25.241713971800035 25.241713971800035 25.241713971800035 25.241713971800035 25.241713971800035 25.21973997436367 25.241713971800035 25.21973997436367 25.21973997436367 25.21973997436367 25.21973997436367 25.21973997436367 25.21973997436367 25.21973997436367 25.21973997436367 25.21973997436367 25.21973997436367 25.21973997436367 25.21973997436367 25.21973997436367 25.21973997436367 25.21973997436367 25.21973997436367 25.21973997436367 25.21973997436367 25.21973997436367 25.21973997436367 25.21973997436367 25.21973997436367 25.21973997436367 25.21973997436367 25.241713971800035 25.241713971800035 25.241713971800035 25.241713971800035 25.241713971800035 25.263687969236404 25.28566196667277 25.30763596410914 25.329609961545504 25.35158395898187 25.395531953854604 25.43947994872734 25.483427943600073 25.571323933345543 25.637245925654643 25.747115912836477 25.900933894891047 25.944881889763778 26.054751876945616 26.208569859000182 26.29646584874565 26.472257828236586 26.60410181285479 26.933711774400294 27.241347738509432 27.351217725691264 27.87859366416407 28.16425563083684 28.47189159494598 28.999267533418788 29.284929500091557 29.76835744369163 30.29573338216444 30.603369346273574 31.108771287310017 31.702069218091925 32.03167917963743 32.581029115546606 32.95458707196484 33.74565097967405 34.11920893609229 34.7125068668742 35.34975279252884 35.63541475920161 36.09686870536532 36.712140633583594 37.15162058231093 37.98663248489288 38.62387841054752 39.06335835927486 39.722578282365866 40.162058231093205 40.62351217725691 41.45852407983885 41.87603003112983 42.49130195934811 43.106573887566384 43.52407983885735 44.139351767075624 44.5568577183666 45.19410364402124 45.853323567112255 46.314777513275956 46.995971433803334 47.63321735945797 48.07269730818531 48.90770921076726 49.32521516205823 49.742721113349205 50.35799304156748 50.77549899285845 51.36879692364036 52.1378868339132 52.53341878776781 53.104742721113354 53.456326680095216 53.80791063907709 54.44515656473173 54.64292254165903 55.19227247756821 55.60977842885919 55.89544039553195 56.247024354513826 56.51071232375023 56.796374290423 57.060062259659404 57.235854239150335 57.41164621864127 57.54349020325947 57.67533418787768 57.80717817249588 57.85112616736861 57.87310016480498 57.91704815967771 57.93902215711408 57.96099615455045 57.93902215711408 57.96099615455045 57.96099615455045 57.96099615455045 57.93902215711408 57.93902215711408 57.91704815967771 57.89507416224135 57.87310016480498 57.85112616736861 57.85112616736861 57.82915216993224 57.80717817249588 57.80717817249588 57.80717817249588 57.78520417505951 57.78520417505951 57.78520417505951 57.76323017762314 57.74125618018678 57.71928218275041 57.67533418787768 57.65336019044131 57.609412195568574 57.56546420069584 57.49954220838674 57.43362021607764 57.389672221204904 57.323750228895804 57.257828236586704 57.21388024171397 57.125984251968504 57.060062259659404 56.972166269913934 56.906244277604834 56.8622962827321 56.840322285295734 56.796374290423 56.77440029298663 56.7304522981139 56.70847830067753 56.64255630836843 56.598608313495696 56.57663431605933 56.57663431605933 56.57663431605933 56.554660318622965 56.554660318622965 56.554660318622965 56.554660318622965 56.554660318622965 56.554660318622965 56.554660318622965 56.554660318622965 56.554660318622965 56.554660318622965 56.554660318622965 56.554660318622965 56.51071232375023 56.466764328877495 56.422816334004764 56.400842336568395 56.356894341695664 56.33492034425929 56.312946346822926 56.29097234938656 56.26899835195019 56.247024354513826 56.22505035707746 56.22505035707746 56.20307635964109 56.181102362204726 56.15912836476836 56.13715436733199 56.13715436733199 56.115180369895626 56.115180369895626 56.09320637245926 56.07123237502289 56.07123237502289 56.049258377586526 56.02728438015016 56.00531038271379 55.983336385277426 55.983336385277426 55.96136238784105 55.96136238784105 55.93938839040469 55.93938839040469 55.917414392968325 55.89544039553195 55.89544039553195 55.87346639809559 55.87346639809559 55.87346639809559 55.87346639809559 55.87346639809559 55.87346639809559 55.87346639809559 55.87346639809559 55.87346639809559 55.87346639809559 55.85149240065922 55.85149240065922 55.85149240065922 55.82951840322285 55.82951840322285 55.82951840322285 55.82951840322285 55.80754440578649 55.80754440578649 55.80754440578649 55.78557040835012 55.78557040835012 55.76359641091375 55.76359641091375 55.74162241347739 55.74162241347739 55.74162241347739 55.74162241347739 55.74162241347739 55.74162241347739 55.74162241347739 55.74162241347739 55.71964841604102 55.71964841604102 55.69767441860465 55.69767441860465 55.69767441860465 55.69767441860465 55.69767441860465 55.67570042116829 55.67570042116829 55.65372642373192 55.65372642373192 55.63175242629555 55.63175242629555 55.60977842885919 55.60977842885919 55.60977842885919 55.60977842885919 55.58780443142282 55.60977842885919 55.60977842885919 55.60977842885919 55.60977842885919 55.63175242629555 55.60977842885919 55.63175242629555 55.63175242629555 55.63175242629555 55.60977842885919 55.60977842885919 55.60977842885919 55.60977842885919 55.56583043398645 55.54385643655009 55.52188243911371 55.49990844167735 55.49990844167735 55.49990844167735 55.49990844167735 55.49990844167735 55.49990844167735 55.49990844167735 55.49990844167735 55.49990844167735 55.49990844167735 55.49990844167735 55.49990844167735 55.49990844167735 55.49990844167735 55.49990844167735 55.49990844167735 55.47793444424098 55.49990844167735 55.47793444424098 55.49990844167735 55.49990844167735 55.49990844167735 55.49990844167735 55.49990844167735 55.49990844167735 55.49990844167735 55.49990844167735 55.49990844167735 55.49990844167735 55.49990844167735 55.49990844167735 55.49990844167735 55.49990844167735 55.49990844167735 55.47793444424098 55.47793444424098 55.47793444424098 55.47793444424098 55.47793444424098 55.47793444424098 55.47793444424098 55.47793444424098 55.47793444424098 55.47793444424098 55.47793444424098 55.47793444424098 55.45596044680461 55.45596044680461 55.45596044680461 55.45596044680461 55.43398644936825 55.43398644936825 55.41201245193188 55.41201245193188 55.41201245193188 55.39003845449551 55.39003845449551 55.39003845449551 55.39003845449551 55.36806445705915 55.36806445705915 55.36806445705915 55.39003845449551 55.39003845449551 55.39003845449551 55.39003845449551 55.39003845449551 55.39003845449551 55.41201245193188 55.41201245193188 55.43398644936825 55.43398644936825 55.43398644936825 55.45596044680461 55.45596044680461 55.45596044680461 55.45596044680461 55.45596044680461 55.45596044680461 55.45596044680461 55.45596044680461 55.45596044680461 55.45596044680461 55.45596044680461 55.45596044680461 55.45596044680461 55.45596044680461 55.45596044680461 55.45596044680461 55.45596044680461 55.45596044680461 55.45596044680461 55.45596044680461 55.45596044680461 55.45596044680461 55.45596044680461 55.45596044680461 55.45596044680461 55.45596044680461 55.45596044680461 55.45596044680461 55.45596044680461 55.45596044680461 55.45596044680461 55.45596044680461 55.45596044680461 55.45596044680461 55.47793444424098 55.47793444424098 55.49990844167735 55.49990844167735 55.52188243911371 55.56583043398645 55.56583043398645 55.58780443142282 55.58780443142282 55.60977842885919 55.60977842885919 55.60977842885919 55.60977842885919 55.60977842885919 55.60977842885919 55.58780443142282 55.58780443142282 55.60977842885919 55.60977842885919 55.58780443142282 55.58780443142282 55.58780443142282 55.58780443142282 55.58780443142282 55.58780443142282 55.58780443142282 55.56583043398645 55.56583043398645 55.54385643655009 55.52188243911371 55.49990844167735 55.47793444424098 55.45596044680461 55.43398644936825 55.39003845449551 55.36806445705915 55.34609045962278 55.30214246475005 55.28016846731368 55.25819446987731 55.23622047244095 55.23622047244095 55.23622047244095 55.23622047244095 55.23622047244095 55.23622047244095 55.25819446987731 55.25819446987731 55.25819446987731 55.25819446987731 55.28016846731368 55.28016846731368 55.32411646218641 55.34609045962278 55.36806445705915 55.41201245193188 55.41201245193188 55.43398644936825 55.47793444424098 55.47793444424098 55.47793444424098 55.49990844167735 55.49990844167735 55.54385643655009 55.54385643655009 55.58780443142282 55.60977842885919 55.60977842885919 55.65372642373192 55.65372642373192 55.67570042116829 55.65372642373192 55.67570042116829 55.65372642373192 55.65372642373192 55.58780443142282 55.41201245193188 55.23622047244095 55.08240249038637 54.90661051089544 54.62094854422267 54.42318256729537 53.851858633949824 53.632118659586155 53.346456692913385 52.906976744186046 52.55539278520418 51.85222486724043 51.52261490569492 51.083134956967584 50.46786302874931 50.028383080021975 49.39113715436733 48.95165720563999 48.09467130562168 47.43545138253067 46.973997436366965 46.534517487639626 45.87529756454862 45.45779161325764 44.6227797106757 44.22724775682109 43.699871818348285 43.194469877311846 42.842885918329976 42.46932796191174 42.05182201062077 41.56839406702069 40.90917414392968 40.75535616187511 40.27192821827504 39.8324482695477 39.524812305438566 39.06335835927486 38.64585240798389 38.33821644387475 37.89873649514741 37.48123054385644 37.21754257462003 36.756088628456325 36.426478666910825 36.00897271561985 35.83318073612892 35.61344076176525 35.19593481047427 34.99816883354697 34.7125068668742 34.44881889763779 34.22907892327412 34.009338948910454 33.591832997619484 33.350119025819446 33.020509064273945 32.82274308734664 32.5151071232375 32.22944515656473 32.03167917963743 31.68009522065556 31.46035524629189 31.24061527192822 30.86705731550998 30.669291338582678 30.405603369346274 30.119941402673504 29.812305438564366 29.526643471891596 29.328877494964292 29.131111518036988 28.823475553927853 28.69163156930965 28.515839589818714 28.38399560520051 28.296099615455045 28.208203625709576 28.16425563083684 28.12030763596411 28.09833363852774 28.076359641091376 28.05438564365501 28.03241164621864 28.010437648782275 27.988463651345906 27.944515656473172 27.90056766160044 27.834645669291337 27.768723676982237 27.702801684673137 27.614905694927668 27.592931697491302 27.527009705182202 27.505035707745833 27.461087712873102 27.395165720564 27.373191723127633 27.329243728254898 27.263321735945798 27.219373741073063 27.131477751327594 27.065555759018494 26.95568577183666 26.82384178721846 26.757919794909355 26.626075810291155 26.538179820545686 26.472257828236586 26.42830983336385 26.406335835927486 26.38436183849112 26.36238784105475 26.36238784105475 26.36238784105475 26.340413843618386 26.318439846182017 26.29646584874565 26.274491851309286 26.252517853872916 26.23054385643655 26.208569859000182 26.186595861563816 26.164621864127447 26.14264786669108 26.098699871818347 26.054751876945616 26.032777879509247 25.966855887200147 25.922907892327412 25.856985900018312 25.791063907709212 25.747115912836477 25.703167917963743 25.65921992309101 25.637245925654643 25.615271928218274 25.593297930781908 25.571323933345543 25.571323933345543 25.571323933345543 25.549349935909174 25.549349935909174 25.549349935909174 25.549349935909174 25.549349935909174 25.527375938472808 25.527375938472808 25.527375938472808 25.527375938472808 25.527375938472808 25.50540194103644 25.483427943600073 25.483427943600073 25.483427943600073 25.483427943600073 25.483427943600073 25.461453946163708 25.461453946163708 25.461453946163708 25.461453946163708 25.43947994872734 25.43947994872734 25.417505951290973 25.43947994872734 25.417505951290973 25.417505951290973 25.417505951290973 25.417505951290973 25.417505951290973 25.395531953854604 25.395531953854604 25.395531953854604 25.395531953854604 25.395531953854604 25.395531953854604 25.395531953854604 25.395531953854604 25.395531953854604 25.395531953854604 25.395531953854604 25.395531953854604 25.395531953854604 25.395531953854604 25.395531953854604 25.395531953854604 25.395531953854604 25.395531953854604 25.395531953854604 25.395531953854604 25.395531953854604 25.395531953854604 25.395531953854604 25.395531953854604 25.395531953854604 25.395531953854604 25.395531953854604 25.395531953854604 25.395531953854604 25.395531953854604 25.395531953854604 25.37355795641824 25.395531953854604 25.395531953854604 25.395531953854604 25.395531953854604 25.395531953854604 25.395531953854604 25.37355795641824 25.395531953854604 25.395531953854604 25.37355795641824 25.395531953854604 25.37355795641824 25.37355795641824 25.37355795641824 25.37355795641824 25.37355795641824 25.37355795641824 25.37355795641824 25.395531953854604 25.37355795641824 25.37355795641824 25.37355795641824 25.37355795641824 25.395531953854604 25.395531953854604 25.395531953854604 25.37355795641824 25.37355795641824 25.395531953854604 25.395531953854604 25.395531953854604 25.37355795641824 25.395531953854604 25.395531953854604 25.395531953854604 25.395531953854604 25.37355795641824 25.395531953854604 25.395531953854604 25.37355795641824 25.395531953854604 25.395531953854604 25.395531953854604 25.37355795641824 25.37355795641824 25.395531953854604 25.37355795641824 25.37355795641824 25.37355795641824 25.37355795641824 25.37355795641824 25.37355795641824 25.37355795641824 25.37355795641824 25.37355795641824 25.37355795641824 25.37355795641824 25.37355795641824 25.37355795641824 25.37355795641824 25.37355795641824 25.37355795641824 25.37355795641824 25.37355795641824 25.37355795641824 25.395531953854604 25.37355795641824 25.37355795641824 25.37355795641824 25.395531953854604 25.395531953854604 25.37355795641824 25.37355795641824 25.37355795641824 25.37355795641824 25.395531953854604 25.37355795641824 25.395531953854604 25.395531953854604 25.395531953854604 25.395531953854604 25.395531953854604 25.417505951290973 25.417505951290973 25.417505951290973 25.417505951290973 25.417505951290973 25.43947994872734 25.461453946163708 25.461453946163708 25.50540194103644 25.527375938472808 25.637245925654643 25.681193920527377 25.747115912836477 25.813037905145578 25.922907892327412 26.01080388207288 26.164621864127447 26.252517853872916 26.406335835927486 26.58212781541842 26.691997802600255 26.845815784654825 27.065555759018494 27.285295733382164 27.68082768723677 27.988463651345906 28.449917597509614 28.933345541109688 29.41677348470976 29.746383446255265 30.22981138985534 30.537447353964474 31.064823292437282 31.394433253982786 32.09760117194653 32.62497711041934 32.998535066837576 33.54788500274675 33.701702984801315 34.22907892327412 34.9761948361106 35.48159677714705 35.89910272843802 36.360556674601725 36.73411463101996 37.45925654642007 37.78886650796557 38.18439846182018 38.71177440029299 39.107306354147596 39.678630287493135 40.27192821827504 40.667460172129644 41.48049807727523 41.9639260208753 42.40340596960264 42.95275590551181 43.392235854239146 44.007507782457424 44.84251968503937 45.28199963376671 45.919245559421356 46.16095953122139 46.71030946713056 47.30360739791247 47.85295733382164 48.38033327229445 48.88573521333089 49.237319172312766 49.720747115912836 50.050357077458344 50.511811023622045 50.90734297747665 51.17103094671306 51.56656290056766 51.89617286211316 52.11591283647684 52.46749679545871 52.66526277238601 52.81908075444058 53.03882072880425 53.192638710858816 53.412378685222485 53.654092657022524 53.74198864676799 53.895806628822555 54.00567661600439 54.11554660318623 54.29133858267717 54.37923457242263 54.51107855704083 54.62094854422267 54.70884453396813 54.75279252884087 54.81871452114997 54.86266251602271 54.92858450833181 54.95055850576817 55.01648049807727 55.03845449551364 55.08240249038637 55.10437648782275 55.12635048525911 55.14832448269547 55.14832448269547 55.17029848013185 55.17029848013185 55.17029848013185 55.17029848013185 55.17029848013185 55.17029848013185 55.17029848013185 55.17029848013185 55.17029848013185 55.17029848013185 55.17029848013185 55.17029848013185 55.17029848013185 55.14832448269547 55.14832448269547 55.14832448269547 55.14832448269547 55.14832448269547 55.14832448269547 55.14832448269547 55.14832448269547 55.14832448269547 55.14832448269547 55.14832448269547 55.14832448269547 55.14832448269547 55.14832448269547 55.14832448269547 55.14832448269547 55.14832448269547 55.14832448269547 55.14832448269547 55.14832448269547 55.14832448269547 55.14832448269547 55.14832448269547 55.14832448269547 55.12635048525911 55.10437648782275 55.08240249038637 55.06042849295001 55.03845449551364 55.01648049807727 55.01648049807727 55.01648049807727 55.01648049807727 55.01648049807727 55.01648049807727 55.01648049807727 55.01648049807727 55.01648049807727 55.01648049807727 55.01648049807727 55.01648049807727 55.01648049807727 55.01648049807727 55.01648049807727 55.01648049807727 55.01648049807727 55.01648049807727 55.01648049807727 55.01648049807727 54.99450650064091 54.99450650064091 54.95055850576817 54.92858450833181 54.92858450833181 54.92858450833181 54.90661051089544 54.90661051089544 54.88463651345907 54.86266251602271 54.88463651345907 54.88463651345907 54.86266251602271 54.88463651345907 54.86266251602271 54.88463651345907 54.88463651345907 54.88463651345907 54.88463651345907 54.88463651345907 54.88463651345907 54.88463651345907 54.88463651345907 54.88463651345907 54.88463651345907 54.88463651345907 54.88463651345907 54.88463651345907 54.88463651345907 54.88463651345907 54.88463651345907 54.88463651345907 54.88463651345907 54.86266251602271 54.84068851858634 54.81871452114997 54.77476652627723 54.75279252884087 54.73081853140451 54.70884453396813 54.70884453396813 54.70884453396813 54.68687053653177 54.68687053653177 54.68687053653177 54.68687053653177 54.68687053653177 54.68687053653177 54.68687053653177 54.68687053653177 54.68687053653177 54.68687053653177 54.68687053653177 54.6648965390954 54.64292254165903 54.62094854422267 54.5989745467863 54.5989745467863 54.57700054934993 54.57700054934993 54.55502655191357 54.5330525544772 54.5330525544772 54.51107855704083 54.4671305621681 54.44515656473173 54.42318256729537 54.401208569859 54.37923457242263 54.35726057498627 54.335286577549894 54.31331258011353 54.29133858267717 54.29133858267717 54.29133858267717 54.269364585240794 54.269364585240794 54.269364585240794 54.269364585240794 54.269364585240794 54.269364585240794 54.269364585240794 54.269364585240794 54.269364585240794 54.269364585240794 54.24739058780443 54.24739058780443 54.269364585240794 54.24739058780443 54.24739058780443 54.24739058780443 54.24739058780443 54.22541659036806 54.24739058780443 54.22541659036806 54.22541659036806 54.24739058780443 54.24739058780443 54.24739058780443 54.24739058780443 54.22541659036806 54.24739058780443 54.24739058780443 54.22541659036806 54.22541659036806 54.22541659036806 54.203442592931694 54.203442592931694 54.18146859549533 54.15949459805896 54.137520600622594 54.137520600622594 54.15949459805896 54.137520600622594 54.15949459805896 54.137520600622594 54.137520600622594 54.137520600622594 54.15949459805896 54.137520600622594 54.15949459805896 54.137520600622594 54.137520600622594 54.11554660318623 54.11554660318623 54.04962461087713 54.02765061344076 53.98370261856803 53.93975462369529 53.91778062625893 53.895806628822555 53.87383263138619 53.851858633949824 53.829884636513455 53.80791063907709 53.785936641640724 53.720014649331624 53.67606665445889 53.588170664713424 53.52224867240432 53.368430690349754 53.170664713422454 52.994872733931516 52.62131477751328 52.357626808276876 51.98406885185864 51.56656290056766 51.25892693645852 50.90734297747665 50.248123054385644 49.852591100531036 49.3471891594946 48.79783922358543 48.40230726973082 47.85295733382164 47.457425379967034 46.886101446621495 46.314777513275956 45.89727156198498 45.28199963376671 44.66672770554844 44.02948177989379 43.568027833730085 43.194469877311846 42.62314594396631 41.83208203625709 41.48049807727523 40.97509613623878 40.447720197765975 40.030214246475005 39.5028383080022 39.19520234389306 38.82164438747482 38.14045046694744 37.74491851309284 37.3054385643655 36.953854605383626 36.470426661783556 35.83318073612892 35.52554477201978 35.23988280534701 34.82237685405603 34.55868888481963 33.98736495147409 33.89946896172862 33.503937007874015 33.218275041201245 33.04248306171031 32.866691082219376 32.47115912836477 32.2514191540011 32.00970518220106 31.81193920527376 31.548251236037355 31.24061527192822 31.042849295000916 30.845083318073613 30.537447353964474 30.29573338216444 30.010071415491666 29.790331441127996 29.48269547701886 29.19703351034609 28.999267533418788 28.69163156930965 28.427943600073245 28.25215162058231 27.944515656473172 27.790697674418606 27.768723676982237 27.68082768723677 27.636879692364037 27.636879692364037 27.614905694927668 27.592931697491302 27.570957700054933 27.527009705182202 27.505035707745833 27.505035707745833 27.505035707745833 27.461087712873102 27.439113715436733 27.417139718000367 27.351217725691264 27.307269730818533 27.241347738509432 27.17542574620033 27.131477751327594 27.04358176158213 26.97765976927303 26.933711774400294 26.845815784654825 26.779893792345725 26.713971800036624 26.626075810291155 26.560153817982055 26.51620582310932 26.472257828236586 26.45028383080022 26.45028383080022 26.45028383080022 26.45028383080022 26.45028383080022 26.42830983336385 26.42830983336385 26.42830983336385 26.42830983336385 26.42830983336385 26.406335835927486 26.406335835927486 26.406335835927486 26.38436183849112 26.36238784105475 26.36238784105475 26.340413843618386 26.318439846182017 26.29646584874565 26.274491851309286 26.274491851309286 26.252517853872916 26.23054385643655 26.23054385643655 26.208569859000182 26.186595861563816 26.186595861563816 26.186595861563816 26.164621864127447 26.164621864127447 26.164621864127447 26.14264786669108 26.14264786669108 26.14264786669108 26.14264786669108 26.14264786669108 26.120673869254716 26.120673869254716 26.120673869254716 26.098699871818347 26.098699871818347 26.07672587438198 26.07672587438198 26.054751876945616 26.032777879509247 26.032777879509247 26.032777879509247 26.032777879509247 26.01080388207288 26.01080388207288 26.01080388207288 26.01080388207288 26.01080388207288 26.01080388207288 26.01080388207288 26.01080388207288 26.01080388207288 26.01080388207288 26.01080388207288 26.01080388207288 26.01080388207288 26.01080388207288 26.01080388207288 26.01080388207288 26.01080388207288 26.01080388207288 26.01080388207288 25.988829884636512 25.988829884636512 26.01080388207288 25.988829884636512 25.988829884636512 26.01080388207288 26.01080388207288 25.988829884636512 25.988829884636512 25.988829884636512 25.988829884636512 25.988829884636512 25.988829884636512 25.988829884636512 25.966855887200147 25.988829884636512 25.988829884636512 25.988829884636512 25.966855887200147 25.966855887200147 25.966855887200147 25.966855887200147 25.966855887200147 25.966855887200147 25.944881889763778 25.944881889763778 25.922907892327412 25.922907892327412 25.922907892327412 25.922907892327412 25.922907892327412 25.900933894891047 25.878959897454678 25.878959897454678 25.878959897454678 25.856985900018312 25.856985900018312 25.856985900018312 25.835011902581943 25.835011902581943 25.813037905145578 25.813037905145578 25.813037905145578 25.813037905145578 25.791063907709212 25.791063907709212 25.791063907709212 25.791063907709212 25.769089910272843 25.769089910272843 25.769089910272843 25.747115912836477 25.747115912836477 25.747115912836477 25.72514191540011 25.703167917963743 25.703167917963743 25.703167917963743 25.681193920527377 25.65921992309101 25.65921992309101 25.65921992309101 25.637245925654643 25.637245925654643 25.615271928218274 25.615271928218274 25.593297930781908 25.593297930781908 25.593297930781908 25.593297930781908 25.593297930781908 25.571323933345543 25.571323933345543 25.571323933345543 25.549349935909174 25.549349935909174 25.549349935909174 25.549349935909174 25.527375938472808 25.527375938472808 25.527375938472808 25.527375938472808 25.50540194103644 25.50540194103644 25.50540194103644 25.50540194103644 25.483427943600073 25.483427943600073 25.483427943600073 25.483427943600073 25.483427943600073 25.483427943600073 25.483427943600073 25.461453946163708 25.483427943600073 25.461453946163708 25.461453946163708 25.461453946163708 25.461453946163708 25.461453946163708 25.461453946163708 25.43947994872734 25.43947994872734 25.43947994872734 25.43947994872734 25.43947994872734 25.43947994872734 25.43947994872734 25.43947994872734 25.43947994872734 25.43947994872734 25.43947994872734 25.43947994872734 25.43947994872734 25.417505951290973 25.417505951290973 25.417505951290973 25.417505951290973 25.417505951290973 25.417505951290973 25.417505951290973 25.417505951290973 25.417505951290973 25.417505951290973 25.417505951290973 25.417505951290973 25.417505951290973 25.417505951290973 25.43947994872734 25.43947994872734 25.43947994872734 25.43947994872734 25.43947994872734 25.43947994872734 25.43947994872734 25.43947994872734 25.43947994872734 25.43947994872734 25.461453946163708 25.461453946163708 25.483427943600073 25.50540194103644 25.549349935909174 25.571323933345543 25.637245925654643 25.703167917963743 25.791063907709212 25.878959897454678 26.14264786669108 26.274491851309286 26.42830983336385 26.713971800036624 27.04358176158213 27.395165720564 27.856619666727706 28.230177623145945 29.109137520600623 30.07599340780077 30.58139534883721 31.174693279619117 31.46035524629189 31.89983519501923 32.581029115546606 32.97656106940121 33.569859000183115 34.18513092840139 34.58066288225599 35.15198681560154 35.70133675151071 36.052920710492586 36.558322651529025 36.887932613074526 37.393334554110965 37.8328145028383 38.31624244643838 38.64585240798389 38.90954037722029 39.34902032594763 39.788500274674966 40.074162241347736 40.667460172129644 41.10694012085699 41.41457608496612 41.87603003112983 42.05182201062077 42.49130195934811 43.128547885002746 43.436183849111885 43.941585790148324 44.4909357260575 44.86449368247574 45.39186962094854 45.83134956967588 46.380699505585056 46.973997436366965 47.36952939022157 47.94085332356711 48.49020325947629 49.03955319538546 49.50100714154917 49.808643105658305 50.138253067203806 50.533785021058414 50.79747299029482 51.12708295184032 51.50064090825856 51.6764328877495 51.91814685954954 52.04999084416774 52.18183482878594 52.423548800585976 52.53341878776781 52.68723676982238 52.863028749313315 52.994872733931516 53.170664713422454 53.302508698040654 53.456326680095216 53.61014466214979 53.698040651895255 53.829884636513455 53.961728621131655 54.04962461087713 54.15949459805896 54.269364585240794 54.31331258011353 54.401208569859 54.42318256729537 54.48910455960447 54.51107855704083 54.55502655191357 54.57700054934993 54.57700054934993 54.57700054934993 54.57700054934993 54.57700054934993 54.57700054934993 54.5330525544772 54.51107855704083 54.48910455960447 54.4671305621681 54.44515656473173 54.42318256729537 54.401208569859 54.401208569859 54.401208569859 54.401208569859 54.37923457242263 54.401208569859 54.401208569859 54.401208569859 54.401208569859 54.401208569859 54.401208569859 54.37923457242263 54.35726057498627 54.335286577549894 54.335286577549894 54.29133858267717 54.29133858267717 54.24739058780443 54.22541659036806 54.18146859549533 54.137520600622594 54.11554660318623 54.09357260574986 54.04962461087713 54.02765061344076 53.961728621131655 53.93975462369529 53.91778062625893 53.87383263138619 53.851858633949824 53.829884636513455 53.785936641640724 53.763962644204355 53.74198864676799 53.720014649331624 53.720014649331624 53.698040651895255 53.67606665445889 53.654092657022524 53.632118659586155 53.61014466214979 53.588170664713424 53.54422266984069 53.52224867240432 53.500274674967955 53.478300677531585 53.456326680095216 53.434352682658854 53.412378685222485 53.390404687786116 53.368430690349754 53.346456692913385 53.346456692913385 53.346456692913385 53.346456692913385 53.346456692913385 53.346456692913385 53.324482695477016 53.324482695477016 53.302508698040654 53.280534700604285 53.258560703167916 53.236586705731554 53.214612708295185 53.214612708295185 53.192638710858816 53.192638710858816 53.170664713422454 53.14869071598608 53.126716718549716 53.104742721113354 53.08276872367698 53.08276872367698 53.08276872367698 53.060794726240616 53.060794726240616 53.060794726240616 53.03882072880425 52.994872733931516 52.994872733931516 52.97289873649515 52.97289873649515 52.97289873649515 52.95092473905878 52.95092473905878 52.928950741622415 52.928950741622415 52.928950741622415 52.906976744186046 52.928950741622415 52.906976744186046 52.928950741622415 52.928950741622415 52.928950741622415 52.906976744186046 52.906976744186046 52.906976744186046 52.906976744186046 52.906976744186046 52.906976744186046 52.906976744186046 52.906976744186046 52.906976744186046 52.928950741622415 52.906976744186046 52.906976744186046 52.906976744186046 52.906976744186046 52.906976744186046 52.906976744186046 52.906976744186046 52.906976744186046 52.906976744186046 52.88500274674968 52.88500274674968 52.88500274674968 52.863028749313315 52.81908075444058 52.775132759567846 52.75315876213148 52.70921076725874 52.66526277238601 52.64328877494964 52.62131477751328 52.62131477751328 52.59934078007691 52.59934078007691 52.59934078007691 52.57736678264054 52.57736678264054 52.57736678264054 52.57736678264054 52.57736678264054 52.55539278520418 52.53341878776781 52.53341878776781 52.53341878776781 52.55539278520418 52.53341878776781 52.53341878776781 52.55539278520418 52.53341878776781 52.53341878776781 52.53341878776781 52.53341878776781 52.53341878776781 52.53341878776781 52.53341878776781 52.53341878776781 52.55539278520418 52.55539278520418 52.57736678264054 52.57736678264054 52.59934078007691 52.59934078007691 52.59934078007691 52.62131477751328 52.62131477751328 52.62131477751328 52.62131477751328 52.59934078007691 52.59934078007691 52.59934078007691 52.57736678264054 52.55539278520418 52.51144479033144 52.51144479033144 52.51144479033144 52.51144479033144 52.51144479033144 52.51144479033144 52.51144479033144 52.51144479033144 52.48947079289508 52.48947079289508 52.46749679545871 52.44552279802234 52.44552279802234 52.423548800585976 52.423548800585976 52.40157480314961 52.40157480314961 52.37960080571324 52.37960080571324 52.357626808276876 52.357626808276876 52.357626808276876 52.357626808276876 52.3356528108405 52.31367881340414 52.2697308185314 52.22578282365867 52.22578282365867 52.2038088262223 52.18183482878594 52.15986083134957 52.1378868339132 52.11591283647684 52.11591283647684 52.09393883904047 52.0719648416041 52.04999084416774 52.02801684673137 51.98406885185864 51.96209485442226 51.91814685954954 51.89617286211316 51.8741988646768 51.83025086980406 51.8082768723677 51.78630287493133 51.78630287493133 51.76432887749496 51.76432887749496 51.76432887749496 51.76432887749496 51.76432887749496 51.76432887749496 51.78630287493133 51.78630287493133 51.8082768723677 51.83025086980406 51.83025086980406 51.85222486724043 51.85222486724043 51.85222486724043 51.8741988646768 51.8741988646768 51.8741988646768 51.85222486724043 51.83025086980406 51.8082768723677 51.8082768723677 51.8082768723677 51.78630287493133 51.76432887749496 51.76432887749496 51.7423548800586 51.7423548800586 51.7423548800586 51.72038088262223 51.72038088262223 51.72038088262223 51.72038088262223 51.72038088262223 51.7423548800586 51.7423548800586 51.76432887749496 51.76432887749496 51.76432887749496 51.76432887749496 51.76432887749496 51.76432887749496 51.76432887749496 51.7423548800586 51.7423548800586 51.7423548800586 51.7423548800586 51.7423548800586 51.72038088262223 51.7423548800586 51.7423548800586 51.7423548800586 51.72038088262223 51.7423548800586 