25.0 25.021973997436366 25.021973997436366 25.021973997436366 25.021973997436366 25.021973997436366 25.021973997436366 25.021973997436366 25.021973997436366 25.021973997436366 25.021973997436366 25.0 25.021973997436366 25.021973997436366 25.021973997436366 25.021973997436366 25.021973997436366 25.021973997436366 25.021973997436366 25.0 25.0 25.021973997436366 25.021973997436366 25.021973997436366 25.021973997436366 25.0 25.021973997436366 25.0 25.021973997436366 25.021973997436366 25.021973997436366 25.0 25.0 25.0 25.0 25.021973997436366 25.0 25.021973997436366 25.021973997436366 25.021973997436366 25.021973997436366 25.021973997436366 25.021973997436366 25.021973997436366 25.021973997436366 25.021973997436366 25.021973997436366 25.021973997436366 25.021973997436366 25.021973997436366 25.021973997436366 25.021973997436366 25.021973997436366 25.021973997436366 25.021973997436366 25.021973997436366 25.021973997436366 25.021973997436366 25.021973997436366 25.021973997436366 25.021973997436366 25.021973997436366 25.021973997436366 25.021973997436366 25.021973997436366 25.021973997436366 25.021973997436366 25.021973997436366 25.021973997436366 25.021973997436366 25.021973997436366 25.021973997436366 25.021973997436366 25.021973997436366 25.021973997436366 25.021973997436366 25.021973997436366 25.021973997436366 25.021973997436366 25.021973997436366 25.021973997436366 25.021973997436366 25.021973997436366 25.021973997436366 25.021973997436366 25.021973997436366 25.021973997436366 25.021973997436366 25.021973997436366 25.0 25.021973997436366 25.021973997436366 25.021973997436366 25.021973997436366 25.021973997436366 25.021973997436366 25.021973997436366 25.021973997436366 25.021973997436366 25.021973997436366 25.021973997436366 25.021973997436366 25.021973997436366 25.021973997436366 25.021973997436366 25.021973997436366 25.021973997436366 25.021973997436366 25.021973997436366 25.021973997436366 25.021973997436366 25.021973997436366 25.021973997436366 25.021973997436366 25.021973997436366 25.021973997436366 25.021973997436366 25.021973997436366 25.021973997436366 25.021973997436366 25.021973997436366 25.021973997436366 25.021973997436366 25.021973997436366 25.021973997436366 25.021973997436366 25.021973997436366 25.021973997436366 25.021973997436366 25.021973997436366 25.021973997436366 25.021973997436366 25.021973997436366 25.021973997436366 25.021973997436366 25.021973997436366 25.021973997436366 25.021973997436366 25.021973997436366 25.021973997436366 25.021973997436366 25.021973997436366 25.021973997436366 25.021973997436366 25.021973997436366 25.021973997436366 25.021973997436366 25.021973997436366 25.021973997436366 25.021973997436366 25.021973997436366 25.021973997436366 25.021973997436366 25.021973997436366 25.021973997436366 25.021973997436366 25.021973997436366 25.021973997436366 25.021973997436366 25.021973997436366 25.021973997436366 25.021973997436366 25.021973997436366 25.021973997436366 25.021973997436366 25.021973997436366 25.021973997436366 25.021973997436366 25.021973997436366 25.021973997436366 25.021973997436366 25.021973997436366 25.021973997436366 25.021973997436366 25.021973997436366 25.021973997436366 25.021973997436366 25.021973997436366 25.021973997436366 25.021973997436366 25.021973997436366 25.021973997436366 25.021973997436366 25.021973997436366 25.021973997436366 25.0 25.021973997436366 25.021973997436366 25.0 25.0 25.0 25.021973997436366 25.021973997436366 25.0 25.0 25.0 25.0 25.0 25.021973997436366 25.0 25.021973997436366 25.021973997436366 25.021973997436366 25.021973997436366 25.0 25.0 25.0 25.0 25.0 25.0 25.021973997436366 25.0 25.021973997436366 25.0 25.021973997436366 25.0 25.0 25.0 25.0 25.0 25.0 25.021973997436366 25.0 25.0 25.0 25.021973997436366 25.0 25.0 25.0 25.021973997436366 25.021973997436366 25.021973997436366 25.021973997436366 25.021973997436366 25.021973997436366 25.021973997436366 25.021973997436366 25.021973997436366 25.021973997436366 25.0 25.021973997436366 25.021973997436366 25.021973997436366 25.021973997436366 25.021973997436366 25.021973997436366 25.021973997436366 25.021973997436366 25.021973997436366 25.021973997436366 25.021973997436366 25.021973997436366 25.021973997436366 25.021973997436366 25.0 25.0 25.0 25.021973997436366 25.021973997436366 25.021973997436366 25.021973997436366 25.021973997436366 25.021973997436366 25.021973997436366 25.021973997436366 25.021973997436366 25.021973997436366 25.021973997436366 25.021973997436366 25.021973997436366 25.021973997436366 25.021973997436366 25.021973997436366 25.021973997436366 25.021973997436366 25.021973997436366 25.021973997436366 25.021973997436366 25.021973997436366 25.021973997436366 25.021973997436366 25.021973997436366 25.021973997436366 25.021973997436366 25.021973997436366 25.021973997436366 25.021973997436366 25.021973997436366 25.021973997436366 25.021973997436366 25.021973997436366 25.021973997436366 25.021973997436366 25.021973997436366 25.021973997436366 25.021973997436366 25.021973997436366 25.021973997436366 25.021973997436366 25.021973997436366 25.021973997436366 25.021973997436366 25.021973997436366 25.021973997436366 25.021973997436366 25.021973997436366 25.021973997436366 25.021973997436366 25.021973997436366 25.021973997436366 25.021973997436366 25.021973997436366 25.021973997436366 25.021973997436366 25.021973997436366 25.021973997436366 25.021973997436366 25.021973997436366 25.021973997436366 25.021973997436366 25.021973997436366 25.021973997436366 25.021973997436366 25.021973997436366 25.021973997436366 25.021973997436366 25.021973997436366 25.021973997436366 25.021973997436366 25.021973997436366 25.021973997436366 25.021973997436366 25.021973997436366 25.021973997436366 25.021973997436366 25.021973997436366 25.021973997436366 25.021973997436366 25.021973997436366 25.021973997436366 25.021973997436366 25.021973997436366 25.021973997436366 25.021973997436366 25.021973997436366 25.021973997436366 25.021973997436366 25.021973997436366 25.021973997436366 25.021973997436366 25.021973997436366 25.021973997436366 25.021973997436366 25.021973997436366 25.021973997436366 25.021973997436366 25.021973997436366 25.021973997436366 25.021973997436366 25.021973997436366 25.021973997436366 25.021973997436366 25.021973997436366 25.021973997436366 25.021973997436366 25.021973997436366 25.021973997436366 25.021973997436366 25.021973997436366 25.021973997436366 25.021973997436366 25.021973997436366 25.021973997436366 25.021973997436366 25.021973997436366 25.021973997436366 25.021973997436366 25.021973997436366 25.0 25.0 25.021973997436366 25.021973997436366 25.0 25.021973997436366 25.021973997436366 25.0 25.021973997436366 25.0 25.021973997436366 25.0 25.0 25.021973997436366 25.0 25.021973997436366 25.0 25.0 25.0 25.0 25.021973997436366 25.0 25.0 25.0 25.021973997436366 25.021973997436366 25.021973997436366 25.0 25.0 25.021973997436366 25.021973997436366 25.0 25.0 25.0 25.0 25.0 25.0 25.0 25.0 25.0 25.0 25.0 25.021973997436366 25.0 25.0 25.0 25.0 25.0 25.0 25.0 25.0 25.0 25.0 25.0 25.0 25.0 25.0 25.0 25.0 25.021973997436366 25.0 25.021973997436366 25.0 25.0 25.021973997436366 25.0 25.0 25.0 25.0 25.021973997436366 25.021973997436366 25.021973997436366 25.021973997436366 25.021973997436366 25.021973997436366 25.021973997436366 25.021973997436366 25.021973997436366 25.021973997436366 25.0 25.021973997436366 25.021973997436366 25.021973997436366 25.021973997436366 25.021973997436366 25.021973997436366 25.0 25.021973997436366 25.021973997436366 25.021973997436366 25.021973997436366 25.021973997436366 25.021973997436366 25.021973997436366 25.021973997436366 25.021973997436366 25.021973997436366 25.021973997436366 25.0 25.021973997436366 25.021973997436366 25.0 25.021973997436366 25.021973997436366 25.0 25.021973997436366 25.021973997436366 25.021973997436366 25.0 25.021973997436366 25.021973997436366 25.021973997436366 25.021973997436366 25.021973997436366 25.021973997436366 25.021973997436366 25.021973997436366 25.021973997436366 25.021973997436366 25.021973997436366 25.021973997436366 25.021973997436366 25.021973997436366 25.021973997436366 25.021973997436366 25.021973997436366 25.021973997436366 25.021973997436366 25.021973997436366 25.021973997436366 25.021973997436366 25.021973997436366 25.021973997436366 25.021973997436366 25.021973997436366 25.021973997436366 25.021973997436366 25.021973997436366 25.021973997436366 25.021973997436366 25.021973997436366 25.021973997436366 25.021973997436366 25.021973997436366 25.021973997436366 25.021973997436366 25.021973997436366 25.021973997436366 25.021973997436366 25.021973997436366 25.021973997436366 25.021973997436366 25.021973997436366 25.021973997436366 25.021973997436366 25.021973997436366 25.021973997436366 25.021973997436366 25.021973997436366 25.021973997436366 25.021973997436366 25.021973997436366 25.021973997436366 25.021973997436366 25.021973997436366 25.0 25.021973997436366 25.021973997436366 25.021973997436366 25.021973997436366 25.021973997436366 25.021973997436366 25.021973997436366 25.021973997436366 25.021973997436366 25.0 25.021973997436366 25.021973997436366 25.021973997436366 25.0 25.021973997436366 25.0 25.021973997436366 25.021973997436366 25.021973997436366 25.0 25.0 25.0 25.021973997436366 25.0 25.021973997436366 25.0 25.0 25.0 25.021973997436366 25.021973997436366 25.0 25.021973997436366 25.0 25.0 25.0 25.0 25.0 25.0 25.0 25.0 25.021973997436366 25.0 25.0 25.0 25.021973997436366 25.0 25.021973997436366 25.0 25.0 25.0 25.0 25.0 25.0 25.0 25.0 25.0 25.0 25.0 25.0 25.0 25.0 25.0 25.0 25.0 25.0 25.021973997436366 25.021973997436366 25.043947994872735 25.021973997436366 25.021973997436366 25.043947994872735 25.0659219923091 25.15381798205457 25.30763596410914 25.417505951290973 25.527375938472808 25.65921992309101 25.856985900018312 26.054751876945616 26.29646584874565 26.648049807727524 27.065555759018494 27.505035707745833 27.96648965390954 28.49386559238235 28.97729353598242 29.460721479582496 29.944149423182566 30.36165537447354 30.735213330891778 31.08679728987365 31.46035524629189 31.81193920527376 32.0536531770738 32.33931514374657 32.55905511811024 32.75682109503754 32.932613074528476 33.108405054019414 33.284197033510345 33.438015015564915 33.591832997619484 33.767624977110415 33.96539095403772 34.141182933528654 34.40487090276506 34.6465848745651 34.9761948361106 35.30580479765611 35.65738875663798 35.986998718183486 36.38253067203809 36.80003662332906 37.195568577183664 37.65702252334737 38.11847646951108 38.66782640542025 39.15125434902033 39.722578282365866 40.33785021058414 40.99707013367515 41.67826405420253 42.35945797472991 43.062625892693646 43.655923823475554 44.40303973631203 45.17212964658488 45.94121955685772 46.688335469694195 47.43545138253067 48.09467130562168 48.77586522614906 49.479033144112805 50.138253067203806 50.90734297747665 51.63248489287676 52.291704815967776 52.906976744186046 53.654092657022524 54.335286577549894 55.01648049807727 55.67570042116829 56.400842336568395 57.038088262223035 57.65336019044131 58.29060611609595 58.9278520417506 59.54312396996887 60.158395898187145 60.75169382896905 61.34499175975096 61.9163156930965 62.50961362387841 63.058963559787585 63.608313495696756 64.1796374290423 64.75096136238784 65.27833730086064 65.89360922907892 66.48690715986083 67.08020509064274 67.69547701886101 68.33272294451567 69.34352682658854 69.71708478300678 70.55209668558872 71.18934261124336 72.4198864676799 73.25489837026186 73.7603003112983 74.57333821644387 75.32045412928035 75.62809009338949 76.41915400109869 76.8146859549533 77.29811389855337 77.82548983702618 78.11115180369896 78.77037172678996 78.90221571140816 79.18787767808094 79.56143563449919 79.82512360373559 80.22065555759019 80.77000549349935 81.0117194652994 81.29738143197216 81.69291338582677 82.00054934993591 82.44002929866325 82.76963926020875 83.4728071781725 83.97820911920894 84.3957150704999 84.98901300128182 85.38454495513642 85.97784288591834 86.57114081670024 86.98864676799121 87.53799670390038 88.04339864493683 88.37300860648233 88.8564365500824 89.38381248855521 89.75737044497345 90.21882439113715 90.54843435268266 91.07581029115548 91.64713422450102 92.19648416041018 92.63596410913752 92.89965207837392 93.1853140450467 93.29518403222853 93.383080021974 93.383080021974 93.33913202710126 93.20728804248306 92.8557040835012 92.43819813221022 91.86687419886468 91.27357626808276 90.8560703167918 90.37264237319172 89.86724043215528 89.51565647317341 89.09815052188245 88.74656656290057 88.28511261673685 88.02142464750045 87.80168467313679 87.45010071415491 87.14246475004578 86.72495879875481 86.35140084233657 86.04376487822742 85.58231093206373 85.27467496795458 85.01098699871818 84.59348104742722 84.0661051089544 83.78044314228164 83.3409631935543 83.01135323200879 82.52792528840871 81.95660135506317 81.53909540377221 80.87987548068119 80.46236952939023 79.84709760117195 79.23182567295368 78.72642373191724 78.04522981138985 77.42995788317158 77.0124519318806 76.52902398828054 76.13349203442593 75.49624610877129 74.94689617286213 74.39754623695293 73.8921442959165 73.38674235488006 73.01318439846182 72.59567844717085 72.26606848562534 71.84856253433438 71.47500457791614 71.18934261124336 70.88170664713422 70.50814869071598 70.24446072147958 69.87090276506135 69.60721479582494 69.2336568394067 68.86009888298847 68.53048892144295 68.17890496246109 67.60758102911555 67.29994506500641 67.01428309833364 66.66269913935176 65.9815052188244 65.45412928035158 65.05859732649698 64.48727339315144 63.89397546236953 63.476469511078555 62.94909357260575 62.57553561618751 62.02618568027834 61.43288774949643 61.01538179820545 60.46603186229628 59.872733931514375 59.433253982787036 58.8619300494415 58.46639809558689 57.93902215711408 57.43362021607764 56.906244277604834 56.444790331441126 56.09320637245926 55.82951840322285 55.39003845449551 55.06042849295001 54.5330525544772 54.137520600622594 53.87383263138619 53.500274674967955 53.236586705731554 52.88500274674968 52.48947079289508 52.22578282365867 51.8741988646768 51.50064090825856 51.23695293902216 50.88536898004028 50.48983702618568 50.116279069767444 49.808643105658305 49.544955136421905 49.171397180003666 48.79783922358543 48.53415125434902 48.00677531587621 47.58926936458524 47.3475553927852 47.10584142098517 46.820179454312395 46.27082951840322 45.80937557223952 45.45779161325764 44.93041567478484 44.5568577183666 44.05145577733016 43.590001831166454 43.282365867057315 42.842885918329976 42.40340596960264 42.0957700054935 41.65629005676616 41.34865409265702 40.667460172129644 40.315876213147774 39.964292254165905 39.524812305438566 39.12928035158396 38.73374839772936 38.42611243362022 38.25032045412928 37.94268449002014 37.85478850027467 37.7009705182201 37.34938655923823 37.129646584874564 36.975828602819995 36.756088628456325 36.624244643838125 36.338582677165356 36.03094671305622 35.78923274125618 35.43764878227431 34.99816883354697 34.66855887200147 34.207104925837754 33.855520966855885 33.350119025819446 32.82274308734664 32.49313312580114 31.94378318989196 31.59219923091009 30.976927302691813 30.735213330891778 30.383629371909905 30.119941402673504 29.900201428309835 29.834279436000735 29.592565464200696 29.41677348470976 29.19703351034609 28.91137154367332 28.603735579564184 28.38399560520051 28.076359641091376 27.856619666727706 27.592931697491302 27.417139718000367 27.197399743636698 27.02160776414576 26.95568577183666 26.911737776963925 26.911737776963925 26.911737776963925 26.933711774400294 26.95568577183666 26.97765976927303 26.97765976927303 26.999633766709394 26.999633766709394 26.999633766709394 26.999633766709394 26.97765976927303 26.97765976927303 26.95568577183666 26.95568577183666 26.95568577183666 26.95568577183666 26.95568577183666 26.95568577183666 26.95568577183666 26.95568577183666 26.95568577183666 26.95568577183666 26.95568577183666 26.95568577183666 26.933711774400294 26.933711774400294 26.933711774400294 26.933711774400294 26.933711774400294 26.933711774400294 26.933711774400294 26.933711774400294 26.933711774400294 26.933711774400294 26.933711774400294 26.933711774400294 26.933711774400294 26.933711774400294 26.933711774400294 26.933711774400294 26.933711774400294 26.933711774400294 26.933711774400294 26.933711774400294 26.933711774400294 26.933711774400294 26.933711774400294 26.933711774400294 26.933711774400294 26.933711774400294 26.933711774400294 26.933711774400294 26.933711774400294 26.933711774400294 26.933711774400294 26.933711774400294 26.933711774400294 26.933711774400294 26.933711774400294 26.933711774400294 26.933711774400294 26.933711774400294 26.933711774400294 26.933711774400294 26.933711774400294 26.933711774400294 26.95568577183666 26.933711774400294 26.933711774400294 26.933711774400294 26.933711774400294 26.933711774400294 26.933711774400294 26.933711774400294 26.933711774400294 26.933711774400294 26.933711774400294 26.933711774400294 26.933711774400294 26.911737776963925 26.933711774400294 26.933711774400294 26.933711774400294 26.933711774400294 26.911737776963925 26.911737776963925 26.911737776963925 26.911737776963925 26.911737776963925 26.911737776963925 26.911737776963925 26.933711774400294 26.933711774400294 26.911737776963925 26.911737776963925 26.911737776963925 26.911737776963925 26.933711774400294 26.933711774400294 26.911737776963925 26.911737776963925 26.933711774400294 26.933711774400294 26.911737776963925 26.911737776963925 26.933711774400294 26.911737776963925 26.933711774400294 26.933711774400294 26.911737776963925 26.911737776963925 26.933711774400294 26.933711774400294 26.933711774400294 26.933711774400294 26.911737776963925 26.911737776963925 26.911737776963925 26.911737776963925 26.933711774400294 26.933711774400294 26.911737776963925 26.933711774400294 26.933711774400294 26.911737776963925 26.911737776963925 26.933711774400294 26.911737776963925 26.911737776963925 26.933711774400294 26.933711774400294 26.911737776963925 26.933711774400294 26.911737776963925 26.933711774400294 26.933711774400294 26.911737776963925 26.911737776963925 26.911737776963925 26.911737776963925 26.911737776963925 26.911737776963925 26.911737776963925 26.911737776963925 26.911737776963925 26.933711774400294 26.911737776963925 26.911737776963925 26.911737776963925 26.911737776963925 26.911737776963925 26.911737776963925 26.911737776963925 26.911737776963925 26.911737776963925 26.911737776963925 26.911737776963925 26.911737776963925 26.911737776963925 26.911737776963925 26.911737776963925 26.911737776963925 26.911737776963925 26.911737776963925 26.911737776963925 26.911737776963925 26.911737776963925 26.911737776963925 26.911737776963925 26.933711774400294 26.911737776963925 26.911737776963925 26.911737776963925 26.911737776963925 26.911737776963925 26.911737776963925 26.911737776963925 26.911737776963925 26.933711774400294 26.911737776963925 26.911737776963925 26.911737776963925 26.911737776963925 26.911737776963925 26.911737776963925 26.911737776963925 26.911737776963925 26.911737776963925 26.911737776963925 26.933711774400294 26.911737776963925 26.911737776963925 26.933711774400294 26.933711774400294 26.95568577183666 26.95568577183666 26.97765976927303 27.02160776414576 27.10950375389123 27.307269730818533 27.483061710309467 27.74674967954587 27.96648965390954 28.296099615455045 28.64768357443692 28.933345541109688 29.350851492400658 29.76835744369163 30.185863394982604 30.603369346273574 30.932979307819082 31.328511261673686 31.614173228346456 31.855887200146494 32.3832631386193 32.778795092473906 33.04248306171031 33.459989013001284 33.723676982237684 34.141182933528654 34.55868888481963 34.8443508514924 35.28383080021974 35.70133675151071 36.07489470792895 36.536348654092656 37.08569859000183 37.5691265336019 37.94268449002014 38.27229445156565 38.79967039003846 39.15125434902033 39.8324482695477 40.315876213147774 40.68943416956601 41.21681010803882 41.74418604651163 41.9639260208753 42.71104193371177 43.128547885002746 43.765793810657385 44.46896172862113 45.10620765427578 45.67753158762132 46.64438747482146 47.23768540560337 47.78703534151254 48.38033327229445 49.105475187694566 49.91851309284014 50.511811023622045 51.56656290056766 52.3356528108405 53.01684673136788 53.566196667277055 54.09357260574986 54.57700054934993 55.45596044680461 56.00531038271379 56.57663431605933 57.21388024171397 57.47756821095037 58.31258011353232 58.77403405969603 59.4552279802234 60.136421900750776 60.75169382896905 61.67460172129647 62.46566562900568 63.058963559787585 63.67423548800586 64.26753341878776 64.97070133675152 65.78373924189708 66.33308917780627 67.12415308551547 68.13495696758835 68.79417689067935 69.25563083684307 69.7610327778795 70.55209668558872 71.05749862662516 71.71671854971618 72.37593847280718 72.79344442409815 73.3647683574437 73.98004028566197 74.48544222669841 75.12268815235305 75.75993407800769 76.28731001648049 76.70481596777148 77.05639992675334 77.56180186778978 78.04522981138985 78.44076176524446 78.79234572422632 79.34169566013551 79.64933162424464 79.93499359091741 80.19868156015382 80.68210950375389 80.92382347555393 81.0776414576085 81.25343343709943 81.42922541659037 81.47317341146311 81.53909540377221 81.56106940120857 81.56106940120857 81.56106940120857 81.56106940120857 81.51712140633583 81.38527742171763 81.23145943966307 81.05566746017213 80.70408350119027 80.46236952939023 80.04486357809925 79.71525361655375 79.31972166269914 78.92418970884452 78.50668375755356 78.1550997985717 77.86943783189892 77.51785387291704 77.25416590368064 77.0124519318806 76.52902398828054 76.13349203442593 75.80388207288043 75.36440212415309 75.10071415491669 74.66123420618933 74.15583226515291 73.84819630104377 73.3647683574437 72.81541842153452 72.37593847280718 71.93645852407984 71.3651345907343 70.81578465482514 70.39827870353415 69.98077275224318 69.45339681377037 69.05786485991577 68.48654092657023 67.76139901117011 67.38784105475187 66.79454312396996 66.20124519318806 65.8496612342062 65.36623329060612 64.83885735213332 64.3114814136605 63.762131477751325 63.366599523896724 62.81724958798755 61.87236769822377 61.43288774949643 61.03735579564182 60.641823841787215 60.246291887932614 59.82878593664164 59.301409998168836 58.83995605200513 58.37850210584142 58.15876213147775 57.71928218275041 57.389672221204904 56.950192272477565 56.466764328877495 55.96136238784105 55.47793444424098 55.01648049807727 54.73081853140451 54.203442592931694 53.87383263138619 53.390404687786116 52.88500274674968 52.55539278520418 52.11591283647684 51.6764328877495 51.39077092107672 51.01721296465848 50.77549899285845 50.42391503387658 50.072331074894706 49.786669108221936 49.43508514924007 48.92968320820363 48.75389122871269 48.40230726973082 48.13861930049441 47.61124336202161 47.215711408167 46.952023438930595 46.57846548251236 46.27082951840322 46.02911554660319 45.69950558505768 45.45779161325764 45.15015564914851 44.84251968503937 44.60080571323933 44.22724775682109 43.941585790148324 43.54605383629372 43.150521882439115 42.842885918329976 42.44735396447537 42.07379600805713 41.67826405420253 41.30470609778429 41.019044131111514 40.73338216443875 40.33785021058414 40.052188243911374 39.5028383080022 39.12928035158396 38.73374839772936 38.47006042849295 38.22834645669291 37.89873649514741 37.52517853872917 37.3054385643655 36.931880607947264 36.58029664896539 36.38253067203809 36.09686870536532 35.81120673869255 35.56949276689251 35.39370078740157 35.23988280534701 35.02014283098333 34.8443508514924 34.6465848745651 34.49276689251053 34.36092290789233 34.141182933528654 34.009338948910454 33.89946896172862 33.701702984801315 33.39406702069218 33.196301043764876 32.91063907709211 32.69089910272844 32.40523713605567 32.0536531770738 31.68009522065556 31.43838124885552 31.08679728987365 30.845083318073613 30.471525361655374 30.22981138985534 29.812305438564366 29.61453946163706 29.438747482146127 29.19703351034609 28.999267533418788 28.867423548800588 28.62570957700055 28.515839589818714 28.38399560520051 28.31807361289141 28.25215162058231 28.12030763596411 28.05438564365501 27.96648965390954 27.856619666727706 27.74674967954587 27.592931697491302 27.373191723127633 27.219373741073063 26.999633766709394 26.933711774400294 26.867789782091194 26.845815784654825 26.845815784654825 26.82384178721846 26.845815784654825 26.845815784654825 26.845815784654825 26.82384178721846 26.82384178721846 26.82384178721846 26.80186778978209 26.82384178721846 26.80186778978209 26.80186778978209 26.80186778978209 26.80186778978209 26.80186778978209 26.80186778978209 26.80186778978209 26.82384178721846 26.80186778978209 26.82384178721846 26.80186778978209 26.80186778978209 26.80186778978209 26.80186778978209 26.80186778978209 26.80186778978209 26.80186778978209 26.80186778978209 26.80186778978209 26.80186778978209 26.80186778978209 26.779893792345725 26.779893792345725 26.80186778978209 26.80186778978209 26.80186778978209 26.80186778978209 26.80186778978209 26.80186778978209 26.80186778978209 26.80186778978209 26.80186778978209 26.80186778978209 26.80186778978209 26.80186778978209 26.80186778978209 26.80186778978209 26.80186778978209 26.80186778978209 26.80186778978209 26.80186778978209 26.80186778978209 26.80186778978209 26.80186778978209 26.80186778978209 26.80186778978209 26.80186778978209 26.80186778978209 26.80186778978209 26.80186778978209 26.80186778978209 26.80186778978209 26.80186778978209 26.80186778978209 26.80186778978209 26.80186778978209 26.80186778978209 26.779893792345725 26.80186778978209 26.80186778978209 26.80186778978209 26.80186778978209 26.80186778978209 26.80186778978209 26.779893792345725 26.80186778978209 26.80186778978209 26.80186778978209 26.80186778978209 26.80186778978209 26.80186778978209 26.80186778978209 26.80186778978209 26.80186778978209 26.80186778978209 26.80186778978209 26.80186778978209 26.80186778978209 26.80186778978209 26.80186778978209 26.80186778978209 26.80186778978209 26.80186778978209 26.80186778978209 26.80186778978209 26.80186778978209 26.80186778978209 26.80186778978209 26.80186778978209 26.80186778978209 26.80186778978209 26.80186778978209 26.80186778978209 26.80186778978209 26.80186778978209 26.82384178721846 26.82384178721846 26.80186778978209 26.80186778978209 26.80186778978209 26.80186778978209 26.80186778978209 26.80186778978209 26.80186778978209 26.80186778978209 26.82384178721846 26.80186778978209 26.80186778978209 26.80186778978209 26.80186778978209 26.80186778978209 26.80186778978209 26.82384178721846 26.82384178721846 26.82384178721846 26.80186778978209 26.80186778978209 26.82384178721846 26.82384178721846 26.80186778978209 26.80186778978209 26.82384178721846 26.80186778978209 26.82384178721846 26.80186778978209 26.80186778978209 26.80186778978209 26.80186778978209 26.80186778978209 26.80186778978209 26.80186778978209 26.80186778978209 26.80186778978209 26.80186778978209 26.80186778978209 26.80186778978209 26.80186778978209 26.80186778978209 26.80186778978209 26.80186778978209 26.80186778978209 26.80186778978209 26.80186778978209 26.80186778978209 26.80186778978209 26.80186778978209 26.80186778978209 26.80186778978209 26.80186778978209 26.80186778978209 26.80186778978209 26.80186778978209 26.80186778978209 26.80186778978209 26.80186778978209 26.779893792345725 26.80186778978209 26.80186778978209 26.80186778978209 26.779893792345725 26.80186778978209 26.80186778978209 26.779893792345725 26.80186778978209 26.80186778978209 26.80186778978209 26.80186778978209 26.80186778978209 26.80186778978209 26.80186778978209 26.80186778978209 26.80186778978209 26.80186778978209 26.80186778978209 26.80186778978209 26.80186778978209 26.80186778978209 26.80186778978209 26.80186778978209 26.80186778978209 26.80186778978209 26.80186778978209 26.80186778978209 26.80186778978209 26.80186778978209 26.80186778978209 26.80186778978209 26.80186778978209 26.80186778978209 26.80186778978209 26.80186778978209 26.80186778978209 26.80186778978209 26.80186778978209 26.80186778978209 26.779893792345725 26.80186778978209 26.80186778978209 26.80186778978209 26.80186778978209 26.80186778978209 26.80186778978209 26.82384178721846 26.82384178721846 26.82384178721846 26.845815784654825 26.88976377952756 26.95568577183666 27.02160776414576 27.087529756454863 27.17542574620033 27.307269730818533 27.527009705182202 27.724775682109502 28.03241164621864 28.362021607764145 28.669657571873284 29.087163523164257 29.48269547701886 29.9880974180553 30.559421351400843 30.954953305255447 31.50430324116462 31.89983519501923 32.62497711041934 33.108405054019414 33.438015015564915 33.89946896172862 34.33894891045596 34.66855887200147 35.08606482329244 35.41567478483794 35.83318073612892 36.44845266434719 36.624244643838125 37.1076725874382 37.61307452847464 38.09650247207471 38.57993041567478 38.99743636696576 39.854422266984066 40.55759018494781 41.06299212598425 41.74418604651163 42.44735396447537 42.90880791063908 43.48013184398462 44.007507782457424 44.99633766709394 45.69950558505768 46.44662149789416 46.93004944149423 47.61124336202161 48.11664530305805 48.81981322102179 49.3471891594946 50.006409082585606 50.73155099798572 51.23695293902216 51.9401208569859 52.906976744186046 53.280534700604285 53.895806628822555 54.42318256729537 55.19227247756821 55.96136238784105 56.796374290423 57.54349020325947 58.33455411096869 58.73008606482329 59.34535799304157 59.872733931514375 60.795641823841784 61.47683574436916 61.96026368796924 62.61948361106025 63.454495513642186 63.718183482878594 64.35542940853324 64.72898736495148 65.32228529573338 65.95953122138803 66.377037172679 66.99230910089727 67.38784105475187 68.24482695477019 68.64035890862479 69.05786485991577 69.6951107855704 70.33235671122506 70.8377586522615 71.69474455227981 72.17817249587988 72.68357443691632 73.03515839589818 73.4966123420619 74.26570225233473 74.81505218824393 75.23255813953489 75.75993407800769 76.0895440395532 76.5509979857169 76.9465299395715 77.21021790880792 77.58377586522616 78.06720380882624 78.17707379600806 78.44076176524446 78.66050173960812 78.92418970884452 79.20985167551731 79.36366965757188 79.671305621681 80.08881157297199 80.35249954220839 80.55026551913569 80.81395348837209 81.25343343709943 81.47317341146311 81.71488738326315 82.11041933711775 82.37410730635415 82.52792528840871 82.70371726789965 82.83556125251786 82.96740523713606 83.0772752243179 83.12122321919063 83.12122321919063 83.12122321919063 83.12122321919063 83.09924922175426 83.01135323200879 82.92345724226331 82.68174327046329 82.41805530122689 82.02252334737227 81.45119941402675 81.1435634499176 80.72605749862663 80.30855154733565 79.89104559604468 79.56143563449919 79.29774766526278 78.72642373191724 78.39681377037172 78.06720380882624 77.69364585240798 77.38600988829884 77.05639992675334 76.57297198315328 76.28731001648049 75.78190807544406 75.32045412928035 74.85900018311665 74.26570225233473 73.562534334371 72.88134041384362 72.1561984984435 71.91448452664348 71.14539461637062 70.55209668558872 69.25563083684307 68.77220289324299 68.24482695477019 67.56363303424281 66.88243911371544 66.59677714704267 65.67386925471524 65.19044131111518 64.53122138802416 63.93792345724226 63.476469511078555 62.905145577733016 62.15802966489654 61.69657571873283 61.32301776231459 60.97143380333272 60.597875846914484 60.136421900750776 59.806811939205275 59.191540010987 58.73008606482329 58.53232008789599 58.11481413660502 57.78520417505951 57.30177623145944 56.664530305804796 56.26899835195019 55.87346639809559 55.45596044680461 55.28016846731368 54.70884453396813 54.44515656473173 54.04962461087713 53.654092657022524 53.368430690349754 52.95092473905878 52.51144479033144 52.22578282365867 51.78630287493133 51.41274491851309 51.01721296465848 50.577733015931145 50.248123054385644 49.808643105658305 49.39113715436733 48.97363120307636 48.70994323383995 48.44625526460355 47.96282732100348 47.61124336202161 47.3475553927852 47.017945431239696 46.79820545687603 46.468595495330526 46.13898553378502 45.919245559421356 45.65555759018495 45.32594762863944 45.12818165171214 44.93041567478484 44.7546236952939 44.4909357260575 44.22724775682109 44.02948177989379 43.787767808093754 43.52407983885735 43.216443874748215 42.90880791063908 42.75498992858451 42.31550997985717 42.05182201062077 41.76616004394799 41.19483611060245 40.79930415674785 40.469694195202344 39.942318256729536 39.788500274674966 39.370994323384 38.95348837209302 38.71177440029299 38.40413843618385 38.14045046694744 37.94268449002014 37.65702252334737 37.34938655923823 37.041750595129095 36.778062625892694 36.536348654092656 36.272660684856255 35.986998718183486 35.67936275407435 35.43764878227431 35.28383080021974 35.10803882072881 34.99816883354697 34.9102728438015 34.73448086431057 34.58066288225599 34.44881889763779 34.29500091558323 34.16315693096502 33.92144295916499 33.657754989928584 33.48196301043765 33.240249038637614 33.086431056583045 32.84471708478301 32.62497711041934 32.40523713605567 32.22944515656473 32.03167917963743 31.921809192455594 31.702069218091925 31.52627723860099 31.262589269364586 30.976927302691813 30.801135323200878 30.625343343709943 30.405603369346274 30.317707379600805 30.119941402673504 29.9880974180553 29.76835744369163 29.592565464200696 29.438747482146127 29.240981505218826 28.999267533418788 28.933345541109688 28.801501556491484 28.69163156930965 28.581761582127815 28.49386559238235 28.427943600073245 28.34004761032778 28.27412561801868 28.230177623145945 28.18622962827321 28.12030763596411 28.05438564365501 28.03241164621864 27.988463651345906 27.922541659036806 27.856619666727706 27.834645669291337 27.74674967954587 27.724775682109502 27.702801684673137 27.658853689800402 27.636879692364037 27.614905694927668 27.614905694927668 27.592931697491302 27.592931697491302 27.570957700054933 27.570957700054933 27.548983702618568 27.548983702618568 27.527009705182202 27.505035707745833 27.483061710309467 27.461087712873102 27.461087712873102 27.417139718000367 27.395165720564 27.395165720564 27.351217725691264 27.351217725691264 27.351217725691264 27.307269730818533 27.307269730818533 27.263321735945798 27.241347738509432 27.219373741073063 27.197399743636698 27.17542574620033 27.153451748763963 27.131477751327594 27.10950375389123 27.10950375389123 27.10950375389123 27.131477751327594 27.17542574620033 27.197399743636698 27.241347738509432 27.307269730818533 27.329243728254898 27.351217725691264 27.351217725691264 27.351217725691264 27.351217725691264 27.329243728254898 27.307269730818533 27.263321735945798 27.263321735945798 27.219373741073063 27.17542574620033 27.153451748763963 27.10950375389123 27.087529756454863 27.087529756454863 27.087529756454863 27.087529756454863 27.10950375389123 27.153451748763963 27.17542574620033 27.197399743636698 27.197399743636698 27.219373741073063 27.219373741073063 27.219373741073063 27.219373741073063 27.197399743636698 27.17542574620033 27.17542574620033 27.153451748763963 27.131477751327594 27.131477751327594 27.131477751327594 27.131477751327594 27.131477751327594 27.131477751327594 27.10950375389123 27.087529756454863 27.087529756454863 27.065555759018494 27.087529756454863 27.087529756454863 27.04358176158213 27.04358176158213 26.999633766709394 26.97765976927303 26.95568577183666 26.97765976927303 26.97765976927303 26.97765976927303 26.97765976927303 26.97765976927303 26.97765976927303 26.97765976927303 26.97765976927303 26.97765976927303 26.97765976927303 26.95568577183666 26.95568577183666 26.95568577183666 26.95568577183666 26.95568577183666 26.95568577183666 26.95568577183666 26.95568577183666 26.95568577183666 26.95568577183666 26.95568577183666 26.95568577183666 26.95568577183666 26.933711774400294 26.95568577183666 26.95568577183666 26.95568577183666 26.95568577183666 26.95568577183666 26.95568577183666 26.95568577183666 26.95568577183666 26.95568577183666 26.95568577183666 26.95568577183666 26.95568577183666 26.95568577183666 26.95568577183666 26.95568577183666 26.95568577183666 26.95568577183666 26.95568577183666 26.95568577183666 26.95568577183666 26.95568577183666 26.933711774400294 26.95568577183666 26.95568577183666 26.95568577183666 26.95568577183666 26.95568577183666 26.933711774400294 26.95568577183666 26.933711774400294 26.95568577183666 26.95568577183666 26.95568577183666 26.95568577183666 26.933711774400294 26.95568577183666 26.95568577183666 26.933711774400294 26.933711774400294 26.933711774400294 26.95568577183666 26.95568577183666 26.95568577183666 26.95568577183666 26.933711774400294 26.933711774400294 26.95568577183666 26.933711774400294 26.933711774400294 26.933711774400294 26.95568577183666 26.933711774400294 26.933711774400294 26.933711774400294 26.933711774400294 26.933711774400294 26.933711774400294 26.95568577183666 26.95568577183666 26.933711774400294 26.95568577183666 26.933711774400294 26.933711774400294 26.933711774400294 26.933711774400294 26.933711774400294 26.933711774400294 26.933711774400294 26.933711774400294 26.933711774400294 26.933711774400294 26.933711774400294 26.911737776963925 26.911737776963925 26.911737776963925 26.911737776963925 26.933711774400294 26.911737776963925 26.911737776963925 26.911737776963925 26.911737776963925 26.933711774400294 26.933711774400294 26.933711774400294 26.933711774400294 26.933711774400294 26.933711774400294 26.95568577183666 26.97765976927303 27.04358176158213 27.10950375389123 27.197399743636698 27.439113715436733 27.614905694927668 27.856619666727706 28.18622962827321 28.53781358725508 28.823475553927853 29.109137520600623 29.350851492400658 29.724409448818896 30.010071415491666 30.405603369346274 30.779161325764512 31.130745284746382 31.482329243728255 32.00970518220106 32.14154916681926 32.53708112067387 32.800769089910276 33.32814502838308 33.701702984801315 33.98736495147409 34.40487090276506 34.80040285661967 35.02014283098333 35.54751876945615 35.83318073612892 36.272660684856255 36.843984618201794 37.1735945797473 37.5032045412928 37.94268449002014 38.27229445156565 38.90954037722029 39.26112433620216 39.5687603003113 40.227980223402305 40.75535616187511 41.12891411829335 41.52444607214796 41.9639260208753 42.64511994140267 43.216443874748215 44.09540377220289 44.820545687603 45.39186962094854 46.09503753891229 46.754257462003295 47.017945431239696 47.87493133125801 48.31441127998535 48.92968320820363 49.56692913385827 49.984435085149244 50.643655008240245 51.45669291338582 51.91814685954954 52.357626808276876 52.863028749313315 53.54422266984069 54.203442592931694 54.95055850576817 55.58780443142282 56.07123237502289 56.796374290423 57.14795824940487 57.609412195568574 58.37850210584142 58.9278520417506 59.27943600073247 59.82878593664164 60.224317890496245 60.97143380333272 61.43288774949643 61.8503937007874 62.28987364951474 62.88317158029665 63.300677531587624 64.1137154367332 64.33345541109688 65.14649331624244 65.54202527009704 65.9815052188244 66.61875114447903 67.23402307269731 67.71745101629739 68.57443691631569 69.03589086247939 69.65116279069767 70.06866874198866 70.48617469327962 71.27723860098882 71.80461453946164 72.1561984984435 72.63962644204358 72.92528840871636 73.29884636513458 73.6943783189892 73.98004028566197 74.44149423182567 74.83702618568029 75.14466214978941 75.54019410364401 75.84783006775316 76.19941402673503 76.59494598058964 76.85863394982604 77.23219190624428 77.75956784471708 78.06720380882624 78.30891778062626 78.5506317524263 78.8802417139718 79.12195568577184 79.31972166269914 79.84709760117195 80.06683757553562 80.33052554477202 80.77000549349935 80.90184947811755 81.20948544222671 81.49514740889947 81.73686138069951 81.95660135506317 82.13239333455411 82.33015931148142 82.48397729353599 82.65976927302691 82.74766526277239 82.85753524995422 82.90148324482695 82.9454312396997 82.9454312396997 82.9454312396997 82.9454312396997 82.90148324482695 82.79161325764511 82.57187328328145 82.35213330891779 81.80278337300861 81.64896539095403 81.38527742171763 81.12158945248123 80.77000549349935 80.41842153451748 80.17670756271745 79.78117560886285 79.69327961911739 79.49551364219008 79.1439296832082 78.83629371909907 78.5506317524263 78.13312580113532 77.69364585240798 77.45193188060796 77.0783739241897 76.7487639626442 76.06757004211683 75.58414209851676 75.25453213697125 74.72715619849845 74.22175425746201 73.84819630104377 73.25489837026186 72.92528840871636 72.39791247024354 71.82658853689802 71.4310565830434 70.88170664713422 70.13459073429775 69.8928767624977 69.3655008240249 68.94799487273393 68.28877494964291 67.58560703167919 66.72862113166087 65.82768723676982 64.99267533418788 64.39937740340596 63.89397546236953 63.410547518769455 62.79527559055118 62.09210767258744 61.76249771104193 61.25709577000549 60.92748580845999 60.48800585973265 60.04852591100531 59.784837941768906 59.3893059879143 58.94982603918696 58.70811206738693 58.31258011353232 58.00494414942318 57.41164621864127 57.104010254532135 56.796374290423 56.356894341695664 55.917414392968325 55.58780443142282 55.17029848013185 54.75279252884087 54.335286577549894 54.071598608313494 53.763962644204355 53.14869071598608 52.70921076725874 52.40157480314961 51.9401208569859 51.63248489287676 51.21497894158579 50.665629005676614 50.314045046694744 50.006409082585606 49.63285112616737 49.32521516205823 48.90770921076726 48.60007324665812 48.11664530305805 47.63321735945797 47.259659403039734 46.688335469694195 46.117011536348656 45.47976561069402 44.86449368247574 44.4250137337484 43.80974180553012 43.392235854239146 43.040651895257284 42.35945797472991 41.87603003112983 41.56839406702069 41.04101812854789 40.71140816700238 40.227980223402305 39.7006042849295 39.173228346456696 38.71177440029299 38.29426844900202 37.94268449002014 37.4372825489837 36.865958615638164 36.272660684856255 36.00897271561985 35.65738875663798 35.17396081303791 34.86632484892877 34.33894891045596 34.009338948910454 33.789598974546784 33.503937007874015 33.262223036073976 33.174327046328514 32.82274308734664 32.712873100164806 32.581029115546606 32.40523713605567 32.29536714887384 32.09760117194653 31.96575718732833 31.87786119758286 31.81193920527376 31.72404321552829 31.65812122321919 31.548251236037355 31.41640725141915 31.30653726423732 31.15271928218275 31.108771287310017 30.911005310382713 30.801135323200878 30.647317341146312 30.537447353964474 30.44955136421901 30.339681377037174 30.251785387291704 30.20783739241897 30.119941402673504 30.07599340780077 30.010071415491666 29.944149423182566 29.9221754257462 29.878227430873466 29.878227430873466 29.900201428309835 29.900201428309835 29.900201428309835 29.9221754257462 29.944149423182566 29.944149423182566 29.944149423182566 29.944149423182566 29.944149423182566 29.944149423182566 29.944149423182566 29.966123420618935 29.944149423182566 29.9221754257462 29.878227430873466 29.812305438564366 29.724409448818896 29.592565464200696 29.48269547701886 29.284929500091557 29.021241530855153 28.84544955136422 28.581761582127815 28.40596960263688 28.18622962827321 27.96648965390954 27.90056766160044 27.81267167185497 27.74674967954587 27.724775682109502 27.724775682109502 27.724775682109502 27.74674967954587 27.790697674418606 27.856619666727706 27.96648965390954 28.03241164621864 28.09833363852774 28.142281633400476 28.16425563083684 28.16425563083684 28.16425563083684 28.142281633400476 28.12030763596411 28.076359641091376 28.03241164621864 27.96648965390954 27.944515656473172 27.90056766160044 27.87859366416407 27.856619666727706 27.856619666727706 27.856619666727706 27.87859366416407 27.87859366416407 27.90056766160044 27.922541659036806 27.922541659036806 27.944515656473172 27.988463651345906 28.010437648782275 28.03241164621864 28.05438564365501 28.076359641091376 28.076359641091376 28.076359641091376 28.076359641091376 28.09833363852774 28.12030763596411 28.142281633400476 28.18622962827321 28.208203625709576 28.25215162058231 28.27412561801868 28.296099615455045 28.31807361289141 28.31807361289141 28.31807361289141 28.31807361289141 28.31807361289141 28.31807361289141 28.31807361289141 28.31807361289141 28.31807361289141 28.31807361289141 28.31807361289141 28.31807361289141 28.31807361289141 28.31807361289141 28.31807361289141 28.31807361289141 28.31807361289141 28.31807361289141 28.34004761032778 28.34004761032778 28.34004761032778 28.34004761032778 28.34004761032778 28.34004761032778 28.34004761032778 28.362021607764145 28.362021607764145 28.34004761032778 28.34004761032778 28.31807361289141 28.296099615455045 28.296099615455045 28.27412561801868 28.27412561801868 28.27412561801868 28.25215162058231 28.25215162058231 28.25215162058231 28.27412561801868 28.27412561801868 28.296099615455045 28.296099615455045 28.31807361289141 28.31807361289141 28.34004761032778 28.34004761032778 28.34004761032778 28.34004761032778 28.34004761032778 28.31807361289141 28.31807361289141 28.296099615455045 28.27412561801868 28.25215162058231 28.25215162058231 28.27412561801868 28.25215162058231 28.25215162058231 28.230177623145945 28.230177623145945 28.208203625709576 28.208203625709576 28.18622962827321 28.18622962827321 28.18622962827321 28.18622962827321 28.18622962827321 28.18622962827321 28.18622962827321 28.16425563083684 28.142281633400476 28.142281633400476 28.142281633400476 28.12030763596411 28.12030763596411 28.12030763596411 28.12030763596411 28.12030763596411 28.12030763596411 28.12030763596411 28.09833363852774 28.09833363852774 28.09833363852774 28.09833363852774 28.09833363852774 28.076359641091376 28.076359641091376 28.076359641091376 28.076359641091376 28.09833363852774 28.09833363852774 28.076359641091376 28.076359641091376 28.076359641091376 28.05438564365501 28.05438564365501 28.03241164621864 28.03241164621864 28.05438564365501 28.05438564365501 28.05438564365501 28.03241164621864 28.05438564365501 28.05438564365501 28.05438564365501 28.05438564365501 28.076359641091376 28.076359641091376 28.09833363852774 28.09833363852774 28.076359641091376 28.076359641091376 28.076359641091376 28.076359641091376 28.076359641091376 28.076359641091376 28.076359641091376 28.05438564365501 28.05438564365501 28.03241164621864 28.03241164621864 28.03241164621864 28.010437648782275 27.988463651345906 27.988463651345906 27.96648965390954 27.944515656473172 27.944515656473172 27.944515656473172 27.944515656473172 27.96648965390954 27.944515656473172 27.944515656473172 27.944515656473172 27.944515656473172 27.944515656473172 27.944515656473172 27.944515656473172 27.922541659036806 27.922541659036806 27.922541659036806 27.944515656473172 27.944515656473172 27.988463651345906 28.010437648782275 28.03241164621864 28.09833363852774 28.142281633400476 28.230177623145945 28.34004761032778 28.47189159494598 28.603735579564184 28.801501556491484 28.955319538546053 29.175059512909723 29.372825489837027 29.61453946163706 29.900201428309835 30.097967405237135 30.42757736678264 30.889031312946347 31.196667277055482 31.46035524629189 31.72404321552829 32.1195751693829 32.49313312580114 32.800769089910276 33.152353048892145 33.569859000183115 33.855520966855885 34.27302691814686 34.55868888481963 34.99816883354697 35.43764878227431 35.83318073612892 36.118842702801686 36.492400659219925 36.73411463101996 37.1076725874382 37.393334554110965 37.85478850027467 38.22834645669291 38.49203442592932 38.88756637978392 39.15125434902033 39.590734297747666 39.942318256729536 40.27192821827504 40.86522614905695 41.39260208752975 41.81010803882073 42.33748397729354 42.733015931148145 43.326313861930046 43.941585790148324 44.3590917414393 45.0183116645303 45.65555759018495 46.20490752609412 46.73228346456693 47.43545138253067 48.13861930049441 48.64402124153085 49.171397180003666 49.808643105658305 50.577733015931145 51.25892693645852 51.9401208569859 52.40157480314961 53.03882072880425 53.566196667277055 54.11554660318623 54.92858450833181 55.34609045962278 55.71964841604102 56.29097234938656 56.664530305804796 57.235854239150335 57.89507416224135 58.04889214429592 58.53232008789599 58.9937740340597 59.367331990477936 59.76286394433254 60.180369895623514 60.641823841787215 60.90551181102362 61.23512177256912 61.6526277238601 62.09210767258744 62.57553561618751 63.058963559787585 63.366599523896724 63.828053470060425 64.20161142647866 64.5092473905878 65.0366233290606 65.47610327778796 65.80571323933346 66.28914118293352 66.61875114447903 67.08020509064274 67.54165903680644 67.87126899835195 68.37667093938839 68.86009888298847 69.25563083684307 69.65116279069767 69.98077275224318 70.39827870353415 70.85973264969786 71.14539461637062 71.4969785753525 71.78264054202528 72.26606848562534 72.48580845998902 72.85936641640725 73.2329243728255 73.60648232924373 73.80424830617103 74.24372825489837 74.66123420618933 74.92492217542575 75.27650613440761 75.49624610877129 75.80388207288043 76.0895440395532 76.28731001648049 76.5509979857169 76.70481596777148 76.92455594213514 77.18824391137156 77.276139901117 77.42995788317158 77.60574986266252 77.67167185497162 77.80351583958982 77.91338582677164 78.13312580113532 78.30891778062626 78.4187877678081 78.57260574986266 78.77037172678996 78.79234572422632 78.96813770371728 79.03405969602638 79.09998168833548 79.09998168833548 79.09998168833548 79.09998168833548 78.96813770371728 78.79234572422632 78.52865775498992 78.352865775499 78.06720380882624 77.82548983702618 77.51785387291704 77.276139901117 77.0124519318806 76.8806079472624 76.63889397546237 76.39718000366233 76.11151803698957 75.78190807544406 75.54019410364401 75.18861014466215 74.81505218824393 74.44149423182567 74.22175425746201 73.98004028566197 73.67240432155283 73.3647683574437 73.12305438564366 72.66160043947995 72.46383446255265 72.00238051638894 71.7606665445889 71.47500457791614 71.0355246291888 70.57407068302508 70.09064273942502 69.5632668009522 69.16773484709759 68.61838491118843 68.24482695477019 67.87126899835195 67.32191906244277 66.61875114447903 66.26716718549716 65.76176524446072 65.36623329060612 64.70701336751512 64.20161142647866 63.850027467496794 63.432521516205824 62.86119758286028 62.42171763413294 61.7844717084783 61.30104376487823 60.509979857169014 60.114447903314414 59.718915949459806 59.14759201611427 58.62021607764146 58.24665812122322 57.56546420069584 57.21388024171397 56.752426295550265 56.488738326313864 56.181102362204726 55.60977842885919 55.17029848013185 54.86266251602271 54.48910455960447 54.203442592931694 53.785936641640724 53.346456692913385 53.03882072880425 52.57736678264054 52.18183482878594 51.89617286211316 51.50064090825856 51.149056949276684 50.84142098516755 50.445889031312944 50.226149056949275 49.89653909540377 49.479033144112805 49.25929316974913 49.01757919794909 48.68796923640359 48.31441127998535 48.07269730818531 47.83098333638527 47.3475553927852 47.083867423548796 46.688335469694195 46.292803515839594 45.985167551730456 45.65555759018495 45.30397363120308 45.04028566196667 44.71067570042116 44.46896172862113 44.139351767075624 43.721845815784654 43.348287859366415 43.01867789782091 42.842885918329976 42.55722395165721 42.35945797472991 42.1616919978026 41.81010803882073 41.56839406702069 41.41457608496612 41.19483611060245 40.99707013367515 40.82127815418421 40.62351217725691 40.469694195202344 40.206006225965936 39.942318256729536 39.744552279802235 39.41494231825673 38.97546236952939 38.79967039003846 38.53598242080205 38.31624244643838 38.00860648232924 37.635048525911 37.4372825489837 37.1735945797473 36.975828602819995 36.80003662332906 36.668192638710856 36.492400659219925 36.22871268998352 36.03094671305622 35.89910272843802 35.70133675151071 35.50357077458341 35.34975279252884 35.15198681560154 35.02014283098333 34.82237685405603 34.60263687969236 34.44881889763779 34.207104925837754 33.89946896172862 33.723676982237684 33.569859000183115 33.416041018128546 33.196301043764876 32.998535066837576 32.84471708478301 32.646951107855706 32.55905511811024 32.42721113349204 32.33931514374657 32.22944515656473 32.07562717451016 31.94378318989196 31.833913202710125 31.636147225782825 31.52627723860099 31.35048525911005 31.196667277055482 31.064823292437282 30.932979307819082 30.823109320637247 30.779161325764512 30.735213330891778 30.691265336019043 30.603369346273574 30.58139534883721 30.537447353964474 30.44955136421901 30.383629371909905 30.29573338216444 30.20783739241897 30.119941402673504 30.032045412928035 29.966123420618935 29.9221754257462 29.8562534334371 29.812305438564366 29.76835744369163 29.724409448818896 29.70243545138253 29.61453946163706 29.504669474455227 29.41677348470976 29.284929500091557 29.153085515473357 29.065189525727888 28.955319538546053 28.889397546236953 28.77952755905512 28.669657571873284 28.603735579564184 28.49386559238235 28.31807361289141 28.208203625709576 28.03241164621864 27.96648965390954 27.87859366416407 27.834645669291337 27.768723676982237 27.724775682109502 27.68082768723677 27.68082768723677 27.68082768723677 27.658853689800402 27.636879692364037 27.570957700054933 27.483061710309467 27.395165720564 27.329243728254898 27.263321735945798 27.197399743636698 27.153451748763963 27.10950375389123 27.04358176158213 26.999633766709394 26.95568577183666 26.88976377952756 26.867789782091194 26.867789782091194 26.88976377952756 26.933711774400294 26.95568577183666 26.95568577183666 26.95568577183666 26.95568577183666 26.95568577183666 26.933711774400294 26.933711774400294 26.933711774400294 26.911737776963925 26.911737776963925 26.911737776963925 26.911737776963925 26.933711774400294 26.911737776963925 26.933711774400294 26.933711774400294 26.933711774400294 26.933711774400294 26.933711774400294 26.933711774400294 26.911737776963925 26.933711774400294 26.933711774400294 26.933711774400294 26.933711774400294 26.911737776963925 26.933711774400294 26.933711774400294 26.933711774400294 26.933711774400294 26.933711774400294 26.933711774400294 26.95568577183666 26.95568577183666 26.95568577183666 26.97765976927303 26.97765976927303 26.97765976927303 26.97765976927303 26.97765976927303 26.999633766709394 26.999633766709394 26.999633766709394 27.02160776414576 27.02160776414576 27.02160776414576 26.999633766709394 26.999633766709394 26.999633766709394 26.999633766709394 26.999633766709394 27.02160776414576 27.02160776414576 27.02160776414576 27.02160776414576 27.02160776414576 27.04358176158213 27.04358176158213 27.04358176158213 27.04358176158213 27.065555759018494 27.04358176158213 27.04358176158213 27.04358176158213 27.04358176158213 27.04358176158213 27.04358176158213 27.04358176158213 27.04358176158213 27.04358176158213 27.04358176158213 27.065555759018494 27.065555759018494 27.065555759018494 27.087529756454863 27.087529756454863 27.087529756454863 27.087529756454863 27.087529756454863 27.087529756454863 27.087529756454863 27.087529756454863 27.087529756454863 27.087529756454863 27.087529756454863 27.10950375389123 27.10950375389123 27.065555759018494 27.065555759018494 27.04358176158213 27.02160776414576 27.02160776414576 27.02160776414576 26.999633766709394 26.999633766709394 26.97765976927303 26.97765976927303 26.95568577183666 26.97765976927303 26.97765976927303 26.97765976927303 26.97765976927303 26.97765976927303 26.97765976927303 26.95568577183666 26.95568577183666 26.933711774400294 26.95568577183666 26.933711774400294 26.933711774400294 26.95568577183666 26.95568577183666 26.95568577183666 26.95568577183666 26.95568577183666 26.95568577183666 26.95568577183666 26.95568577183666 26.95568577183666 26.95568577183666 26.933711774400294 26.933711774400294 26.933711774400294 26.95568577183666 26.95568577183666 26.933711774400294 26.95568577183666 26.95568577183666 26.999633766709394 27.065555759018494 27.17542574620033 27.263321735945798 27.461087712873102 27.658853689800402 27.988463651345906 28.603735579564184 28.91137154367332 29.460721479582496 30.032045412928035 30.42757736678264 31.020875297564547 31.636147225782825 32.07562717451016 32.49313312580114 32.800769089910276 33.240249038637614 33.591832997619484 33.877494964292254 34.18513092840139 34.55868888481963 34.80040285661967 35.13001281816517 35.39370078740157 35.76725874381981 36.316608679728986 36.602270646401756 36.997802600256364 37.4372825489837 38.20637245925654 38.86559238234756 39.34902032594763 39.986266251602274 40.645486174693275 41.10694012085699 41.74418604651163 42.13971800036623 42.82091192089361 43.370261856802784 43.787767808093754 44.38106573887566 44.79857169016664 45.32594762863944 45.89727156198498 46.292803515839594 46.908075444057864 47.69913935176707 48.16059329793078 48.79783922358543 49.39113715436733 49.91851309284014 50.35799304156748 50.81944698773118 51.78630287493133 52.48947079289508 52.97289873649515 53.632118659586155 54.04962461087713 54.6648965390954 55.25819446987731 55.69767441860465 56.29097234938656 56.8622962827321 57.257828236586704 58.02691814685955 58.44442409815052 58.90587804431423 59.433253982787036 59.872733931514375 60.46603186229628 61.27906976744186 61.69657571873283 62.31184764695111 62.81724958798755 63.322651529023986 63.718183482878594 64.1137154367332 64.86083134956968 65.43215528291522 65.80571323933346 66.33308917780627 66.72862113166087 67.40981505218824 67.80534700604285 68.15693096502471 68.64035890862479 69.14576084966123 69.47537081120674 69.98077275224318 70.46420069584326 70.9036806445706 71.2332906061161 71.51895257278886 71.95843252151622 72.37593847280718 72.79344442409815 73.21095037538913 73.54056033693463 73.8921442959165 74.24372825489837 74.48544222669841 74.96887017029849 75.29848013184399 75.71598608313496 76.2213880241714 76.41915400109869 76.7487639626442 77.12232191906244 77.38600988829884 77.75956784471708 78.04522981138985 78.30891778062626 78.57260574986266 78.77037172678996 79.20985167551731 79.38564365500824 79.5394616370628 79.64933162424464 79.78117560886285 79.86907159860831 80.00091558322652 80.04486357809925 80.08881157297199 80.08881157297199 80.11078557040835 80.08881157297199 80.08881157297199 80.04486357809925 79.93499359091741 79.82512360373559 79.62735762680828 79.45156564731734 79.29774766526278 79.09998168833548 78.92418970884452 78.63852774217176 78.44076176524446 78.30891778062626 78.1550997985717 77.84746383446256 77.64969785753524 77.53982787035342 77.38600988829884 77.0783739241897 76.79271195751694 76.57297198315328 76.30928401391687 76.00164804980773 75.75993407800769 75.43032411646219 75.16663614722579 74.83702618568029 74.48544222669841 74.24372825489837 73.7603003112983 73.54056033693463 73.29884636513458 72.99121040102546 72.72752243178905 72.46383446255265 72.06830250869804 71.84856253433438 71.4969785753525 71.27723860098882 70.92565464200696 70.66196667277055 70.42025270097052 70.04669474455227 69.73905878044314 69.47537081120674 69.14576084966123 68.88207288042483 68.46456692913387 68.11298297015199 67.80534700604285 67.40981505218824 66.99230910089727 66.68467313678813 66.06940120856986 65.80571323933346 65.36623329060612 65.0366233290606 64.75096136238784 64.3774034059696 64.00384544955136 63.630287493133125 63.278703534151255 63.036989562351216 62.72935359824208 62.53158762131478 62.33382164438748 62.00421168284197 61.76249771104193 61.54275773667826 61.30104376487823 61.12525178538729 60.86156381615089 60.575901849478115 60.40010986998718 60.136421900750776 59.872733931514375 59.63101995971434 59.3893059879143 59.21351400842337 58.79600805713239 58.53232008789599 58.31258011353232 58.00494414942318 57.63138619300494 57.36769822376854 56.840322285295734 56.554660318622965 56.15912836476836 55.71964841604102 55.43398644936825 55.01648049807727 54.55502655191357 54.22541659036806 53.829884636513455 53.52224867240432 53.08276872367698 52.68723676982238 52.37960080571324 51.83025086980406 51.5445889031313 51.28090093389489 50.90734297747665 50.643655008240245 50.116279069767444 49.742721113349205 49.544955136421905 49.19337117744003 48.57809924922175 48.38033327229445 48.09467130562168 47.69913935176707 47.3475553927852 46.995971433803334 46.754257462003295 46.44662149789416 46.20490752609412 45.87529756454862 45.47976561069402 45.23805163889398 44.8864676799121 44.5568577183666 44.33711774400293 44.02948177989379 43.831715802966485 43.590001831166454 43.282365867057315 43.08459989013001 42.90880791063908 42.55722395165721 42.42537996703901 42.11774400292987 41.87603003112983 41.39260208752975 41.084966123420614 40.88720014649331 40.62351217725691 40.35982420802051 40.206006225965936 39.986266251602274 39.8324482695477 39.612708295184035 39.34902032594763 39.12928035158396 38.62387841054752 38.33821644387475 38.09650247207471 37.67899652078374 37.415308551547334 37.041750595129095 36.536348654092656 36.22871268998352 35.89910272843802 35.59146676432888 35.37172678996521 35.10803882072881 34.82237685405603 34.18513092840139 33.657754989928584 33.284197033510345 32.734847097601175 32.33931514374657 31.921809192455594 31.46035524629189 31.15271928218275 30.691265336019043 30.339681377037174 30.119941402673504 29.812305438564366 29.592565464200696 29.438747482146127 29.350851492400658 29.306903497527927 29.284929500091557 29.262955502655192 29.262955502655192 29.284929500091557 29.306903497527927 29.350851492400658 29.372825489837027 29.372825489837027 29.350851492400658 29.328877494964292 29.306903497527927 29.284929500091557 29.262955502655192 29.19703351034609 29.131111518036988 29.109137520600623 29.043215528291523 28.999267533418788 28.97729353598242 28.933345541109688 28.91137154367332 28.889397546236953 28.889397546236953 28.867423548800588 28.84544955136422 28.823475553927853 28.823475553927853 28.823475553927853 28.84544955136422 28.84544955136422 28.84544955136422 28.867423548800588 28.867423548800588 28.867423548800588 28.867423548800588 28.889397546236953 28.889397546236953 28.889397546236953 28.91137154367332 28.933345541109688 28.933345541109688 28.955319538546053 28.97729353598242 28.97729353598242 28.999267533418788 28.999267533418788 28.999267533418788 28.97729353598242 28.97729353598242 28.97729353598242 28.97729353598242 28.955319538546053 28.955319538546053 28.933345541109688 28.91137154367332 28.933345541109688 28.91137154367332 28.933345541109688 28.91137154367332 28.91137154367332 28.91137154367332 28.889397546236953 28.889397546236953 28.867423548800588 28.867423548800588 28.867423548800588 28.867423548800588 28.867423548800588 28.84544955136422 28.84544955136422 28.84544955136422 28.84544955136422 28.84544955136422 28.84544955136422 28.84544955136422 28.84544955136422 28.84544955136422 28.84544955136422 28.84544955136422 28.84544955136422 28.84544955136422 28.823475553927853 28.823475553927853 28.823475553927853 28.801501556491484 28.77952755905512 28.75755356161875 28.735579564182384 28.735579564182384 28.71360556674602 28.71360556674602 28.69163156930965 28.669657571873284 28.669657571873284 28.64768357443692 28.64768357443692 28.64768357443692 28.64768357443692 28.64768357443692 28.62570957700055 28.62570957700055 28.603735579564184 28.581761582127815 28.55978758469145 28.55978758469145 28.53781358725508 28.515839589818714 28.47189159494598 28.427943600073245 28.38399560520051 28.34004761032778 28.27412561801868 28.230177623145945 28.208203625709576 28.16425563083684 28.142281633400476 28.142281633400476 28.12030763596411 28.12030763596411 28.12030763596411 28.12030763596411 28.142281633400476 28.12030763596411 28.09833363852774 28.09833363852774 28.09833363852774 28.09833363852774 28.076359641091376 28.076359641091376 28.05438564365501 28.03241164621864 28.010437648782275 27.988463651345906 27.96648965390954 27.96648965390954 27.944515656473172 27.922541659036806 27.922541659036806 27.90056766160044 27.856619666727706 27.856619666727706 27.834645669291337 27.856619666727706 27.834645669291337 27.81267167185497 27.81267167185497 27.790697674418606 27.768723676982237 27.768723676982237 27.74674967954587 27.74674967954587 27.724775682109502 27.724775682109502 27.724775682109502 27.724775682109502 27.724775682109502 27.724775682109502 27.724775682109502 27.724775682109502 27.724775682109502 27.702801684673137 27.724775682109502 27.702801684673137 27.702801684673137 27.702801684673137 27.68082768723677 27.68082768723677 27.658853689800402 27.658853689800402 27.636879692364037 27.614905694927668 27.614905694927668 27.592931697491302 27.614905694927668 27.592931697491302 27.592931697491302 27.592931697491302 27.592931697491302 27.592931697491302 27.614905694927668 27.614905694927668 27.614905694927668 27.636879692364037 27.614905694927668 27.614905694927668 27.614905694927668 27.592931697491302 27.592931697491302 27.592931697491302 27.592931697491302 27.592931697491302 27.614905694927668 27.592931697491302 27.614905694927668 27.614905694927668 27.614905694927668 27.636879692364037 27.636879692364037 27.636879692364037 27.636879692364037 27.636879692364037 27.636879692364037 27.636879692364037 27.636879692364037 27.636879692364037 27.614905694927668 27.614905694927668 27.636879692364037 27.68082768723677 27.724775682109502 27.834645669291337 27.944515656473172 28.16425563083684 28.38399560520051 28.53781358725508 28.77952755905512 29.065189525727888 29.328877494964292 29.63651345907343 29.900201428309835 30.273759384728073 30.647317341146312 30.932979307819082 31.37245925654642 31.94378318989196 32.2514191540011 32.53708112067387 32.84471708478301 33.306171030946714 33.74565097967405 34.075260941219554 34.7125068668742 35.06409082585607 35.56949276689251 35.87712873100165 36.20673869254715 36.887932613074526 37.3713605566746 37.74491851309284 38.22834645669291 38.57993041567478 39.12928035158396 39.656656290056766 40.140084233656836 40.579564182384175 41.12891411829335 41.52444607214796 42.11774400292987 42.57919794909357 43.128547885002746 43.787767808093754 44.44698773118476 45.12818165171214 45.76542757736678 46.424647500457795 46.73228346456693 47.30360739791247 47.96282732100348 48.40230726973082 48.86376121589453 49.808643105658305 50.48983702618568 50.97326496978575 51.65445889031313 52.0719648416041 52.75315876213148 53.412378685222485 54.00567661600439 54.5330525544772 55.17029848013185 55.60977842885919 56.444790331441126 56.840322285295734 57.235854239150335 57.80717817249588 58.18073612891412 58.68613806995056 59.41127998535067 59.960629921259844 60.312213880241714 60.68577183665995 61.21314777513276 61.82841970335103 62.20197765976927 62.72935359824208 63.23475553927852 63.608313495696756 64.13568943416956 64.48727339315144 65.14649331624244 65.56399926753342 65.89360922907892 66.28914118293352 66.61875114447903 67.05823109320637 67.62955502655191 67.93719099066105 68.35469694195203 68.77220289324299 69.01391686504303 69.3655008240249 69.65116279069767 70.17853872917048 70.57407068302508 70.81578465482514 71.18934261124336 71.54092657022522 71.80461453946164 72.04632851126168 72.37593847280718 72.70554843435269 73.03515839589818 73.25489837026186 73.67240432155283 73.95806628822561 74.11188427028017 74.33162424464385 74.50741622413477 74.72715619849845 74.96887017029849 75.12268815235305 75.40835011902581 75.58414209851676 75.71598608313496 75.84783006775316 75.91375206006227 75.97967405237137 75.97967405237137 75.957700054935 75.93572605749863 75.78190807544406 75.58414209851676 75.38637612158945 75.25453213697125 75.01281816517121 74.81505218824393 74.70518220106207 74.55136421900751 74.41952023438931 74.26570225233473 74.11188427028017 73.95806628822561 73.73832631386193 73.4306903497528 73.32082036257097 73.03515839589818 72.8373924189709 72.70554843435269 72.55173045229812 72.4198864676799 72.11225050357078 71.8925105292071 71.73869254715254 71.4969785753525 71.3651345907343 71.12342061893426 70.9036806445706 70.74986266251602 70.53012268815235 70.22248672404322 70.13459073429775 69.80498077275224 69.60721479582494 69.32155282915217 68.99194286760667 68.75022889580663 68.39864493682475 67.87126899835195 67.60758102911555 67.21204907526095 66.86046511627907 66.55282915216993 66.28914118293352 65.9815052188244 65.41018128547884 64.99267533418788 64.70701336751512 64.28950741622413 63.828053470060425 63.564365500824024 63.146859549533055 62.81724958798755 62.39974363669658 62.0481596777147 61.74052371360557 61.19117377769639 60.83958981871452 60.444057864859914 60.158395898187145 59.850759934078006 59.23548800585973 58.81798205456876 58.48837209302326 58.04889214429592 57.67533418787768 57.323750228895804 57.016114264786665 56.752426295550265 56.20307635964109 55.78557040835012 55.49990844167735 55.08240249038637 54.77476652627723 54.29133858267717 53.829884636513455 53.54422266984069 53.08276872367698 52.62131477751328 52.3356528108405 51.91814685954954 51.52261490569492 51.149056949276684 50.90734297747665 50.665629005676614 50.35799304156748 50.116279069767444 49.76469511078557 49.32521516205823 49.105475187694566 48.79783922358543 48.49020325947629 48.27046328511261 47.96282732100348 47.76506134407617 47.50137337483977 47.259659403039734 47.017945431239696 46.776231459439664 46.622413477385095 46.44662149789416 46.16095953122139 45.96319355429409 45.65555759018495 45.34792162607581 45.12818165171214 44.7546236952939 44.46896172862113 44.271195751693824 44.11737776963926 43.96355978758469 43.765793810657385 43.590001831166454 43.414209851675515 43.282365867057315 43.08459989013001 42.95275590551181 42.776963926020876 42.667093938839045 42.49130195934811 42.293535982420806 42.18366599523897 42.00787401574803 41.78813404138436 41.59036806445706 41.43655008240249 41.30470609778429 41.17286211316609 40.953122138802414 40.86522614905695 40.75535616187511 40.55759018494781 40.49166819263871 40.35982420802051 40.249954220838674 39.986266251602274 39.810474272111335 39.656656290056766 39.48086431056583 39.28309833363853 39.15125434902033 38.97546236952939 38.84361838491119 38.68980040285662 38.53598242080205 38.44808643105658 38.25032045412928 38.09650247207471 37.96465848745651 37.8328145028383 37.7009705182201 37.52517853872917 37.195568577183664 36.997802600256364 36.712140633583594 36.51437465665629 36.20673869254715 36.03094671305622 35.85515473356528 35.54751876945615 35.30580479765611 35.13001281816517 34.95422083867423 34.80040285661967 34.55868888481963 34.40487090276506 34.27302691814686 34.075260941219554 33.855520966855885 33.67972898736495 33.416041018128546 33.152353048892145 32.866691082219376 32.66892510529207 32.49313312580114 32.3173411463102 32.14154916681926 31.96575718732833 31.81193920527376 31.72404321552829 31.636147225782825 31.548251236037355 31.46035524629189 31.21864127449185 31.042849295000916 30.86705731550998 30.713239333455412 30.559421351400843 30.29573338216444 30.032045412928035 29.878227430873466 29.63651345907343 29.394799487273392 29.219007507782457 28.97729353598242 28.823475553927853 28.515839589818714 28.34004761032778 28.18622962827321 28.03241164621864 27.856619666727706 27.74674967954587 27.570957700054933 27.483061710309467 27.395165720564 27.307269730818533 27.241347738509432 27.17542574620033 27.153451748763963 27.131477751327594 27.131477751327594 27.131477751327594 27.131477751327594 27.131477751327594 27.10950375389123 27.10950375389123 27.087529756454863 27.065555759018494 27.065555759018494 27.04358176158213 27.04358176158213 27.02160776414576 27.04358176158213 27.04358176158213 27.04358176158213 27.04358176158213 27.04358176158213 27.04358176158213 27.04358176158213 27.04358176158213 27.04358176158213 27.04358176158213 27.04358176158213 27.04358176158213 27.04358176158213 27.065555759018494 27.065555759018494 27.065555759018494 27.065555759018494 27.065555759018494 27.065555759018494 27.087529756454863 27.10950375389123 27.10950375389123 27.131477751327594 27.131477751327594 27.131477751327594 27.153451748763963 27.153451748763963 27.153451748763963 27.153451748763963 27.153451748763963 27.153451748763963 27.153451748763963 27.153451748763963 27.153451748763963 27.17542574620033 27.153451748763963 27.153451748763963 27.153451748763963 27.17542574620033 27.153451748763963 27.153451748763963 27.153451748763963 27.153451748763963 27.131477751327594 27.131477751327594 27.131477751327594 27.10950375389123 27.10950375389123 27.10950375389123 27.10950375389123 27.10950375389123 27.10950375389123 27.10950375389123 27.10950375389123 27.10950375389123 27.10950375389123 27.10950375389123 27.10950375389123 27.10950375389123 27.10950375389123 27.10950375389123 27.10950375389123 27.10950375389123 27.10950375389123 27.087529756454863 27.087529756454863 27.087529756454863 27.065555759018494 27.065555759018494 27.04358176158213 27.04358176158213 27.065555759018494 27.065555759018494 27.065555759018494 27.04358176158213 27.065555759018494 27.04358176158213 27.04358176158213 27.04358176158213 27.065555759018494 27.04358176158213 27.04358176158213 27.04358176158213 27.04358176158213 27.04358176158213 27.04358176158213 27.04358176158213 27.04358176158213 27.04358176158213 27.04358176158213 27.02160776414576 27.02160776414576 27.04358176158213 27.02160776414576 27.02160776414576 27.02160776414576 27.02160776414576 27.02160776414576 27.02160776414576 27.02160776414576 27.02160776414576 27.02160776414576 27.02160776414576 27.02160776414576 27.02160776414576 26.999633766709394 27.02160776414576 27.02160776414576 26.999633766709394 27.02160776414576 26.999633766709394 27.02160776414576 26.999633766709394 27.02160776414576 26.999633766709394 27.02160776414576 26.999633766709394 26.999633766709394 26.999633766709394 27.02160776414576 26.999633766709394 27.02160776414576 26.999633766709394 26.999633766709394 26.999633766709394 26.999633766709394 26.999633766709394 26.999633766709394 26.999633766709394 26.999633766709394 26.999633766709394 27.02160776414576 26.999633766709394 26.999633766709394 27.02160776414576 27.02160776414576 26.999633766709394 26.999633766709394 27.02160776414576 27.02160776414576 26.999633766709394 27.02160776414576 26.999633766709394 27.02160776414576 27.02160776414576 27.02160776414576 27.02160776414576 27.02160776414576 27.02160776414576 27.02160776414576 27.02160776414576 27.04358176158213 27.04358176158213 27.065555759018494 27.065555759018494 27.065555759018494 27.065555759018494 27.087529756454863 27.131477751327594 27.17542574620033 27.285295733382164 27.527009705182202 27.592931697491302 27.790697674418606 27.96648965390954 28.296099615455045 28.62570957700055 28.867423548800588 29.19703351034609 29.438747482146127 29.812305438564366 30.119941402673504 30.339681377037174 30.691265336019043 31.042849295000916 31.328511261673686 31.65812122321919 31.94378318989196 32.47115912836477 32.734847097601175 33.04248306171031 33.48196301043765 33.943416956601354 34.44881889763779 34.9761948361106 35.32777879509247 35.85515473356528 36.272660684856255 36.668192638710856 37.34938655923823 37.89873649514741 38.31624244643838 38.86559238234756 39.26112433620216 39.854422266984066 40.381798205456874 40.77733015931148 41.32668009522065 41.83208203625709 42.27156198498443 42.75498992858451 43.128547885002746 43.85368980040286 44.24922175425746 44.66672770554844 45.21607764145761 46.051089544039556 46.51254349020326 46.952023438930595 47.67716535433071 48.42428126716719 48.97363120307636 49.720747115912836 50.48983702618568 51.25892693645852 51.8082768723677 52.57736678264054 53.08276872367698 53.851858633949824 54.55502655191357 55.06042849295001 55.80754440578649 56.488738326313864 57.08203625709577 57.96099615455045 58.70811206738693 59.08167002380517 59.674967954587075 60.180369895623514 61.21314777513276 61.82841970335103 62.46566562900568 63.256729536714886 63.80607947262406 64.53122138802416 65.27833730086064 65.80571323933346 66.5088811572972 66.99230910089727 67.69547701886101 68.37667093938839 68.8381248855521 69.67313678813403 70.09064273942502 70.46420069584326 71.01355063175242 71.40908258560702 71.93645852407984 72.57370444973449 72.90331441127998 73.34279436000733 73.7603003112983 73.93609229078925 74.37557223951657 74.70518220106207 75.25453213697125 75.6940120856986 75.97967405237137 76.37520600622597 76.77073796008057 77.03442592931697 77.40798388573522 77.69364585240798 78.0891778062626 78.44076176524446 78.72642373191724 79.12195568577184 79.64933162424464 79.80314960629921 80.19868156015382 80.48434352682659 80.81395348837209 81.18751144479035 81.51712140633583 81.82475737044497 82.08844533968139 82.17634132942685 82.35213330891779 82.46200329609962 82.61582127815419 82.65976927302691 82.65976927302691 82.65976927302691 82.65976927302691 82.57187328328145 82.41805530122689 82.26423731917231 82.02252334737227 81.73686138069951 81.51712140633583 81.20948544222671 80.92382347555393 80.55026551913569 80.37447353964475 80.17670756271745 79.89104559604468 79.56143563449919 79.36366965757188 78.96813770371728 78.79234572422632 78.52865775498992 78.2210217908808 78.02325581395348 77.80351583958982 77.45193188060796 77.18824391137156 76.79271195751694 76.4850759934078 76.0895440395532 75.67203808826221 75.32045412928035 74.79307819080753 74.24372825489837 73.80424830617103 73.07910639077092 72.59567844717085 72.04632851126168 71.38710858817066 70.94762863944334 70.28840871635232 69.45339681377037 68.86009888298847 68.37667093938839 67.95916498809743 67.38784105475187 67.03625709577 66.4429591649881 65.89360922907892 65.34425929316976 64.94872733931514 64.42135140084233 64.04779344442409 63.498443508514924 62.993041567478485 62.64145760849661 62.11408167002381 61.63065372642373 61.27906976744186 60.597875846914484 60.26826588536898 59.740889946896175 59.433253982787036 59.08167002380517 58.57626808276872 57.91704815967771 57.47756821095037 57.08203625709577 56.70847830067753 56.181102362204726 55.60977842885919 55.19227247756821 54.5330525544772 54.071598608313494 53.67606665445889 53.280534700604285 52.88500274674968 52.15986083134957 51.43471891594946 51.34682292620399 50.86339498260392 50.46786302874931 49.89653909540377 49.32521516205823 48.77586522614906 48.20454129280351 47.72111334920344 47.4134773850943 47.127815418421534 46.64438747482146 46.182933528657756 45.69950558505768 45.34792162607581 44.86449368247574 44.4250137337484 44.073429774766524 43.699871818348285 43.414209851675515 43.040651895257284 42.71104193371177 42.51327595678447 42.27156198498443 41.9639260208753 41.83208203625709 41.67826405420253 41.54642006958433 41.37062809009339 41.17286211316609 41.019044131111514 40.79930415674785 40.601538179820544 40.447720197765975 40.315876213147774 40.096136238784105 39.8324482695477 39.722578282365866 39.590734297747666 39.39296832082036 39.21717634132943 39.107306354147596 38.95348837209302 38.84361838491119 38.71177440029299 38.51400842336568 38.47006042849295 38.29426844900202 38.16242446438381 38.03058047976561 37.89873649514741 37.78886650796557 37.59110053103827 37.327412561801864 37.15162058231093 36.997802600256364 36.712140633583594 36.492400659219925 36.316608679728986 36.052920710492586 35.83318073612892 35.61344076176525 35.48159677714705 35.30580479765611 35.19593481047427 35.0421168284197 34.9102728438015 34.82237685405603 34.69053286943783 34.58066288225599 34.49276689251053 34.33894891045596 34.22907892327412 34.141182933528654 34.009338948910454 33.877494964292254 33.701702984801315 33.459989013001284 33.306171030946714 33.108405054019414 32.91063907709211 32.712873100164806 32.55905511811024 32.36128914118294 32.03167917963743 31.81193920527376 31.614173228346456 31.394433253982786 31.24061527192822 30.976927302691813 30.86705731550998 30.735213330891778 30.58139534883721 30.471525361655374 30.383629371909905 30.273759384728073 30.22981138985534 30.163889397546235 30.07599340780077 30.032045412928035 29.9880974180553 29.9221754257462 29.8562534334371 29.746383446255265 29.658487456509796 29.504669474455227 29.394799487273392 29.219007507782457 28.999267533418788 28.801501556491484 28.69163156930965 28.515839589818714 28.427943600073245 28.31807361289141 28.208203625709576 28.16425563083684 28.12030763596411 28.076359641091376 28.05438564365501 28.03241164621864 28.03241164621864 28.076359641091376 28.09833363852774 28.12030763596411 28.142281633400476 28.142281633400476 28.142281633400476 28.12030763596411 28.09833363852774 28.05438564365501 27.944515656473172 27.856619666727706 27.68082768723677 27.527009705182202 27.285295733382164 27.02160776414576 26.95568577183666 26.88976377952756 26.80186778978209 26.80186778978209 26.779893792345725 26.779893792345725 26.757919794909355 26.757919794909355 26.757919794909355 26.757919794909355 26.73594579747299 26.73594579747299 26.713971800036624 26.713971800036624 26.713971800036624 26.73594579747299 26.713971800036624 26.713971800036624 26.713971800036624 26.713971800036624 26.713971800036624 26.713971800036624 26.713971800036624 26.691997802600255 26.713971800036624 26.713971800036624 26.713971800036624 26.691997802600255 26.713971800036624 26.691997802600255 26.691997802600255 26.691997802600255 26.691997802600255 26.691997802600255 26.691997802600255 26.691997802600255 26.691997802600255 26.691997802600255 26.691997802600255 26.691997802600255 26.691997802600255 26.691997802600255 26.691997802600255 26.691997802600255 26.691997802600255 26.691997802600255 26.67002380516389 26.67002380516389 26.67002380516389 26.67002380516389 26.691997802600255 26.67002380516389 26.67002380516389 26.67002380516389 26.67002380516389 26.67002380516389 26.67002380516389 26.67002380516389 26.67002380516389 26.67002380516389 26.67002380516389 26.67002380516389 26.67002380516389 26.67002380516389 26.648049807727524 26.67002380516389 26.67002380516389 26.67002380516389 26.67002380516389 26.67002380516389 26.67002380516389 26.67002380516389 26.67002380516389 26.648049807727524 26.648049807727524 26.67002380516389 26.648049807727524 26.67002380516389 26.67002380516389 26.67002380516389 26.648049807727524 26.648049807727524 26.67002380516389 26.67002380516389 26.67002380516389 26.67002380516389 26.67002380516389 26.67002380516389 26.67002380516389 26.67002380516389 26.67002380516389 26.648049807727524 26.648049807727524 26.67002380516389 26.67002380516389 26.648049807727524 26.648049807727524 26.67002380516389 26.67002380516389 26.648049807727524 26.67002380516389 26.648049807727524 26.648049807727524 26.67002380516389 26.67002380516389 26.67002380516389 26.648049807727524 26.648049807727524 26.648049807727524 26.648049807727524 26.648049807727524 26.67002380516389 26.67002380516389 26.648049807727524 26.648049807727524 26.648049807727524 26.648049807727524 26.648049807727524 26.648049807727524 26.648049807727524 26.648049807727524 26.648049807727524 26.648049807727524 26.648049807727524 26.648049807727524 26.648049807727524 26.648049807727524 26.648049807727524 26.648049807727524 26.648049807727524 26.67002380516389 26.648049807727524 26.648049807727524 26.648049807727524 26.648049807727524 26.67002380516389 26.648049807727524 26.648049807727524 26.648049807727524 26.648049807727524 26.648049807727524 26.648049807727524 26.648049807727524 26.648049807727524 26.67002380516389 26.648049807727524 26.648049807727524 26.648049807727524 26.648049807727524 26.648049807727524 26.648049807727524 26.648049807727524 26.648049807727524 26.648049807727524 26.648049807727524 26.648049807727524 26.648049807727524 26.648049807727524 26.648049807727524 26.648049807727524 26.648049807727524 26.67002380516389 26.67002380516389 26.67002380516389 26.648049807727524 26.67002380516389 26.67002380516389 26.67002380516389 26.67002380516389 26.67002380516389 26.67002380516389 26.67002380516389 26.67002380516389 26.67002380516389 26.648049807727524 26.67002380516389 26.67002380516389 26.713971800036624 26.73594579747299 26.757919794909355 26.779893792345725 26.80186778978209 26.82384178721846 26.82384178721846 26.845815784654825 26.845815784654825 26.845815784654825 26.867789782091194 26.911737776963925 27.02160776414576 27.131477751327594 27.307269730818533 27.592931697491302 27.96648965390954 28.40596960263688 28.889397546236953 29.306903497527927 29.790331441127996 30.14191540010987 30.735213330891778 31.262589269364586 31.833913202710125 32.185497161692 32.734847097601175 33.218275041201245 33.61380699505585 34.09723493865592 34.62461087712873 34.99816883354697 35.48159677714705 35.78923274125618 36.272660684856255 36.624244643838125 37.34938655923823 37.74491851309284 38.11847646951108 38.71177440029299 39.524812305438566 39.964292254165905 40.579564182384175 41.084966123420614 41.67826405420253 42.11774400292987 42.733015931148145 43.414209851675515 43.87566379783922 44.57883171580296 45.28199963376671 45.78740157480315 46.534517487639626 47.30360739791247 47.85295733382164 48.70994323383995 49.25929316974913 49.89653909540377 50.88536898004028 51.39077092107672 51.85222486724043 52.775132759567846 53.280534700604285 53.785936641640724 54.42318256729537 55.14832448269547 55.89544039553195 56.444790331441126 57.14795824940487 57.87310016480498 58.62021607764146 59.0596960263688 59.56509796740524 60.290239882805345 60.94945980589635 61.54275773667826 62.35579564182384 62.72935359824208 63.16883354696942 63.762131477751325 64.26753341878776 64.7729353598242 65.47610327778796 65.91558322651528 66.35506317524263 66.86046511627907 67.25599707013367 67.60758102911555 68.02508698040651 68.46456692913387 68.90404687786119 69.21168284197034 69.58524079838858 69.95879875480682 70.24446072147958 70.61801867789782 70.8377586522615 71.167368613807 71.4969785753525 71.71671854971618 72.0243545138253 72.31001648049809 72.50778245742538 72.70554843435269 72.94726240615272 73.25489837026186 73.6284563266801 74.08991027284381 74.50741622413477 74.83702618568029 75.32045412928035 75.71598608313496 76.11151803698957 76.59494598058964 77.05639992675334 77.40798388573522 77.82548983702618 78.13312580113532 78.50668375755356 78.85826771653544 79.09998168833548 79.4076176524446 79.84709760117195 80.02288958066288 80.28657754989928 80.46236952939023 80.81395348837209 80.98974546786303 81.1435634499176 81.36330342428127 81.60501739608131 81.73686138069951 82.02252334737227 82.17634132942685 82.30818531404505 82.37410730635415 82.41805530122689 82.44002929866325 82.44002929866325 82.44002929866325 82.44002929866325 82.41805530122689 82.30818531404505 82.17634132942685 82.04449734480863 81.80278337300861 81.56106940120857 81.38527742171763 81.12158945248123 80.9457974729903 80.61618751144479 80.41842153451748 80.26460355246292 80.02288958066288 79.73722761399011 79.56143563449919 79.34169566013551 79.20985167551731 79.01208569859 78.81431972166271 78.57260574986266 78.2869437831899 78.02325581395348 77.82548983702618 77.53982787035342 77.32008789598976 77.03442592931697 76.70481596777148 76.4850759934078 76.15546603186229 75.91375206006227 75.54019410364401 75.03479216260759 74.77110419337117 74.50741622413477 74.15583226515291 73.87017029848013 73.51858633949826 73.14502838308002 72.74949642922542 72.37593847280718 72.11225050357078 71.7606665445889 71.40908258560702 71.14539461637062 70.77183665995238 70.48617469327962 70.09064273942502 69.67313678813403 69.3655008240249 68.79417689067935 68.33272294451567 68.15693096502471 67.60758102911555 67.23402307269731 66.68467313678813 65.93755722395166 65.56399926753342 65.01464933162424 64.48727339315144 64.06976744186046 63.74015748031496 63.344625526460355 62.59750961362388 62.02618568027834 61.63065372642373 61.01538179820545 60.40010986998718 59.982603918696206 58.94982603918696 58.73008606482329 58.33455411096869 57.67533418787768 57.21388024171397 56.598608313495696 55.76359641091375 55.49990844167735 54.86266251602271 54.37923457242263 53.720014649331624 53.060794726240616 52.59934078007691 51.7423548800586 51.083134956967584 50.62168101080388 50.270097051822006 49.852591100531036 49.08350119025819 48.53415125434902 48.13861930049441 47.56729536714887 46.995971433803334 46.66636147225783 46.16095953122139 45.67753158762132 45.41384361838491 45.0842336568394 44.84251968503937 44.51290972349386 44.24922175425746 43.897637795275585 43.699871818348285 43.48013184398462 43.172495879875484 42.733015931148145 42.60117194652994 42.13971800036623 41.91997802600257 41.56839406702069 41.32668009522065 40.953122138802414 40.579564182384175 40.227980223402305 39.942318256729536 39.5687603003113 39.28309833363853 38.95348837209302 38.60190441311115 38.33821644387475 37.96465848745651 37.59110053103827 37.327412561801864 36.80003662332906 36.58029664896539 36.250686687419886 35.81120673869255 35.59146676432888 35.19593481047427 34.69053286943783 34.36092290789233 34.09723493865592 33.877494964292254 33.591832997619484 33.39406702069218 33.152353048892145 32.88866507965574 32.646951107855706 32.49313312580114 32.27339315143747 32.07562717451016 31.68009522065556 31.43838124885552 31.196667277055482 30.801135323200878 30.405603369346274 30.07599340780077 29.504669474455227 29.19703351034609 28.823475553927853 28.581761582127815 28.25215162058231 28.03241164621864 27.768723676982237 27.548983702618568 27.329243728254898 27.197399743636698 27.065555759018494 26.95568577183666 26.911737776963925 26.88976377952756 26.867789782091194 26.867789782091194 26.845815784654825 26.845815784654825 26.80186778978209 26.757919794909355 26.73594579747299 26.691997802600255 26.648049807727524 26.626075810291155 26.58212781541842 26.58212781541842 26.560153817982055 26.538179820545686 26.538179820545686 26.538179820545686 26.538179820545686 26.538179820545686 26.538179820545686 26.538179820545686 26.51620582310932 26.538179820545686 26.51620582310932 26.51620582310932 26.538179820545686 26.51620582310932 26.51620582310932 26.538179820545686 26.538179820545686 26.538179820545686 26.51620582310932 26.538179820545686 26.51620582310932 26.538179820545686 26.538179820545686 26.51620582310932 26.538179820545686 26.538179820545686 26.538179820545686 26.538179820545686 26.538179820545686 26.538179820545686 26.538179820545686 26.538179820545686 26.538179820545686 26.51620582310932 26.538179820545686 26.51620582310932 26.538179820545686 26.51620582310932 26.51620582310932 26.51620582310932 26.51620582310932 26.51620582310932 26.51620582310932 26.51620582310932 26.51620582310932 26.51620582310932 26.51620582310932 26.494231825672955 26.494231825672955 26.51620582310932 26.51620582310932 26.494231825672955 26.494231825672955 26.494231825672955 26.494231825672955 26.51620582310932 26.51620582310932 26.494231825672955 26.494231825672955 26.494231825672955 26.494231825672955 26.494231825672955 26.494231825672955 26.494231825672955 26.494231825672955 26.494231825672955 26.494231825672955 26.494231825672955 26.494231825672955 26.494231825672955 26.494231825672955 26.472257828236586 26.472257828236586 26.472257828236586 26.472257828236586 26.472257828236586 26.472257828236586 26.472257828236586 26.472257828236586 26.472257828236586 26.472257828236586 26.472257828236586 26.472257828236586 26.472257828236586 26.472257828236586 26.472257828236586 26.472257828236586 26.472257828236586 26.472257828236586 26.472257828236586 26.472257828236586 26.472257828236586 26.472257828236586 26.472257828236586 26.472257828236586 26.472257828236586 26.472257828236586 26.472257828236586 26.472257828236586 26.472257828236586 26.45028383080022 26.472257828236586 26.472257828236586 26.472257828236586 26.45028383080022 26.472257828236586 26.45028383080022 26.45028383080022 26.45028383080022 26.45028383080022 26.45028383080022 26.45028383080022 26.45028383080022 26.45028383080022 26.45028383080022 26.45028383080022 26.45028383080022 26.45028383080022 26.45028383080022 26.45028383080022 26.45028383080022 26.45028383080022 26.45028383080022 26.45028383080022 26.45028383080022 26.45028383080022 26.45028383080022 26.45028383080022 26.45028383080022 26.45028383080022 26.45028383080022 26.45028383080022 26.45028383080022 26.45028383080022 26.45028383080022 26.45028383080022 26.45028383080022 26.45028383080022 26.45028383080022 26.45028383080022 26.45028383080022 26.45028383080022 26.45028383080022 26.45028383080022 26.45028383080022 26.45028383080022 26.42830983336385 26.45028383080022 26.42830983336385 26.42830983336385 26.42830983336385 26.42830983336385 26.42830983336385 26.45028383080022 26.42830983336385 26.42830983336385 26.42830983336385 26.42830983336385 26.42830983336385 26.42830983336385 26.42830983336385 26.42830983336385 26.42830983336385 26.42830983336385 26.42830983336385 26.42830983336385 26.42830983336385 26.42830983336385 26.42830983336385 26.42830983336385 26.42830983336385 26.42830983336385 26.42830983336385 26.42830983336385 26.42830983336385 26.42830983336385 26.42830983336385 26.42830983336385 26.45028383080022 26.45028383080022 26.45028383080022 26.45028383080022 26.42830983336385 26.45028383080022 26.42830983336385 26.45028383080022 26.45028383080022 26.45028383080022 26.45028383080022 26.45028383080022 26.45028383080022 26.45028383080022 26.472257828236586 26.472257828236586 26.494231825672955 26.494231825672955 26.51620582310932 26.58212781541842 26.691997802600255 26.911737776963925 27.285295733382164 27.570957700054933 28.010437648782275 28.53781358725508 29.087163523164257 29.658487456509796 30.119941402673504 30.603369346273574 31.21864127449185 31.921809192455594 32.47115912836477 32.88866507965574 33.372093023255815 33.701702984801315 34.18513092840139 34.58066288225599 34.95422083867423 35.21790880791064 35.56949276689251 35.83318073612892 36.16279069767442 36.536348654092656 36.865958615638164 37.261490569492764 37.59110053103827 38.47006042849295 38.60190441311115 38.97546236952939 39.744552279802235 40.29390221571141 40.62351217725691 41.10694012085699 41.72221204907526 42.31550997985717 42.90880791063908 43.348287859366415 43.941585790148324 44.53488372093023 44.97436366965757 45.58963559787585 46.02911554660319 46.622413477385095 47.215711408167 47.63321735945797 48.27046328511261 48.88573521333089 49.369163156930966 49.940487090276505 50.35799304156748 50.95129097234938 51.91814685954954 52.31367881340414 52.75315876213148 53.302508698040654 53.632118659586155 54.11554660318623 54.68687053653177 55.28016846731368 55.87346639809559 56.26899835195019 56.884270280168465 57.45559421351401 57.89507416224135 58.51034609045962 58.94982603918696 59.56509796740524 60.180369895623514 60.61984984435085 61.45486174693279 61.87236769822377 62.31184764695111 62.86119758286028 63.256729536714886 63.828053470060425 64.5751693828969 64.9047793444424 65.45412928035158 65.95953122138803 66.33308917780627 66.68467313678813 67.21204907526095 67.73942501373375 68.22285295733383 68.59641091375207 69.12378685222487 69.4973448086431 70.24446072147958 70.57407068302508 70.9696026368797 71.51895257278886 72.04632851126168 72.44186046511629 73.12305438564366 73.47463834462553 73.95806628822561 74.33162424464385 74.74913019593481 75.25453213697125 75.75993407800769 76.30928401391687 76.7487639626442 77.12232191906244 77.51785387291704 77.82548983702618 78.2210217908808 78.63852774217176 79.09998168833548 79.36366965757188 79.80314960629921 80.15473356528108 80.55026551913569 80.98974546786303 81.25343343709943 81.67093938839041 82.06647134224502 82.30818531404505 82.65976927302691 83.01135323200879 83.31898919611793 83.49478117560886 83.71452114997254 84.04413111151804 84.15400109869987 84.3297930781908 84.37374107306354 84.3957150704999 84.3957150704999 84.37374107306354 84.37374107306354 84.28584508331807 84.15400109869987 84.02215711408166 83.84636513459074 83.67057315509979 83.49478117560886 83.25306720380883 83.09924922175426 82.87950924739059 82.63779527559055 82.46200329609962 82.22028932429959 82.04449734480863 81.71488738326315 81.51712140633583 81.31935542940855 81.03369346273576 80.70408350119027 80.37447353964475 79.95696758835379 79.82512360373559 79.45156564731734 79.05603369346274 78.79234572422632 78.37483977293536 78.0891778062626 77.67167185497162 77.23219190624428 76.92455594213514 76.30928401391687 76.00164804980773 75.65006409082585 75.14466214978941 74.68320820362571 74.24372825489837 73.562534334371 73.16700238051638 72.77147042666178 72.04632851126168 71.54092657022522 71.18934261124336 70.72788866507966 70.20051272660686 69.6951107855704 69.27760483427943 68.81615088811573 68.35469694195203 68.00311298297015 67.47573704449735 67.12415308551547 66.59677714704267 66.02545321369712 65.47610327778796 64.75096136238784 64.1137154367332 63.586339498260394 63.146859549533055 62.64145760849661 62.0481596777147 61.10327778795092 60.40010986998718 59.916681926387106 59.21351400842337 58.62021607764146 58.11481413660502 57.67533418787768 56.64255630836843 56.20307635964109 55.76359641091375 55.21424647500458 54.68687053653177 54.09357260574986 53.74198864676799 53.346456692913385 52.775132759567846 52.22578282365867 51.76432887749496 51.32484892876762 50.77549899285845 50.29207104925838 49.984435085149244 49.720747115912836 49.39113715436733 49.01757919794909 48.66599523896723 48.33638527742171 48.11664530305805 47.78703534151254 47.50137337483977 47.193737410730634 46.754257462003295 46.292803515839594 45.985167551730456 45.52371360556674 45.23805163889398 44.77659769273027 44.33711774400293 44.05145577733016 43.655923823475554 43.260391869620946 42.95275590551181 42.55722395165721 42.24958798754807 41.63431605932979 41.32668009522065 41.019044131111514 40.601538179820544 40.074162241347736 39.920344259293174 39.546786302874935 39.34902032594763 39.04138436183849 38.82164438747482 38.53598242080205 38.25032045412928 37.92071049258378 37.72294451565647 37.3713605566746 37.129646584874564 36.80003662332906 36.44845266434719 36.20673869254715 35.87712873100165 35.54751876945615 35.34975279252884 34.9761948361106 34.7125068668742 34.55868888481963 34.36092290789233 34.207104925837754 34.03131294634682 33.789598974546784 33.635780992492215 33.459989013001284 33.32814502838308 33.086431056583045 32.932613074528476 32.69089910272844 32.40523713605567 32.22944515656473 31.921809192455594 31.614173228346456 31.43838124885552 31.130745284746382 30.823109320637247 30.603369346273574 30.317707379600805 30.097967405237135 29.790331441127996 29.350851492400658 29.131111518036988 28.801501556491484 28.49386559238235 28.38399560520051 28.142281633400476 27.922541659036806 27.724775682109502 27.548983702618568 27.439113715436733 27.307269730818533 27.197399743636698 27.10950375389123 26.97765976927303 26.933711774400294 26.911737776963925 26.911737776963925 26.911737776963925 26.911737776963925 26.933711774400294 26.911737776963925 26.911737776963925 26.88976377952756 26.88976377952756 26.88976377952756 26.88976377952756 26.88976377952756 26.867789782091194 26.867789782091194 26.88976377952756 26.88976377952756 26.867789782091194 26.88976377952756 26.867789782091194 26.867789782091194 26.867789782091194 26.867789782091194 26.867789782091194 26.867789782091194 26.867789782091194 26.867789782091194 26.867789782091194 26.867789782091194 26.867789782091194 26.867789782091194 26.845815784654825 26.867789782091194 26.845815784654825 26.845815784654825 26.845815784654825 26.845815784654825 26.845815784654825 26.845815784654825 26.845815784654825 26.845815784654825 26.845815784654825 26.845815784654825 26.845815784654825 26.845815784654825 26.845815784654825 26.845815784654825 26.845815784654825 26.845815784654825 26.845815784654825 26.845815784654825 26.845815784654825 26.845815784654825 26.82384178721846 26.82384178721846 26.82384178721846 26.82384178721846 26.82384178721846 26.82384178721846 26.82384178721846 26.82384178721846 26.82384178721846 26.80186778978209 26.82384178721846 26.80186778978209 26.80186778978209 26.80186778978209 26.80186778978209 26.80186778978209 26.80186778978209 26.80186778978209 26.80186778978209 26.80186778978209 26.80186778978209 26.80186778978209 26.80186778978209 26.80186778978209 26.80186778978209 26.80186778978209 26.80186778978209 26.80186778978209 26.80186778978209 26.80186778978209 26.779893792345725 26.80186778978209 26.779893792345725 26.779893792345725 26.80186778978209 26.779893792345725 26.80186778978209 26.80186778978209 26.779893792345725 26.779893792345725 26.779893792345725 26.779893792345725 26.779893792345725 26.779893792345725 26.779893792345725 26.779893792345725 26.779893792345725 26.779893792345725 26.779893792345725 26.779893792345725 26.779893792345725 26.779893792345725 26.757919794909355 26.757919794909355 26.757919794909355 26.757919794909355 26.757919794909355 26.73594579747299 26.73594579747299 26.73594579747299 26.713971800036624 26.713971800036624 26.713971800036624 26.713971800036624 26.713971800036624 26.713971800036624 26.691997802600255 26.713971800036624 26.713971800036624 26.713971800036624 26.713971800036624 26.713971800036624 26.713971800036624 26.713971800036624 26.713971800036624 26.691997802600255 26.713971800036624 26.713971800036624 26.691997802600255 26.713971800036624 26.713971800036624 26.713971800036624 26.691997802600255 26.691997802600255 26.691997802600255 26.691997802600255 26.691997802600255 26.691997802600255 26.691997802600255 26.691997802600255 26.67002380516389 26.67002380516389 26.67002380516389 26.67002380516389 26.67002380516389 26.648049807727524 26.648049807727524 26.648049807727524 26.648049807727524 26.648049807727524 26.648049807727524 26.648049807727524 26.626075810291155 26.626075810291155 26.626075810291155 26.626075810291155 26.626075810291155 26.626075810291155 26.60410181285479 26.60410181285479 26.60410181285479 26.60410181285479 26.60410181285479 26.60410181285479 26.60410181285479 26.60410181285479 26.60410181285479 26.60410181285479 26.60410181285479 26.60410181285479 26.60410181285479 26.60410181285479 26.60410181285479 26.60410181285479 26.60410181285479 26.60410181285479 26.626075810291155 26.626075810291155 26.648049807727524 26.691997802600255 26.779893792345725 26.933711774400294 27.219373741073063 27.483061710309467 27.856619666727706 28.31807361289141 28.669657571873284 29.350851492400658 29.8562534334371 30.251785387291704 30.669291338582678 31.08679728987365 31.68009522065556 32.47115912836477 32.82274308734664 33.372093023255815 33.723676982237684 34.25105292071049 34.75645486174693 35.08606482329244 35.54751876945615 36.00897271561985 36.338582677165356 36.80003662332906 37.129646584874564 37.81084050540194 38.18439846182018 38.53598242080205 39.06335835927486 39.6346822926204 40.096136238784105 40.601538179820544 41.28273210034792 41.87603003112983 42.293535982420806 42.68906793627541 43.370261856802784 43.96355978758469 44.9523896722212 45.76542757736678 46.33675151071232 47.215711408167 48.07269730818531 48.77586522614906 49.588903131294636 50.248123054385644 51.10510895440396 52.02801684673137 52.66526277238601 53.500274674967955 54.6648965390954 55.01648049807727 55.87346639809559 56.488738326313864 57.36769822376854 58.22468412378685 59.16956601355063 60.004577916132575 60.94945980589635 61.19117377769639 62.11408167002381 63.322651529023986 63.652261490569494 64.7729353598242 65.36623329060612 66.2451931880608 67.05823109320637 67.62955502655191 68.42061893426111 69.1018128547885 69.60721479582494 70.26643471891595 70.70591466764328 71.27723860098882 71.80461453946164 72.20014649331624 72.63962644204358 72.9692364035891 73.32082036257097 73.93609229078925 74.35359824208021 74.70518220106207 75.23255813953489 75.43032411646219 75.8258560703168 76.28731001648049 76.63889397546237 77.03442592931697 77.25416590368064 77.67167185497162 78.04522981138985 78.30891778062626 78.6824757370445 79.01208569859 79.34169566013551 79.78117560886285 80.08881157297199 80.68210950375389 80.87987548068119 81.25343343709943 81.69291338582677 81.95660135506317 82.39608130379051 82.65976927302691 82.83556125251786 83.01135323200879 83.14319721662699 83.31898919611793 83.45083318073613 83.67057315509979 83.91228712689984 84.21992309100898 84.46163706280902 84.92309100897272 85.05493499359092 85.56033693462736 85.82402490386376 86.04376487822742 86.35140084233657 86.70298480131844 86.9227247756821 87.27430873466398 87.45010071415491 87.66984068851858 87.82365867057317 87.99945065006409 88.19721662699139 88.4609045962278 88.592748580846 88.76854056033693 88.90038454495513 89.0542025270097 89.16407251419155 89.29591649880975 89.42776048342795 89.51565647317341 89.58157846548252 89.64750045779161 89.69144845266435 89.69144845266435 89.69144845266435 89.69144845266435 89.69144845266435 89.66947445522798 89.64750045779161 89.55960446804615 89.42776048342795 89.29591649880975 89.16407251419155 89.0542025270097 88.8564365500824 88.61472257828237 88.32906061160959 88.08734663980957 87.88958066288225 87.62589269364585 87.40615271928218 87.09851675517305 86.81285478850029 86.59311481413661 86.30745284746384 86.02179088079106 85.82402490386376 85.6042849295001 85.23072697308186 85.09888298846366 84.90111701153634 84.74729902948178 84.50558505768174 84.28584508331807 84.08807910639078 83.75846914484526 83.40688518586339 83.18714521149973 82.92345724226331 82.52792528840871 82.08844533968139 81.75883537813587 81.49514740889947 81.09961545504487 80.77000549349935 80.50631752426295 80.13275956784472 79.84709760117195 79.45156564731734 79.05603369346274 78.79234572422632 78.44076176524446 78.13312580113532 77.86943783189892 77.60574986266252 77.38600988829884 77.12232191906244 76.79271195751694 76.5509979857169 76.33125801135323 76.13349203442593 75.957700054935 75.75993407800769 75.49624610877129 75.21058414209853 74.92492217542575 74.72715619849845 74.41952023438931 73.95806628822561 73.84819630104377 73.4966123420619 73.25489837026186 72.92528840871636 72.57370444973449 72.31001648049809 71.80461453946164 71.3651345907343 71.18934261124336 70.77183665995238 70.46420069584326 69.8928767624977 69.431422816334 69.12378685222487 68.77220289324299 68.53048892144295 68.15693096502471 67.95916498809743 67.60758102911555 67.14612708295184 66.9044131111518 66.66269913935176 66.3111151803699 66.06940120856986 65.62992125984252 65.41018128547884 65.14649331624244 64.79490935726056 64.42135140084233 64.13568943416956 63.586339498260394 63.256729536714886 62.86119758286028 62.57553561618751 62.26789965207837 61.87236769822377 61.47683574436916 61.03735579564182 60.597875846914484 60.224317890496245 59.872733931514375 59.4552279802234 59.1256180186779 58.73008606482329 58.33455411096869 58.00494414942318 57.54349020325947 57.235854239150335 56.796374290423 56.378868339132026 56.09320637245926 55.65372642373192 55.17029848013185 54.81871452114997 54.29133858267717 53.698040651895255 53.104742721113354 52.64328877494964 52.24775682109504 51.6105108954404 50.79747299029482 50.379967039003844 49.786669108221936 49.3471891594946 48.75389122871269 48.29243728254899 47.65519135689434 46.973997436366965 46.33675151071232 45.87529756454862 45.17212964658488 44.6887017029848 44.05145577733016 43.392235854239146 42.95275590551181 42.40340596960264 42.0298480131844 41.37062809009339 41.04101812854789 40.77733015931148 40.118110236220474 39.678630287493135 39.546786302874935 39.15125434902033 38.75572239516572 38.29426844900202 37.85478850027467 37.48123054385644 37.063724592565464 36.624244643838125 36.338582677165356 35.94305072331075 35.70133675151071 35.37172678996521 34.93224684123787 34.60263687969236 34.207104925837754 33.767624977110415 33.416041018128546 32.97656106940121 32.5151071232375 32.16352316425563 31.614173228346456 31.28456326680095 30.932979307819082 30.713239333455412 30.493499359091743 30.251785387291704 30.032045412928035 29.834279436000735 29.61453946163706 29.460721479582496 29.284929500091557 29.087163523164257 28.999267533418788 28.84544955136422 28.735579564182384 28.515839589818714 28.25215162058231 28.05438564365501 27.592931697491302 27.17542574620033 26.80186778978209 26.648049807727524 26.560153817982055 26.45028383080022 26.318439846182017 26.252517853872916 26.208569859000182 26.186595861563816 26.186595861563816 26.186595861563816 26.186595861563816 26.164621864127447 26.164621864127447 26.164621864127447 26.164621864127447 26.14264786669108 26.14264786669108 26.120673869254716 26.120673869254716 26.120673869254716 26.098699871818347 26.098699871818347 26.098699871818347 26.098699871818347 26.098699871818347 26.07672587438198 26.054751876945616 26.032777879509247 26.01080388207288 25.966855887200147 25.922907892327412 25.900933894891047 25.878959897454678 25.856985900018312 25.856985900018312 25.835011902581943 25.835011902581943 25.813037905145578 25.813037905145578 25.813037905145578 25.835011902581943 25.813037905145578 25.813037905145578 25.813037905145578 25.813037905145578 25.813037905145578 25.813037905145578 25.813037905145578 25.813037905145578 25.813037905145578 25.791063907709212 25.813037905145578 25.813037905145578 25.813037905145578 25.813037905145578 25.813037905145578 25.813037905145578 25.813037905145578 25.813037905145578 25.813037905145578 25.813037905145578 25.813037905145578 25.791063907709212 25.791063907709212 25.791063907709212 25.791063907709212 25.791063907709212 25.791063907709212 25.791063907709212 25.791063907709212 25.791063907709212 25.791063907709212 25.791063907709212 25.791063907709212 25.791063907709212 25.791063907709212 25.769089910272843 25.791063907709212 25.791063907709212 25.791063907709212 25.791063907709212 25.791063907709212 25.791063907709212 25.791063907709212 25.791063907709212 25.791063907709212 25.769089910272843 25.769089910272843 25.791063907709212 25.791063907709212 25.769089910272843 25.791063907709212 25.791063907709212 25.791063907709212 25.791063907709212 25.791063907709212 25.769089910272843 25.769089910272843 25.791063907709212 25.791063907709212 25.769089910272843 25.769089910272843 25.769089910272843 25.769089910272843 25.769089910272843 25.747115912836477 25.747115912836477 25.747115912836477 25.72514191540011 25.703167917963743 25.681193920527377 25.681193920527377 25.65921992309101 25.65921992309101 25.65921992309101 25.65921992309101 25.65921992309101 25.65921992309101 25.637245925654643 25.637245925654643 25.637245925654643 25.65921992309101 25.637245925654643 25.637245925654643 25.637245925654643 25.637245925654643 25.637245925654643 25.637245925654643 25.637245925654643 25.637245925654643 25.637245925654643 25.637245925654643 25.637245925654643 25.637245925654643 25.637245925654643 25.637245925654643 25.637245925654643 25.637245925654643 25.637245925654643 25.637245925654643 25.637245925654643 25.637245925654643 25.637245925654643 25.637245925654643 25.637245925654643 25.637245925654643 25.637245925654643 25.637245925654643 25.637245925654643 25.637245925654643 25.637245925654643 25.637245925654643 25.637245925654643 25.637245925654643 25.637245925654643 25.637245925654643 25.637245925654643 25.637245925654643 25.637245925654643 25.637245925654643 25.637245925654643 25.637245925654643 25.637245925654643 25.637245925654643 25.637245925654643 25.637245925654643 25.637245925654643 25.637245925654643 25.637245925654643 25.637245925654643 25.637245925654643 25.637245925654643 25.637245925654643 25.637245925654643 25.637245925654643 25.637245925654643 25.637245925654643 25.637245925654643 25.637245925654643 25.637245925654643 25.637245925654643 25.637245925654643 25.615271928218274 25.637245925654643 25.637245925654643 25.637245925654643 25.637245925654643 25.637245925654643 25.637245925654643 25.637245925654643 25.637245925654643 25.637245925654643 25.637245925654643 25.615271928218274 25.637245925654643 25.637245925654643 25.637245925654643 25.637245925654643 25.615271928218274 25.637245925654643 25.615271928218274 25.615271928218274 25.615271928218274 25.615271928218274 25.615271928218274 25.615271928218274 25.615271928218274 25.637245925654643 25.615271928218274 25.615271928218274 25.637245925654643 25.615271928218274 25.615271928218274 25.637245925654643 25.615271928218274 25.637245925654643 25.615271928218274 25.615271928218274 25.615271928218274 25.615271928218274 25.615271928218274 25.615271928218274 25.615271928218274 25.615271928218274 25.615271928218274 25.615271928218274 25.615271928218274 25.615271928218274 25.615271928218274 25.615271928218274 25.615271928218274 25.615271928218274 25.615271928218274 25.615271928218274 25.615271928218274 25.615271928218274 25.615271928218274 25.615271928218274 25.615271928218274 25.593297930781908 25.593297930781908 25.593297930781908 25.615271928218274 25.615271928218274 25.615271928218274 25.593297930781908 25.615271928218274 25.615271928218274 25.615271928218274 25.615271928218274 25.615271928218274 25.615271928218274 25.615271928218274 25.615271928218274 25.615271928218274 25.615271928218274 25.615271928218274 25.615271928218274 25.615271928218274 25.615271928218274 25.615271928218274 25.615271928218274 25.615271928218274 25.615271928218274 25.593297930781908 25.615271928218274 25.615271928218274 25.615271928218274 25.615271928218274 25.615271928218274 25.615271928218274 25.593297930781908 25.593297930781908 25.593297930781908 25.615271928218274 25.615271928218274 25.615271928218274 25.593297930781908 25.593297930781908 25.593297930781908 25.593297930781908 25.593297930781908 25.593297930781908 25.593297930781908 25.593297930781908 25.593297930781908 25.593297930781908 25.593297930781908 25.593297930781908 25.593297930781908 25.593297930781908 25.593297930781908 25.593297930781908 25.593297930781908 25.593297930781908 25.593297930781908 25.593297930781908 25.593297930781908 25.593297930781908 25.593297930781908 25.593297930781908 25.593297930781908 25.593297930781908 25.593297930781908 25.571323933345543 25.593297930781908 25.593297930781908 25.593297930781908 25.593297930781908 25.593297930781908 25.571323933345543 25.593297930781908 25.593297930781908 25.593297930781908 25.571323933345543 25.593297930781908 25.593297930781908 25.571323933345543 25.593297930781908 25.593297930781908 25.593297930781908 25.593297930781908 25.593297930781908 25.593297930781908 25.593297930781908 25.571323933345543 25.593297930781908 25.571323933345543 25.571323933345543 25.571323933345543 25.571323933345543 25.571323933345543 25.571323933345543 25.571323933345543 25.571323933345543 25.571323933345543 25.571323933345543 25.571323933345543 25.571323933345543 25.571323933345543 25.571323933345543 25.571323933345543 25.571323933345543 25.571323933345543 25.571323933345543 25.571323933345543 25.571323933345543 25.571323933345543 25.571323933345543 25.571323933345543 25.571323933345543 25.571323933345543 25.571323933345543 25.571323933345543 25.571323933345543 25.571323933345543 25.571323933345543 25.571323933345543 25.571323933345543 25.571323933345543 25.571323933345543 25.571323933345543 25.571323933345543 25.571323933345543 25.571323933345543 25.571323933345543 25.571323933345543 25.571323933345543 25.549349935909174 25.571323933345543 25.571323933345543 25.571323933345543 25.571323933345543 25.571323933345543 25.571323933345543 25.571323933345543 25.571323933345543 25.571323933345543 25.571323933345543 25.571323933345543 25.571323933345543 25.571323933345543 25.571323933345543 25.571323933345543 25.571323933345543 25.571323933345543 25.571323933345543 25.571323933345543 25.571323933345543 25.571323933345543 25.571323933345543 25.571323933345543 25.549349935909174 25.571323933345543 25.571323933345543 25.571323933345543 25.571323933345543 25.571323933345543 25.571323933345543 25.571323933345543 25.571323933345543 25.571323933345543 25.571323933345543 25.571323933345543 25.571323933345543 25.571323933345543 25.571323933345543 25.571323933345543 25.571323933345543 25.571323933345543 25.571323933345543 25.571323933345543 25.571323933345543 25.571323933345543 25.571323933345543 25.571323933345543 25.571323933345543 25.571323933345543 25.571323933345543 25.571323933345543 25.571323933345543 25.571323933345543 25.571323933345543 25.571323933345543 25.571323933345543 25.571323933345543 25.571323933345543 25.571323933345543 25.571323933345543 25.571323933345543 25.571323933345543 25.571323933345543 25.571323933345543 25.571323933345543 25.571323933345543 25.571323933345543 25.571323933345543 25.571323933345543 25.571323933345543 25.571323933345543 25.571323933345543 25.571323933345543 25.571323933345543 25.571323933345543 25.571323933345543 25.571323933345543 25.571323933345543 25.571323933345543 25.571323933345543 25.571323933345543 25.571323933345543 25.571323933345543 25.571323933345543 25.571323933345543 25.571323933345543 25.571323933345543 25.571323933345543 25.571323933345543 25.571323933345543 25.571323933345543 25.571323933345543 25.571323933345543 25.571323933345543 25.571323933345543 25.571323933345543 25.549349935909174 25.549349935909174 25.527375938472808 25.527375938472808 25.50540194103644 25.50540194103644 25.483427943600073 25.483427943600073 25.461453946163708 25.461453946163708 25.461453946163708 25.461453946163708 25.461453946163708 25.461453946163708 25.483427943600073 25.461453946163708 25.461453946163708 25.461453946163708 25.461453946163708 25.461453946163708 25.461453946163708 25.461453946163708 25.461453946163708 25.483427943600073 25.461453946163708 25.461453946163708 25.461453946163708 25.461453946163708 25.461453946163708 25.461453946163708 25.461453946163708 25.461453946163708 25.461453946163708 25.461453946163708 25.461453946163708 25.461453946163708 25.461453946163708 25.461453946163708 25.461453946163708 25.461453946163708 25.461453946163708 25.461453946163708 25.461453946163708 25.461453946163708 25.461453946163708 25.461453946163708 25.461453946163708 25.461453946163708 25.461453946163708 25.461453946163708 25.461453946163708 25.461453946163708 25.461453946163708 25.461453946163708 25.461453946163708 25.461453946163708 25.461453946163708 25.461453946163708 25.461453946163708 25.461453946163708 25.461453946163708 25.461453946163708 25.461453946163708 25.461453946163708 25.461453946163708 25.461453946163708 25.461453946163708 25.461453946163708 25.461453946163708 25.461453946163708 25.461453946163708 25.461453946163708 25.461453946163708 25.461453946163708 25.43947994872734 25.461453946163708 25.461453946163708 25.461453946163708 25.461453946163708 25.461453946163708 25.43947994872734 25.43947994872734 25.461453946163708 25.461453946163708 25.461453946163708 25.461453946163708 25.461453946163708 25.461453946163708 25.461453946163708 25.461453946163708 25.461453946163708 25.461453946163708 25.461453946163708 25.461453946163708 25.461453946163708 25.43947994872734 25.43947994872734 25.461453946163708 25.461453946163708 25.461453946163708 25.43947994872734 25.43947994872734 25.43947994872734 25.461453946163708 25.461453946163708 25.461453946163708 25.461453946163708 25.461453946163708 25.461453946163708 25.43947994872734 25.461453946163708 25.461453946163708 25.461453946163708 25.461453946163708 25.461453946163708 25.461453946163708 25.461453946163708 25.461453946163708 25.461453946163708 25.43947994872734 25.43947994872734 25.43947994872734 25.43947994872734 25.43947994872734 25.43947994872734 25.43947994872734 25.461453946163708 25.43947994872734 25.461453946163708 25.461453946163708 25.461453946163708 25.461453946163708 25.43947994872734 25.461453946163708 25.461453946163708 25.461453946163708 25.461453946163708 25.43947994872734 25.461453946163708 25.43947994872734 25.43947994872734 25.461453946163708 25.43947994872734 25.461453946163708 25.43947994872734 25.461453946163708 25.461453946163708 25.43947994872734 25.461453946163708 25.43947994872734 25.461453946163708 25.461453946163708 25.43947994872734 25.461453946163708 25.43947994872734 25.43947994872734 25.461453946163708 25.43947994872734 25.43947994872734 25.43947994872734 25.461453946163708 25.461453946163708 25.43947994872734 25.43947994872734 25.43947994872734 25.43947994872734 25.43947994872734 25.43947994872734 25.43947994872734 25.43947994872734 25.461453946163708 25.43947994872734 25.43947994872734 25.461453946163708 25.461453946163708 25.43947994872734 25.43947994872734 25.43947994872734 25.43947994872734 25.43947994872734 25.43947994872734 25.43947994872734 25.43947994872734 25.43947994872734 25.461453946163708 25.43947994872734 25.43947994872734 25.43947994872734 25.43947994872734 25.43947994872734 25.461453946163708 25.43947994872734 25.43947994872734 25.43947994872734 25.43947994872734 25.43947994872734 25.43947994872734 25.43947994872734 25.43947994872734 25.43947994872734 25.43947994872734 25.43947994872734 