25.0 25.0 25.0 25.0 25.0 25.0 25.0 25.0 25.0 25.0 25.0 25.0 25.0 25.0 25.0 25.0 25.0 25.0 25.0 25.0 25.0 25.0 25.0 25.0 25.0 25.0 25.0 25.0 25.0 25.0 25.0 25.0 25.0 25.0 24.978026002563634 25.0 25.0 25.0 25.0 24.978026002563634 25.0 24.978026002563634 25.0 25.0 24.978026002563634 24.978026002563634 24.978026002563634 25.0 24.978026002563634 24.978026002563634 25.0 25.0 25.0 24.978026002563634 24.978026002563634 24.978026002563634 24.978026002563634 25.0 24.978026002563634 24.978026002563634 25.0 24.978026002563634 25.0 25.0 25.0 25.0 25.0 25.0 25.0 24.978026002563634 25.0 25.0 25.0 25.0 24.978026002563634 25.0 24.978026002563634 24.978026002563634 24.978026002563634 24.978026002563634 24.978026002563634 24.978026002563634 25.0 24.978026002563634 24.978026002563634 24.978026002563634 24.978026002563634 24.978026002563634 24.978026002563634 25.0 25.0 24.978026002563634 24.978026002563634 25.0 24.978026002563634 24.978026002563634 24.978026002563634 25.0 25.0 24.978026002563634 25.0 25.0 24.978026002563634 25.0 25.0 25.0 25.0 25.0 25.0 24.978026002563634 25.0 24.978026002563634 24.978026002563634 25.0 24.978026002563634 25.0 24.978026002563634 25.0 24.978026002563634 24.978026002563634 24.978026002563634 25.0 24.978026002563634 24.978026002563634 24.978026002563634 24.978026002563634 25.0 25.0 24.978026002563634 24.978026002563634 24.978026002563634 25.0 25.0 25.0 24.978026002563634 24.978026002563634 24.978026002563634 25.0 24.978026002563634 24.978026002563634 25.0 24.978026002563634 24.978026002563634 24.978026002563634 25.0 24.978026002563634 24.978026002563634 25.0 25.0 25.0 25.0 25.0 24.978026002563634 24.978026002563634 24.978026002563634 24.978026002563634 25.0 24.978026002563634 24.978026002563634 24.978026002563634 24.978026002563634 24.978026002563634 24.978026002563634 24.978026002563634 24.978026002563634 24.978026002563634 24.978026002563634 25.0 24.978026002563634 24.978026002563634 24.978026002563634 25.0 24.978026002563634 24.978026002563634 24.978026002563634 24.978026002563634 24.978026002563634 24.978026002563634 24.978026002563634 24.978026002563634 24.978026002563634 24.978026002563634 24.978026002563634 24.978026002563634 24.978026002563634 24.978026002563634 24.978026002563634 24.978026002563634 24.978026002563634 24.978026002563634 24.978026002563634 24.978026002563634 24.978026002563634 24.978026002563634 24.978026002563634 24.978026002563634 24.978026002563634 24.978026002563634 24.978026002563634 24.978026002563634 24.978026002563634 24.978026002563634 24.978026002563634 24.978026002563634 24.978026002563634 24.978026002563634 24.978026002563634 24.978026002563634 24.978026002563634 24.978026002563634 24.978026002563634 24.978026002563634 24.978026002563634 24.978026002563634 24.978026002563634 24.978026002563634 24.978026002563634 24.978026002563634 24.978026002563634 24.978026002563634 24.978026002563634 24.978026002563634 24.978026002563634 24.978026002563634 24.978026002563634 24.978026002563634 24.978026002563634 24.978026002563634 24.956052005127265 24.978026002563634 24.978026002563634 24.978026002563634 24.978026002563634 24.978026002563634 24.978026002563634 24.978026002563634 24.978026002563634 24.978026002563634 24.956052005127265 24.978026002563634 24.978026002563634 24.978026002563634 24.978026002563634 24.978026002563634 24.978026002563634 24.978026002563634 24.978026002563634 24.978026002563634 24.978026002563634 24.978026002563634 24.978026002563634 24.978026002563634 24.978026002563634 24.978026002563634 24.978026002563634 24.978026002563634 24.978026002563634 24.978026002563634 24.978026002563634 24.978026002563634 24.978026002563634 24.978026002563634 24.978026002563634 24.978026002563634 24.978026002563634 24.956052005127265 24.978026002563634 24.978026002563634 24.978026002563634 24.956052005127265 24.978026002563634 24.978026002563634 24.978026002563634 24.978026002563634 24.978026002563634 24.978026002563634 24.978026002563634 24.978026002563634 24.978026002563634 24.978026002563634 24.978026002563634 24.978026002563634 24.978026002563634 24.978026002563634 24.978026002563634 24.978026002563634 24.978026002563634 24.978026002563634 24.978026002563634 24.978026002563634 24.978026002563634 24.978026002563634 24.978026002563634 24.978026002563634 24.978026002563634 24.978026002563634 24.978026002563634 24.978026002563634 24.978026002563634 24.978026002563634 24.978026002563634 24.978026002563634 24.978026002563634 24.978026002563634 24.978026002563634 24.978026002563634 24.978026002563634 24.978026002563634 24.978026002563634 24.978026002563634 24.978026002563634 24.978026002563634 24.978026002563634 24.978026002563634 24.978026002563634 24.978026002563634 24.978026002563634 24.978026002563634 24.978026002563634 24.978026002563634 24.978026002563634 24.978026002563634 24.978026002563634 24.978026002563634 24.978026002563634 24.978026002563634 24.978026002563634 24.978026002563634 24.978026002563634 24.978026002563634 24.978026002563634 24.978026002563634 24.978026002563634 24.978026002563634 24.978026002563634 24.978026002563634 24.978026002563634 24.978026002563634 24.978026002563634 24.978026002563634 24.978026002563634 24.978026002563634 24.978026002563634 24.978026002563634 24.978026002563634 24.978026002563634 24.978026002563634 24.978026002563634 24.978026002563634 24.978026002563634 24.978026002563634 24.978026002563634 24.978026002563634 24.978026002563634 24.978026002563634 24.978026002563634 24.978026002563634 24.978026002563634 24.978026002563634 24.978026002563634 24.978026002563634 24.978026002563634 24.978026002563634 24.978026002563634 24.978026002563634 24.978026002563634 24.978026002563634 24.978026002563634 24.978026002563634 24.978026002563634 24.978026002563634 24.978026002563634 24.978026002563634 24.978026002563634 24.978026002563634 24.978026002563634 24.978026002563634 24.978026002563634 24.978026002563634 24.978026002563634 24.978026002563634 24.978026002563634 24.978026002563634 24.956052005127265 24.978026002563634 24.978026002563634 24.978026002563634 24.978026002563634 24.978026002563634 24.978026002563634 24.978026002563634 24.978026002563634 24.978026002563634 24.978026002563634 24.978026002563634 24.978026002563634 24.978026002563634 24.978026002563634 24.978026002563634 24.978026002563634 24.956052005127265 24.978026002563634 24.978026002563634 24.956052005127265 24.956052005127265 24.956052005127265 24.956052005127265 24.956052005127265 24.956052005127265 24.956052005127265 24.978026002563634 24.956052005127265 24.956052005127265 24.978026002563634 24.956052005127265 24.978026002563634 24.956052005127265 24.978026002563634 24.956052005127265 24.978026002563634 24.978026002563634 24.956052005127265 24.978026002563634 24.956052005127265 24.956052005127265 24.978026002563634 24.956052005127265 24.978026002563634 24.978026002563634 24.956052005127265 24.978026002563634 24.978026002563634 24.956052005127265 24.978026002563634 24.956052005127265 24.956052005127265 24.978026002563634 24.956052005127265 24.978026002563634 24.978026002563634 24.978026002563634 24.978026002563634 24.978026002563634 24.956052005127265 24.956052005127265 24.978026002563634 24.956052005127265 24.956052005127265 24.978026002563634 24.956052005127265 24.956052005127265 24.978026002563634 24.956052005127265 24.978026002563634 24.956052005127265 24.956052005127265 24.956052005127265 24.956052005127265 24.956052005127265 24.956052005127265 24.978026002563634 24.956052005127265 24.956052005127265 24.956052005127265 24.956052005127265 24.956052005127265 24.956052005127265 24.956052005127265 24.956052005127265 24.956052005127265 24.956052005127265 24.956052005127265 24.956052005127265 24.956052005127265 24.956052005127265 24.956052005127265 24.956052005127265 24.956052005127265 24.956052005127265 24.956052005127265 24.956052005127265 24.956052005127265 24.978026002563634 24.956052005127265 24.956052005127265 24.956052005127265 24.956052005127265 24.956052005127265 24.978026002563634 24.956052005127265 24.978026002563634 24.956052005127265 24.956052005127265 24.956052005127265 24.978026002563634 24.978026002563634 24.956052005127265 24.978026002563634 24.956052005127265 24.956052005127265 24.956052005127265 24.978026002563634 24.956052005127265 24.978026002563634 24.956052005127265 24.956052005127265 24.956052005127265 24.978026002563634 24.956052005127265 24.956052005127265 24.956052005127265 24.956052005127265 24.956052005127265 24.956052005127265 24.956052005127265 24.956052005127265 24.956052005127265 24.956052005127265 24.978026002563634 24.978026002563634 24.978026002563634 24.956052005127265 24.956052005127265 24.956052005127265 24.956052005127265 24.956052005127265 24.956052005127265 24.956052005127265 24.956052005127265 24.956052005127265 24.978026002563634 24.956052005127265 24.956052005127265 24.956052005127265 24.956052005127265 24.978026002563634 24.956052005127265 24.978026002563634 24.956052005127265 24.978026002563634 24.978026002563634 24.978026002563634 24.956052005127265 24.956052005127265 24.978026002563634 24.956052005127265 24.956052005127265 24.956052005127265 24.956052005127265 24.978026002563634 24.978026002563634 24.956052005127265 24.956052005127265 24.956052005127265 24.956052005127265 24.956052005127265 24.956052005127265 24.956052005127265 24.956052005127265 24.956052005127265 24.956052005127265 24.956052005127265 24.956052005127265 24.956052005127265 24.956052005127265 24.956052005127265 24.956052005127265 24.956052005127265 24.956052005127265 24.9340780076909 24.9340780076909 24.956052005127265 24.956052005127265 24.956052005127265 24.956052005127265 24.9340780076909 24.956052005127265 24.956052005127265 24.956052005127265 24.956052005127265 24.956052005127265 24.956052005127265 24.956052005127265 24.956052005127265 24.956052005127265 24.956052005127265 24.956052005127265 24.956052005127265 24.956052005127265 24.956052005127265 24.956052005127265 24.956052005127265 24.956052005127265 24.956052005127265 24.956052005127265 24.956052005127265 24.956052005127265 24.956052005127265 24.956052005127265 24.956052005127265 24.956052005127265 24.956052005127265 24.956052005127265 24.956052005127265 24.956052005127265 24.956052005127265 24.956052005127265 24.956052005127265 24.956052005127265 24.956052005127265 24.956052005127265 24.956052005127265 24.956052005127265 24.956052005127265 24.956052005127265 24.956052005127265 24.956052005127265 24.956052005127265 24.956052005127265 24.9340780076909 24.9340780076909 24.956052005127265 24.956052005127265 24.956052005127265 24.956052005127265 24.9340780076909 24.956052005127265 24.956052005127265 24.9340780076909 24.9340780076909 24.9340780076909 24.956052005127265 24.956052005127265 24.956052005127265 24.956052005127265 24.956052005127265 24.956052005127265 24.956052005127265 24.956052005127265 24.956052005127265 24.956052005127265 24.978026002563634 24.978026002563634 24.978026002563634 24.978026002563634 25.0 25.0 25.0 25.0 25.0 25.0 25.021973997436366 25.021973997436366 25.021973997436366 25.043947994872735 25.043947994872735 25.0659219923091 25.0659219923091 25.08789598974547 25.08789598974547 25.109869987181835 25.1318439846182 25.1318439846182 25.15381798205457 25.197765976927304 25.21973997436367 25.21973997436367 25.21973997436367 25.21973997436367 25.197765976927304 25.197765976927304 25.197765976927304 25.175791979490935 25.175791979490935 25.15381798205457 25.15381798205457 25.15381798205457 25.175791979490935 25.175791979490935 25.197765976927304 25.21973997436367 25.241713971800035 25.263687969236404 25.28566196667277 25.30763596410914 25.30763596410914 25.35158395898187 25.37355795641824 25.395531953854604 25.43947994872734 25.50540194103644 25.637245925654643 25.769089910272843 25.878959897454678 25.988829884636512 26.164621864127447 26.252517853872916 26.406335835927486 25.966855887200147 25.43947994872734 25.08789598974547 25.241713971800035 25.417505951290973 25.65921992309101 25.988829884636512 26.51620582310932 26.933711774400294 27.592931697491302 28.362021607764145 29.109137520600623 29.966123420618935 30.86705731550998 31.482329243728255 31.767991210401025 32.2514191540011 32.734847097601175 33.020509064273945 33.569859000183115 33.943416956601354 34.44881889763779 35.21790880791064 35.48159677714705 35.94305072331075 36.44845266434719 36.712140633583594 36.953854605383626 37.21754257462003 37.635048525911 38.07452847463834 38.42611243362022 39.48086431056583 39.964292254165905 40.953122138802414 41.43655008240249 41.98590001831167 42.996703900384546 43.87566379783922 44.57883171580296 45.39186962094854 45.919245559421356 46.622413477385095 47.325581395348834 48.27046328511261 48.73191723127633 49.32521516205823 50.116279069767444 50.99523896722212 51.25892693645852 51.72038088262223 52.18183482878594 52.62131477751328 53.14869071598608 53.720014649331624 54.071598608313494 54.335286577549894 54.90661051089544 55.69767441860465 56.13715436733199 56.51071232375023 56.9282182750412 57.41164621864127 57.85112616736861 58.53232008789599 59.10364402124153 59.521149972532506 59.916681926387106 60.26826588536898 60.83958981871452 61.38893975462369 61.82841970335103 62.37776963926021 62.86119758286028 63.278703534151255 63.784105475187694 64.20161142647866 64.72898736495148 65.62992125984252 65.80571323933346 66.35506317524263 66.68467313678813 67.21204907526095 67.69547701886101 68.31074894707929 68.94799487273393 69.65116279069767 70.11261673686138 70.70591466764328 71.07947262406154 71.73869254715254 72.09027650613442 72.37593847280718 72.88134041384362 73.2329243728255 73.71635231642557 74.44149423182567 74.83702618568029 75.43032411646219 75.957700054935 76.13349203442593 76.63889397546237 77.16626991393517 77.64969785753524 78.1550997985717 78.63852774217176 78.96813770371728 79.49551364219008 79.84709760117195 80.39644753708112 80.74803149606299 81.25343343709943 81.69291338582677 82.00054934993591 82.37410730635415 82.85753524995422 82.98937923457243 83.31898919611793 83.53872917048159 83.89031312946346 84.21992309100898 84.59348104742722 84.72532503204542 84.92309100897272 84.96703900384546 85.07690899102728 85.2087529756455 85.25270097051822 85.36257095770006 85.4065189525728 85.45046694744553 85.4724409448819 85.4724409448819 85.4724409448819 85.4724409448819 85.4724409448819 85.4724409448819 85.4724409448819 85.45046694744553 85.36257095770006 85.18677897820913 85.07690899102728 84.85716901666362 84.72532503204542 84.46163706280902 84.3297930781908 84.21992309100898 84.11005310382714 84.0661051089544 84.04413111151804 83.97820911920894 83.95623512177258 83.9342611243362 83.9342611243362 83.91228712689984 83.91228712689984 83.91228712689984 83.91228712689984 83.91228712689984 83.91228712689984 83.91228712689984 83.91228712689984 83.91228712689984 83.91228712689984 83.91228712689984 83.89031312946346 83.82439113715438 83.802417139718 83.7364951474089 83.7364951474089 83.7364951474089 83.7364951474089 83.7364951474089 83.7364951474089 83.7364951474089 83.7364951474089 83.7364951474089 83.7364951474089 83.7364951474089 83.7364951474089 83.75846914484526 83.7364951474089 83.7364951474089 83.7364951474089 83.75846914484526 83.75846914484526 83.7364951474089 83.75846914484526 83.75846914484526 83.7364951474089 83.7364951474089 83.7364951474089 83.7364951474089 83.7364951474089 83.7364951474089 83.7364951474089 83.7364951474089 83.69254715253618 83.69254715253618 83.69254715253618 83.69254715253618 83.69254715253618 83.69254715253618 83.69254715253618 83.69254715253618 83.69254715253618 83.69254715253618 83.69254715253618 83.69254715253618 83.69254715253618 83.69254715253618 83.69254715253618 83.69254715253618 83.69254715253618 83.69254715253618 83.69254715253618 83.69254715253618 83.67057315509979 83.64859915766343 83.62662516022706 83.6046511627907 83.6046511627907 83.56070316791798 83.56070316791798 83.53872917048159 83.51675517304523 83.49478117560886 83.4728071781725 83.45083318073613 83.42885918329976 83.42885918329976 83.38491118842703 83.36293719099066 83.36293719099066 83.3409631935543 83.31898919611793 83.29701519868156 83.29701519868156 83.29701519868156 83.29701519868156 83.29701519868156 83.29701519868156 83.29701519868156 83.29701519868156 83.29701519868156 83.29701519868156 83.29701519868156 83.29701519868156 83.29701519868156 83.29701519868156 83.29701519868156 83.29701519868156 83.29701519868156 83.29701519868156 83.27504120124519 83.29701519868156 83.29701519868156 83.27504120124519 83.25306720380883 83.25306720380883 83.25306720380883 83.25306720380883 83.25306720380883 83.25306720380883 83.25306720380883 83.25306720380883 83.25306720380883 83.25306720380883 83.25306720380883 83.25306720380883 83.25306720380883 83.25306720380883 83.25306720380883 83.25306720380883 83.25306720380883 83.25306720380883 83.25306720380883 83.25306720380883 83.25306720380883 83.25306720380883 83.25306720380883 83.25306720380883 83.25306720380883 83.25306720380883 83.25306720380883 83.25306720380883 83.25306720380883 83.25306720380883 83.25306720380883 83.25306720380883 83.27504120124519 83.25306720380883 83.27504120124519 83.25306720380883 83.25306720380883 83.25306720380883 83.25306720380883 83.25306720380883 83.25306720380883 83.23109320637246 83.2091192089361 83.16517121406336 83.12122321919063 83.09924922175426 83.05530122688153 83.03332722944516 82.98937923457243 82.96740523713606 82.92345724226331 82.90148324482695 82.87950924739059 82.85753524995422 82.8135872550815 82.8135872550815 82.76963926020875 82.76963926020875 82.74766526277239 82.72569126533602 82.70371726789965 82.68174327046329 82.68174327046329 82.65976927302691 82.63779527559055 82.63779527559055 82.61582127815419 82.61582127815419 82.61582127815419 82.61582127815419 82.61582127815419 82.61582127815419 82.61582127815419 82.61582127815419 82.63779527559055 82.63779527559055 82.63779527559055 82.63779527559055 82.63779527559055 82.63779527559055 82.61582127815419 82.63779527559055 82.63779527559055 82.61582127815419 82.61582127815419 82.61582127815419 82.59384728071782 82.59384728071782 82.59384728071782 82.54989928584509 82.52792528840871 82.52792528840871 82.48397729353599 82.46200329609962 82.46200329609962 82.44002929866325 82.44002929866325 82.44002929866325 82.44002929866325 82.41805530122689 82.41805530122689 82.41805530122689 82.39608130379051 82.39608130379051 82.37410730635415 82.37410730635415 82.37410730635415 82.35213330891779 82.30818531404505 82.28621131660869 82.26423731917231 82.24226332173595 82.19831532686322 82.15436733199049 82.02252334737227 81.91265336019043 81.80278337300861 81.69291338582677 81.53909540377221 81.42922541659037 81.2754074345358 81.09961545504487 80.83592748580847 80.77000549349935 80.61618751144479 80.44039553195387 80.33052554477202 80.17670756271745 80.08881157297199 79.95696758835379 79.82512360373559 79.69327961911739 79.51748763962644 79.25379967039004 79.20985167551731 79.07800769089911 78.85826771653544 78.72642373191724 78.39681377037172 78.2210217908808 77.93535982420804 77.53982787035342 77.40798388573522 77.16626991393517 76.96850393700788 76.52902398828054 76.24336202160777 75.97967405237137 75.67203808826221 75.40835011902581 74.99084416773485 74.81505218824393 74.50741622413477 74.30965024720747 74.04596227797106 73.8262223036074 73.60648232924373 73.40871635231643 73.18897637795277 73.05713239333456 72.92528840871636 72.74949642922542 72.48580845998902 72.35396447537082 72.13422450100714 72.00238051638894 71.71671854971618 71.6288225599707 71.4310565830434 71.18934261124336 70.9036806445706 70.68394067020692 70.37630470609778 70.17853872917048 69.80498077275224 69.21168284197034 68.86009888298847 68.57443691631569 68.13495696758835 67.73942501373375 67.27797106757004 66.72862113166087 65.9815052188244 65.73979124702436 65.27833730086064 64.94872733931514 64.26753341878776 63.95989745467863 63.454495513642186 63.080937557223955 62.59750961362388 62.09210767258744 61.76249771104193 61.45486174693279 61.12525178538729 60.86156381615089 60.55392785204175 60.312213880241714 60.026551913568944 59.806811939205275 59.587071964841606 59.433253982787036 59.3893059879143 59.2574620032961 59.01574803149606 58.9937740340597 58.8619300494415 58.62021607764146 58.51034609045962 58.29060611609595 57.98297015198681 57.74125618018678 57.389672221204904 57.235854239150335 57.104010254532135 56.9282182750412 56.64255630836843 56.488738326313864 56.422816334004764 56.26899835195019 56.09320637245926 55.917414392968325 55.74162241347739 55.65372642373192 55.52188243911371 55.39003845449551 55.23622047244095 55.17029848013185 54.99450650064091 54.88463651345907 54.68687053653177 54.51107855704083 54.4671305621681 54.269364585240794 53.98370261856803 53.763962644204355 53.566196667277055 53.412378685222485 53.170664713422454 52.797106757004215 52.44552279802234 52.22578282365867 51.8741988646768 51.58853689800403 51.21497894158579 50.99523896722212 50.42391503387658 50.160227064640175 49.89653909540377 49.610877128731005 49.32521516205823 48.79783922358543 48.16059329793078 47.87493133125801 47.457425379967034 47.083867423548796 46.86412744918513 46.556491485075995 46.424647500457795 46.16095953122139 45.80937557223952 45.56766160043948 45.32594762863944 45.12818165171214 44.90844167734847 44.66672770554844 44.5568577183666 44.4250137337484 44.271195751693824 44.139351767075624 43.87566379783922 43.655923823475554 43.348287859366415 43.128547885002746 42.90880791063908 42.733015931148145 42.42537996703901 42.1616919978026 41.85405603369347 41.61234206189343 41.28273210034792 41.10694012085699 40.645486174693275 40.447720197765975 40.206006225965936 39.964292254165905 39.48086431056583 39.08533235671123 38.73374839772936 38.55795641823842 38.42611243362022 38.29426844900202 37.98663248489288 37.7668925105292 37.45925654642007 37.327412561801864 36.931880607947264 36.690166636147225 36.51437465665629 36.272660684856255 35.87712873100165 35.54751876945615 35.43764878227431 35.23988280534701 35.13001281816517 35.02014283098333 34.9102728438015 34.7784288591833 34.62461087712873 34.53671488738326 34.38289690532869 34.29500091558323 34.05328694378319 33.89946896172862 33.81157297198315 33.635780992492215 33.54788500274675 33.503937007874015 33.372093023255815 33.284197033510345 33.240249038637614 33.108405054019414 32.998535066837576 32.712873100164806 32.62497711041934 32.40523713605567 32.185497161692 31.96575718732833 31.482329243728255 31.262589269364586 30.954953305255447 30.559421351400843 30.054019410364404 29.76835744369163 29.328877494964292 29.065189525727888 28.62570957700055 28.40596960263688 28.230177623145945 28.076359641091376 27.944515656473172 27.702801684673137 27.461087712873102 27.307269730818533 27.131477751327594 26.911737776963925 26.80186778978209 26.560153817982055 26.38436183849112 26.14264786669108 25.966855887200147 25.65921992309101 25.483427943600073 25.35158395898187 25.15381798205457 24.956052005127265 25.0659219923091 25.0659219923091 25.021973997436366 25.0 25.15381798205457 26.494231825672955 26.60410181285479 26.60410181285479 26.58212781541842 26.560153817982055 26.560153817982055 26.560153817982055 26.560153817982055 26.538179820545686 26.538179820545686 26.51620582310932 26.494231825672955 26.472257828236586 26.42830983336385 26.406335835927486 26.36238784105475 26.318439846182017 26.29646584874565 26.252517853872916 26.208569859000182 26.14264786669108 26.098699871818347 26.07672587438198 26.032777879509247 25.966855887200147 25.900933894891047 25.878959897454678 25.856985900018312 25.813037905145578 25.769089910272843 25.747115912836477 25.72514191540011 25.72514191540011 25.703167917963743 25.703167917963743 25.681193920527377 25.65921992309101 25.65921992309101 25.637245925654643 25.637245925654643 25.593297930781908 25.593297930781908 25.571323933345543 25.571323933345543 25.527375938472808 25.527375938472808 25.50540194103644 25.50540194103644 25.483427943600073 25.483427943600073 25.483427943600073 25.483427943600073 25.483427943600073 25.461453946163708 25.461453946163708 25.461453946163708 25.461453946163708 25.461453946163708 25.461453946163708 25.43947994872734 25.43947994872734 25.43947994872734 25.417505951290973 25.417505951290973 25.417505951290973 25.417505951290973 25.417505951290973 25.417505951290973 25.395531953854604 25.395531953854604 25.395531953854604 25.395531953854604 25.37355795641824 25.37355795641824 25.37355795641824 25.37355795641824 25.37355795641824 25.37355795641824 25.37355795641824 25.35158395898187 25.35158395898187 25.35158395898187 25.35158395898187 25.35158395898187 25.35158395898187 25.35158395898187 25.35158395898187 25.35158395898187 25.35158395898187 25.329609961545504 25.35158395898187 25.35158395898187 25.329609961545504 25.329609961545504 25.329609961545504 25.329609961545504 25.329609961545504 25.329609961545504 25.329609961545504 25.329609961545504 25.329609961545504 25.329609961545504 25.329609961545504 25.329609961545504 25.329609961545504 25.329609961545504 25.329609961545504 25.30763596410914 25.30763596410914 25.329609961545504 25.329609961545504 25.30763596410914 25.30763596410914 25.30763596410914 25.30763596410914 25.30763596410914 25.30763596410914 25.30763596410914 25.30763596410914 25.30763596410914 25.30763596410914 25.30763596410914 25.30763596410914 25.30763596410914 25.28566196667277 25.30763596410914 25.30763596410914 25.30763596410914 25.30763596410914 25.30763596410914 25.30763596410914 25.30763596410914 25.30763596410914 25.30763596410914 25.28566196667277 25.28566196667277 25.28566196667277 25.28566196667277 25.28566196667277 25.28566196667277 25.28566196667277 25.28566196667277 25.28566196667277 25.28566196667277 25.28566196667277 25.28566196667277 25.263687969236404 25.263687969236404 25.263687969236404 25.263687969236404 25.263687969236404 25.263687969236404 25.263687969236404 25.263687969236404 25.263687969236404 25.241713971800035 25.241713971800035 25.21973997436367 25.21973997436367 25.21973997436367 25.21973997436367 25.21973997436367 25.21973997436367 25.21973997436367 25.21973997436367 25.21973997436367 25.21973997436367 25.21973997436367 25.21973997436367 25.21973997436367 25.21973997436367 25.21973997436367 25.21973997436367 25.21973997436367 25.21973997436367 25.21973997436367 25.21973997436367 25.21973997436367 25.21973997436367 25.21973997436367 25.21973997436367 25.21973997436367 25.21973997436367 25.21973997436367 25.21973997436367 25.21973997436367 25.21973997436367 25.21973997436367 25.21973997436367 25.21973997436367 25.21973997436367 25.21973997436367 25.21973997436367 25.21973997436367 25.21973997436367 25.21973997436367 25.21973997436367 25.21973997436367 25.21973997436367 25.21973997436367 25.21973997436367 25.21973997436367 25.21973997436367 25.21973997436367 25.21973997436367 25.21973997436367 25.21973997436367 25.21973997436367 25.21973997436367 25.21973997436367 25.21973997436367 25.21973997436367 25.21973997436367 25.21973997436367 25.21973997436367 25.21973997436367 25.21973997436367 25.21973997436367 25.21973997436367 25.21973997436367 25.21973997436367 25.21973997436367 25.21973997436367 25.21973997436367 25.21973997436367 25.21973997436367 25.21973997436367 25.21973997436367 25.21973997436367 25.21973997436367 25.21973997436367 25.21973997436367 25.21973997436367 25.21973997436367 25.21973997436367 25.21973997436367 25.21973997436367 25.21973997436367 25.21973997436367 25.21973997436367 25.21973997436367 25.21973997436367 25.21973997436367 25.21973997436367 25.21973997436367 25.21973997436367 25.21973997436367 25.21973997436367 25.21973997436367 25.21973997436367 25.21973997436367 25.21973997436367 25.21973997436367 25.21973997436367 25.21973997436367 25.21973997436367 25.21973997436367 25.21973997436367 25.21973997436367 25.21973997436367 25.21973997436367 25.21973997436367 25.21973997436367 25.21973997436367 25.21973997436367 25.21973997436367 25.21973997436367 25.21973997436367 25.21973997436367 25.21973997436367 25.21973997436367 25.21973997436367 25.21973997436367 25.21973997436367 25.21973997436367 25.21973997436367 25.21973997436367 25.21973997436367 25.21973997436367 25.21973997436367 25.21973997436367 25.21973997436367 25.21973997436367 25.21973997436367 25.21973997436367 25.21973997436367 25.21973997436367 25.21973997436367 25.21973997436367 25.241713971800035 25.21973997436367 25.21973997436367 25.21973997436367 25.21973997436367 25.21973997436367 25.21973997436367 25.21973997436367 25.21973997436367 25.21973997436367 25.21973997436367 25.21973997436367 25.21973997436367 25.21973997436367 25.21973997436367 25.21973997436367 25.21973997436367 25.21973997436367 25.21973997436367 25.21973997436367 25.21973997436367 25.21973997436367 25.21973997436367 25.21973997436367 25.21973997436367 25.241713971800035 25.241713971800035 25.241713971800035 25.263687969236404 25.263687969236404 25.263687969236404 25.263687969236404 25.263687969236404 25.263687969236404 25.28566196667277 25.28566196667277 25.30763596410914 25.30763596410914 25.28566196667277 25.30763596410914 25.329609961545504 25.329609961545504 25.35158395898187 25.35158395898187 25.37355795641824 25.395531953854604 25.461453946163708 25.50540194103644 25.593297930781908 25.637245925654643 25.72514191540011 25.813037905145578 25.900933894891047 26.01080388207288 26.098699871818347 26.186595861563816 26.252517853872916 26.38436183849112 26.45028383080022 26.494231825672955 26.60410181285479 26.691997802600255 26.779893792345725 26.88976377952756 27.04358176158213 27.241347738509432 27.527009705182202 27.74674967954587 28.076359641091376 28.427943600073245 28.75755356161875 29.087163523164257 29.372825489837027 29.834279436000735 30.29573338216444 30.801135323200878 31.30653726423732 31.68009522065556 32.40523713605567 32.53708112067387 33.064457059146676 33.61380699505585 34.18513092840139 34.53671488738326 35.21790880791064 35.52554477201978 35.87712873100165 36.338582677165356 36.80003662332906 37.129646584874564 37.45925654642007 37.78886650796557 38.20637245925654 38.77769639260209 39.01941036440212 39.41494231825673 39.744552279802235 40.381798205456874 40.75535616187511 41.084966123420614 41.65629005676616 41.98590001831167 42.62314594396631 42.798937923457245 43.106573887566384 43.54605383629372 44.16132576451199 44.4909357260575 44.97436366965757 45.30397363120308 45.80937557223952 46.44662149789416 46.86412744918513 47.259659403039734 47.58926936458524 47.94085332356711 48.44625526460355 48.99560520051273 49.56692913385827 49.89653909540377 50.270097051822006 50.88536898004028 51.39077092107672 51.76432887749496 52.37960080571324 52.68723676982238 52.994872733931516 53.214612708295185 53.434352682658854 53.763962644204355 54.09357260574986 54.4671305621681 54.84068851858634 55.12635048525911 55.47793444424098 55.74162241347739 56.15912836476836 56.598608313495696 56.9941402673503 57.257828236586704 57.65336019044131 57.89507416224135 58.26863211865959 58.88390404687786 59.08167002380517 59.3233839956052 59.54312396996887 59.76286394433254 60.070499908441676 60.246291887932614 60.378135872550814 60.444057864859914 60.48800585973265 60.55392785204175 60.597875846914484 60.61984984435085 60.641823841787215 60.61984984435085 60.641823841787215 60.641823841787215 60.641823841787215 60.61984984435085 60.61984984435085 60.61984984435085 60.61984984435085 60.61984984435085 60.61984984435085 60.641823841787215 60.641823841787215 60.641823841787215 60.641823841787215 60.641823841787215 60.641823841787215 60.61984984435085 60.61984984435085 60.61984984435085 60.61984984435085 60.597875846914484 60.597875846914484 60.597875846914484 60.575901849478115 60.575901849478115 60.55392785204175 60.55392785204175 60.53195385460538 60.509979857169014 60.48800585973265 60.48800585973265 60.444057864859914 60.40010986998718 60.356161875114445 60.312213880241714 60.290239882805345 60.246291887932614 60.224317890496245 60.202343893059876 60.158395898187145 60.158395898187145 60.136421900750776 60.114447903314414 60.114447903314414 60.114447903314414 60.114447903314414 60.114447903314414 60.114447903314414 60.114447903314414 60.114447903314414 60.114447903314414 60.114447903314414 60.114447903314414 60.114447903314414 60.114447903314414 60.092473905878045 60.070499908441676 60.026551913568944 60.004577916132575 59.982603918696206 59.960629921259844 59.938655923823475 59.894707928950744 59.82878593664164 59.784837941768906 59.740889946896175 59.69694195202344 59.674967954587075 59.652993957150706 59.63101995971434 59.60904596227797 59.587071964841606 59.587071964841606 59.56509796740524 59.56509796740524 59.56509796740524 59.56509796740524 59.56509796740524 59.56509796740524 59.56509796740524 59.54312396996887 59.54312396996887 59.54312396996887 59.54312396996887 59.54312396996887 59.54312396996887 59.56509796740524 59.56509796740524 59.587071964841606 59.587071964841606 59.60904596227797 59.60904596227797 59.60904596227797 59.63101995971434 59.63101995971434 59.63101995971434 59.652993957150706 59.652993957150706 59.652993957150706 59.652993957150706 59.652993957150706 59.652993957150706 59.674967954587075 59.652993957150706 59.652993957150706 59.652993957150706 59.652993957150706 59.652993957150706 59.652993957150706 59.63101995971434 59.63101995971434 59.63101995971434 59.63101995971434 59.652993957150706 59.63101995971434 59.652993957150706 59.652993957150706 59.652993957150706 59.652993957150706 59.652993957150706 59.652993957150706 59.652993957150706 59.674967954587075 59.674967954587075 59.674967954587075 59.674967954587075 59.674967954587075 59.674967954587075 59.674967954587075 59.674967954587075 59.674967954587075 59.674967954587075 59.674967954587075 59.674967954587075 59.652993957150706 59.652993957150706 59.652993957150706 59.63101995971434 59.63101995971434 59.63101995971434 59.63101995971434 59.63101995971434 59.63101995971434 59.63101995971434 59.63101995971434 59.60904596227797 59.60904596227797 59.60904596227797 59.60904596227797 59.60904596227797 59.587071964841606 59.587071964841606 59.56509796740524 59.56509796740524 59.54312396996887 59.54312396996887 59.521149972532506 59.521149972532506 59.521149972532506 59.521149972532506 59.499175975096136 59.499175975096136 59.499175975096136 59.499175975096136 59.499175975096136 59.499175975096136 59.499175975096136 59.499175975096136 59.499175975096136 59.47720197765977 59.47720197765977 59.47720197765977 59.499175975096136 59.499175975096136 59.499175975096136 59.499175975096136 59.499175975096136 59.499175975096136 59.499175975096136 59.499175975096136 59.499175975096136 59.499175975096136 59.499175975096136 59.499175975096136 59.499175975096136 59.499175975096136 59.499175975096136 59.499175975096136 59.47720197765977 59.47720197765977 59.433253982787036 59.433253982787036 59.41127998535067 59.3893059879143 59.3893059879143 59.367331990477936 59.367331990477936 59.34535799304157 59.34535799304157 59.34535799304157 59.3233839956052 59.3233839956052 59.3233839956052 59.3233839956052 59.3233839956052 59.301409998168836 59.301409998168836 59.301409998168836 59.301409998168836 59.301409998168836 59.27943600073247 59.27943600073247 59.2574620032961 59.2574620032961 59.2574620032961 59.2574620032961 59.23548800585973 59.23548800585973 59.191540010987 59.191540010987 59.191540010987 59.16956601355063 59.16956601355063 59.14759201611427 59.14759201611427 59.14759201611427 59.1256180186779 59.1256180186779 59.1256180186779 59.1256180186779 59.1256180186779 59.1256180186779 59.1256180186779 59.1256180186779 59.14759201611427 59.14759201611427 59.14759201611427 59.16956601355063 59.16956601355063 59.191540010987 59.191540010987 59.191540010987 59.21351400842337 59.21351400842337 59.21351400842337 59.21351400842337 59.21351400842337 59.21351400842337 59.21351400842337 59.21351400842337 59.21351400842337 59.21351400842337 59.21351400842337 59.191540010987 59.16956601355063 59.16956601355063 59.14759201611427 59.1256180186779 59.08167002380517 59.08167002380517 59.0596960263688 59.03772202893243 59.03772202893243 59.01574803149606 59.01574803149606 59.01574803149606 59.01574803149606 59.01574803149606 59.01574803149606 59.01574803149606 59.01574803149606 58.9937740340597 58.97180003662333 58.94982603918696 58.9278520417506 58.90587804431423 58.8619300494415 58.81798205456876 58.77403405969603 58.73008606482329 58.68613806995056 58.62021607764146 58.53232008789599 58.44442409815052 58.37850210584142 58.29060611609595 58.20271012635048 58.13678813404138 58.09284013916865 58.00494414942318 57.89507416224135 57.85112616736861 57.78520417505951 57.69730818531404 57.67533418787768 57.63138619300494 57.609412195568574 57.58743819813221 57.56546420069584 57.54349020325947 57.54349020325947 57.54349020325947 57.52151620582311 57.49954220838674 57.45559421351401 57.41164621864127 57.34572422633217 57.27980223402307 57.169932246841235 57.104010254532135 57.038088262223035 56.884270280168465 56.818348287859365 56.7304522981139 56.532686321186596 56.378868339132026 56.26899835195019 56.02728438015016 55.87346639809559 55.76359641091375 55.60977842885919 55.32411646218641 55.17029848013185 54.92858450833181 54.73081853140451 54.51107855704083 54.37923457242263 54.15949459805896 53.961728621131655 53.829884636513455 53.654092657022524 53.434352682658854 53.324482695477016 53.170664713422454 53.060794726240616 52.95092473905878 52.81908075444058 52.70921076725874 52.55539278520418 52.44552279802234 52.37960080571324 52.2697308185314 52.18183482878594 52.0719648416041 51.98406885185864 51.85222486724043 51.72038088262223 51.56656290056766 51.45669291338582 51.19300494414942 51.10510895440396 50.95129097234938 50.81944698773118 50.68760300311298 50.55575901849478 50.379967039003844 50.226149056949275 49.962461087712875 49.808643105658305 49.588903131294636 49.43508514924007 49.237319172312766 49.03955319538546 48.70994323383995 48.53415125434902 48.35835927485809 48.20454129280351 48.00677531587621 47.85295733382164 47.65519135689434 47.47939937740341 47.325581395348834 47.127815418421534 46.93004944149423 46.79820545687603 46.556491485075995 46.380699505585056 46.33675151071232 46.20490752609412 46.09503753891229 45.985167551730456 45.853323567112255 45.72147958249405 45.58963559787585 45.50173960813038 45.45779161325764 45.32594762863944 45.23805163889398 45.15015564914851 45.06225965940304 44.99633766709394 44.8864676799121 44.7546236952939 44.64475370811206 44.4909357260575 44.33711774400293 44.007507782457424 43.831715802966485 43.655923823475554 43.502105841420985 43.216443874748215 43.08459989013001 42.842885918329976 42.68906793627541 42.35945797472991 42.0957700054935 41.87603003112983 41.70023805163889 41.48049807727523 41.39260208752975 41.12891411829335 40.97509613623878 40.55759018494781 40.513642190075075 40.33785021058414 40.184032228529574 39.964292254165905 39.810474272111335 39.590734297747666 39.458890313129466 39.19520234389306 39.08533235671123 38.97546236952939 38.82164438747482 38.68980040285662 38.62387841054752 38.49203442592932 38.40413843618385 38.22834645669291 38.09650247207471 37.94268449002014 37.8328145028383 37.7009705182201 37.5691265336019 37.415308551547334 37.3054385643655 37.15162058231093 37.019776597692726 36.887932613074526 36.712140633583594 36.58029664896539 36.38253067203809 36.184764695110786 35.96502472074712 35.81120673869255 35.61344076176525 35.45962277971068 35.19593481047427 35.06409082585607 34.86632484892877 34.75645486174693 34.62461087712873 34.44881889763779 34.31697491301959 34.207104925837754 34.09723493865592 33.98736495147409 33.855520966855885 33.723676982237684 33.67972898736495 33.569859000183115 33.459989013001284 33.372093023255815 33.240249038637614 33.130379051455776 32.932613074528476 32.800769089910276 32.69089910272844 32.53708112067387 32.36128914118294 32.20747115912837 31.987731184764694 31.767991210401025 31.57022523347372 31.394433253982786 31.24061527192822 30.998901300128182 30.779161325764512 30.537447353964474 30.317707379600805 30.14191540010987 29.9221754257462 29.680461453946165 29.504669474455227 29.284929500091557 29.043215528291523 28.84544955136422 28.603735579564184 28.34004761032778 28.16425563083684 27.90056766160044 27.702801684673137 27.505035707745833 27.285295733382164 26.95568577183666 26.80186778978209 26.691997802600255 26.538179820545686 26.51620582310932 26.494231825672955 26.472257828236586 26.494231825672955 26.472257828236586 26.472257828236586 26.494231825672955 26.472257828236586 26.45028383080022 26.42830983336385 26.406335835927486 26.406335835927486 26.36238784105475 26.36238784105475 26.36238784105475 26.340413843618386 26.318439846182017 26.29646584874565 26.29646584874565 26.29646584874565 26.274491851309286 26.23054385643655 26.208569859000182 26.14264786669108 26.098699871818347 26.054751876945616 25.988829884636512 25.944881889763778 25.878959897454678 25.813037905145578 25.769089910272843 25.72514191540011 25.72514191540011 25.72514191540011 25.72514191540011 25.681193920527377 25.681193920527377 25.65921992309101 25.65921992309101 25.637245925654643 25.637245925654643 25.637245925654643 25.615271928218274 25.615271928218274 25.593297930781908 25.571323933345543 25.571323933345543 25.549349935909174 25.527375938472808 25.527375938472808 25.50540194103644 25.483427943600073 25.483427943600073 25.461453946163708 25.461453946163708 25.43947994872734 25.43947994872734 25.417505951290973 25.417505951290973 25.395531953854604 25.37355795641824 25.35158395898187 25.35158395898187 25.329609961545504 25.329609961545504 25.329609961545504 25.329609961545504 25.329609961545504 25.30763596410914 25.30763596410914 25.30763596410914 25.30763596410914 25.30763596410914 25.30763596410914 25.28566196667277 25.28566196667277 25.30763596410914 25.28566196667277 25.28566196667277 25.28566196667277 25.30763596410914 25.28566196667277 25.28566196667277 25.28566196667277 25.28566196667277 25.28566196667277 25.28566196667277 25.28566196667277 25.28566196667277 25.28566196667277 25.28566196667277 25.28566196667277 25.28566196667277 25.28566196667277 25.28566196667277 25.28566196667277 25.28566196667277 25.28566196667277 25.28566196667277 25.28566196667277 25.28566196667277 25.28566196667277 25.28566196667277 25.28566196667277 25.28566196667277 25.28566196667277 25.263687969236404 25.28566196667277 25.28566196667277 25.28566196667277 25.28566196667277 25.28566196667277 25.28566196667277 25.28566196667277 25.28566196667277 25.28566196667277 25.28566196667277 25.28566196667277 25.28566196667277 25.28566196667277 25.28566196667277 25.28566196667277 25.28566196667277 25.28566196667277 25.28566196667277 25.28566196667277 25.28566196667277 25.28566196667277 25.28566196667277 25.28566196667277 25.28566196667277 25.28566196667277 25.28566196667277 25.28566196667277 25.28566196667277 25.28566196667277 25.28566196667277 25.28566196667277 25.28566196667277 25.28566196667277 25.263687969236404 25.263687969236404 25.263687969236404 25.263687969236404 25.263687969236404 25.263687969236404 25.263687969236404 25.263687969236404 25.263687969236404 25.263687969236404 25.263687969236404 25.263687969236404 25.263687969236404 25.263687969236404 25.263687969236404 25.28566196667277 25.28566196667277 25.263687969236404 25.263687969236404 25.263687969236404 25.263687969236404 25.263687969236404 25.263687969236404 25.263687969236404 25.263687969236404 25.28566196667277 25.263687969236404 25.263687969236404 25.263687969236404 25.263687969236404 25.263687969236404 25.263687969236404 25.263687969236404 25.263687969236404 25.263687969236404 25.263687969236404 25.263687969236404 25.263687969236404 25.263687969236404 25.263687969236404 25.263687969236404 25.263687969236404 25.263687969236404 25.263687969236404 25.263687969236404 25.263687969236404 25.263687969236404 25.263687969236404 25.263687969236404 25.263687969236404 25.241713971800035 25.263687969236404 25.263687969236404 25.263687969236404 25.263687969236404 25.263687969236404 25.263687969236404 25.263687969236404 25.263687969236404 25.263687969236404 25.263687969236404 25.263687969236404 25.263687969236404 25.263687969236404 25.263687969236404 25.263687969236404 25.263687969236404 25.263687969236404 25.263687969236404 25.263687969236404 25.263687969236404 25.263687969236404 25.263687969236404 25.263687969236404 25.241713971800035 25.263687969236404 25.241713971800035 25.263687969236404 25.263687969236404 25.263687969236404 25.263687969236404 25.263687969236404 25.263687969236404 25.263687969236404 25.263687969236404 25.263687969236404 25.263687969236404 25.263687969236404 25.263687969236404 25.241713971800035 25.241713971800035 25.263687969236404 25.263687969236404 25.241713971800035 25.241713971800035 25.241713971800035 25.263687969236404 25.263687969236404 25.263687969236404 25.263687969236404 25.263687969236404 25.241713971800035 25.263687969236404 25.241713971800035 25.263687969236404 25.241713971800035 25.263687969236404 25.263687969236404 25.263687969236404 25.241713971800035 25.263687969236404 25.241713971800035 25.263687969236404 25.263687969236404 25.263687969236404 25.263687969236404 25.241713971800035 25.241713971800035 25.263687969236404 25.241713971800035 25.241713971800035 25.263687969236404 25.263687969236404 25.241713971800035 25.241713971800035 25.241713971800035 25.263687969236404 25.241713971800035 25.263687969236404 25.241713971800035 25.263687969236404 25.241713971800035 25.241713971800035 25.241713971800035 25.241713971800035 25.241713971800035 25.241713971800035 25.263687969236404 25.241713971800035 25.263687969236404 25.241713971800035 25.241713971800035 25.263687969236404 25.241713971800035 25.241713971800035 25.263687969236404 25.263687969236404 25.241713971800035 25.241713971800035 25.241713971800035 25.263687969236404 25.241713971800035 25.263687969236404 25.263687969236404 25.241713971800035 25.241713971800035 25.241713971800035 25.241713971800035 25.263687969236404 25.241713971800035 25.241713971800035 25.241713971800035 25.241713971800035 25.263687969236404 25.241713971800035 25.241713971800035 25.241713971800035 25.263687969236404 25.241713971800035 25.263687969236404 25.241713971800035 25.241713971800035 25.241713971800035 25.241713971800035 25.241713971800035 25.241713971800035 25.263687969236404 25.241713971800035 25.241713971800035 25.241713971800035 25.241713971800035 25.241713971800035 25.241713971800035 25.241713971800035 25.241713971800035 25.241713971800035 25.263687969236404 25.241713971800035 25.263687969236404 25.241713971800035 25.241713971800035 25.241713971800035 25.241713971800035 25.263687969236404 25.241713971800035 25.241713971800035 25.241713971800035 25.241713971800035 25.263687969236404 25.263687969236404 25.263687969236404 25.263687969236404 25.241713971800035 25.241713971800035 25.241713971800035 25.241713971800035 25.241713971800035 25.263687969236404 25.263687969236404 25.263687969236404 25.241713971800035 25.241713971800035 25.241713971800035 25.241713971800035 25.241713971800035 25.241713971800035 25.241713971800035 25.241713971800035 25.263687969236404 25.241713971800035 25.241713971800035 25.241713971800035 25.241713971800035 25.241713971800035 25.241713971800035 25.263687969236404 25.263687969236404 25.241713971800035 25.241713971800035 25.241713971800035 25.241713971800035 25.241713971800035 25.241713971800035 25.241713971800035 25.241713971800035 25.263687969236404 25.241713971800035 25.263687969236404 25.241713971800035 25.241713971800035 25.241713971800035 25.241713971800035 25.241713971800035 25.241713971800035 25.263687969236404 25.241713971800035 25.241713971800035 25.241713971800035 25.241713971800035 25.241713971800035 25.241713971800035 25.241713971800035 25.241713971800035 25.241713971800035 25.241713971800035 25.241713971800035 25.241713971800035 25.241713971800035 25.241713971800035 25.263687969236404 25.241713971800035 25.241713971800035 25.241713971800035 25.241713971800035 25.241713971800035 25.241713971800035 25.263687969236404 25.263687969236404 25.241713971800035 25.241713971800035 25.241713971800035 25.241713971800035 25.241713971800035 25.241713971800035 25.241713971800035 25.241713971800035 25.263687969236404 25.241713971800035 25.241713971800035 25.241713971800035 25.241713971800035 25.241713971800035 25.241713971800035 25.241713971800035 25.241713971800035 25.241713971800035 25.241713971800035 25.263687969236404 25.241713971800035 25.241713971800035 25.241713971800035 25.263687969236404 25.241713971800035 25.241713971800035 25.241713971800035 25.241713971800035 25.241713971800035 25.241713971800035 25.241713971800035 25.241713971800035 25.241713971800035 25.241713971800035 25.241713971800035 25.241713971800035 25.241713971800035 25.241713971800035 25.241713971800035 25.241713971800035 25.241713971800035 25.241713971800035 25.263687969236404 25.263687969236404 25.241713971800035 25.241713971800035 25.241713971800035 25.241713971800035 25.241713971800035 25.241713971800035 25.241713971800035 25.241713971800035 25.241713971800035 25.241713971800035 25.241713971800035 25.241713971800035 25.241713971800035 25.241713971800035 25.263687969236404 25.241713971800035 25.241713971800035 25.241713971800035 25.241713971800035 25.241713971800035 25.241713971800035 25.241713971800035 25.241713971800035 25.241713971800035 25.241713971800035 25.241713971800035 25.241713971800035 25.241713971800035 25.241713971800035 25.241713971800035 25.241713971800035 25.241713971800035 25.241713971800035 25.241713971800035 25.241713971800035 25.241713971800035 25.241713971800035 25.241713971800035 25.241713971800035 25.241713971800035 25.241713971800035 25.241713971800035 25.241713971800035 25.241713971800035 25.241713971800035 25.263687969236404 25.241713971800035 25.241713971800035 25.241713971800035 25.241713971800035 25.241713971800035 25.241713971800035 25.241713971800035 25.241713971800035 25.241713971800035 25.241713971800035 25.241713971800035 25.241713971800035 25.241713971800035 25.241713971800035 25.241713971800035 25.241713971800035 25.241713971800035 25.241713971800035 25.241713971800035 25.241713971800035 25.241713971800035 25.241713971800035 25.241713971800035 25.241713971800035 25.241713971800035 25.241713971800035 25.241713971800035 25.241713971800035 25.241713971800035 25.241713971800035 25.241713971800035 25.241713971800035 25.241713971800035 25.241713971800035 25.241713971800035 25.241713971800035 25.241713971800035 25.241713971800035 25.241713971800035 25.241713971800035 25.241713971800035 25.241713971800035 25.241713971800035 25.241713971800035 25.241713971800035 25.241713971800035 25.241713971800035 25.241713971800035 25.241713971800035 25.241713971800035 25.241713971800035 25.241713971800035 25.241713971800035 25.241713971800035 25.241713971800035 25.241713971800035 25.241713971800035 25.241713971800035 25.241713971800035 25.241713971800035 25.241713971800035 
