29.0 29.0 29.030763596410914 29.030763596410914 29.0 29.030763596410914 29.030763596410914 29.0 29.0 29.0 29.0 29.030763596410914 29.0 29.030763596410914 29.0 29.030763596410914 29.0 29.030763596410914 29.0 29.0 29.0 29.030763596410914 29.0 29.0 29.0 29.030763596410914 29.030763596410914 29.0 29.030763596410914 29.0 29.0 29.0 29.0 29.030763596410914 29.0 29.030763596410914 29.0 29.0 29.030763596410914 29.030763596410914 29.0 29.030763596410914 29.0 29.0 29.0 29.030763596410914 29.030763596410914 29.0 29.030763596410914 29.030763596410914 29.030763596410914 29.0 29.0 29.030763596410914 29.0 29.0 29.030763596410914 29.030763596410914 29.030763596410914 29.030763596410914 29.030763596410914 29.030763596410914 29.030763596410914 29.030763596410914 29.0 29.0 29.030763596410914 29.030763596410914 29.030763596410914 29.0 29.0 29.0 29.0 29.030763596410914 29.030763596410914 29.0 29.030763596410914 29.030763596410914 29.030763596410914 29.0 29.030763596410914 29.030763596410914 29.030763596410914 29.030763596410914 29.030763596410914 29.0 29.0 29.030763596410914 29.0 29.030763596410914 29.030763596410914 29.030763596410914 29.030763596410914 29.030763596410914 29.030763596410914 29.0 29.0 29.030763596410914 29.030763596410914 29.030763596410914 29.030763596410914 29.030763596410914 29.030763596410914 29.0 29.030763596410914 29.0 29.030763596410914 29.030763596410914 29.030763596410914 29.030763596410914 29.030763596410914 29.030763596410914 29.030763596410914 29.030763596410914 29.030763596410914 29.0 29.0 29.0 29.030763596410914 29.030763596410914 29.0 29.0 29.030763596410914 29.0 29.030763596410914 29.0 29.030763596410914 29.0 29.030763596410914 29.030763596410914 29.030763596410914 29.0 29.030763596410914 29.030763596410914 29.0 29.030763596410914 29.0 29.0 29.0 29.0 29.030763596410914 29.030763596410914 29.0 29.030763596410914 29.030763596410914 29.030763596410914 29.030763596410914 29.030763596410914 29.0 29.0 29.030763596410914 29.030763596410914 29.0 29.030763596410914 29.0 29.030763596410914 29.0 29.0 29.0 29.030763596410914 29.030763596410914 29.030763596410914 29.030763596410914 29.0 29.030763596410914 29.030763596410914 29.0 29.0 29.030763596410914 29.030763596410914 29.030763596410914 29.030763596410914 29.030763596410914 29.030763596410914 29.030763596410914 29.030763596410914 29.030763596410914 29.030763596410914 29.030763596410914 29.030763596410914 29.030763596410914 29.030763596410914 29.030763596410914 29.030763596410914 29.0 29.030763596410914 29.030763596410914 29.030763596410914 29.030763596410914 29.0 29.030763596410914 29.0 29.030763596410914 29.0 29.030763596410914 29.0 29.0 29.030763596410914 29.030763596410914 29.030763596410914 29.0 29.030763596410914 29.030763596410914 29.030763596410914 29.0 29.0 29.0 29.030763596410914 29.030763596410914 29.030763596410914 29.030763596410914 29.030763596410914 29.0 29.030763596410914 29.030763596410914 29.0 29.030763596410914 29.030763596410914 29.030763596410914 29.030763596410914 29.0 29.030763596410914 29.0 29.030763596410914 29.0 29.0 29.030763596410914 29.0 29.030763596410914 29.030763596410914 29.030763596410914 29.030763596410914 29.030763596410914 29.030763596410914 29.0 29.030763596410914 29.030763596410914 29.030763596410914 29.0 29.030763596410914 29.0 29.030763596410914 29.030763596410914 29.0 29.030763596410914 29.0 29.0 29.030763596410914 29.0 29.030763596410914 29.030763596410914 29.0 29.030763596410914 29.0 29.030763596410914 29.030763596410914 29.0 29.030763596410914 29.0 29.0 29.0 29.0 29.0 29.030763596410914 29.0 29.0 29.030763596410914 29.0 29.030763596410914 29.0 29.030763596410914 29.030763596410914 29.030763596410914 29.030763596410914 29.030763596410914 29.0 29.030763596410914 29.030763596410914 29.030763596410914 29.030763596410914 29.0 29.0 29.0 29.030763596410914 29.0 29.030763596410914 29.030763596410914 29.0 29.030763596410914 29.030763596410914 29.030763596410914 29.030763596410914 29.0 29.0 29.030763596410914 29.030763596410914 29.030763596410914 29.030763596410914 29.030763596410914 29.030763596410914 29.030763596410914 29.030763596410914 29.030763596410914 29.030763596410914 29.030763596410914 29.0 29.0 29.030763596410914 29.0 29.030763596410914 29.030763596410914 29.030763596410914 29.030763596410914 29.0 29.030763596410914 29.030763596410914 29.030763596410914 29.0 29.030763596410914 29.030763596410914 29.030763596410914 29.030763596410914 29.0 29.0 29.0 29.030763596410914 29.030763596410914 29.0 29.0 29.030763596410914 29.030763596410914 29.0 29.0 29.0 29.030763596410914 29.0 29.030763596410914 29.030763596410914 29.0 29.0 29.030763596410914 29.030763596410914 29.030763596410914 29.0 29.0 29.0 29.030763596410914 29.0 29.030763596410914 29.030763596410914 29.030763596410914 29.030763596410914 29.0 29.030763596410914 29.030763596410914 29.0 29.030763596410914 29.0 29.0 29.0 29.0 29.0 29.030763596410914 29.030763596410914 29.030763596410914 29.0 29.030763596410914 29.030763596410914 29.030763596410914 29.0 29.030763596410914 29.0 29.030763596410914 29.0 29.0 29.030763596410914 29.030763596410914 29.030763596410914 29.030763596410914 29.030763596410914 29.0 29.0 29.0 29.0 29.030763596410914 29.030763596410914 29.0 29.0 29.0 29.0 29.0 29.0 29.030763596410914 29.0 29.0 29.030763596410914 29.030763596410914 29.030763596410914 29.030763596410914 29.0 29.030763596410914 29.0 29.030763596410914 29.030763596410914 29.030763596410914 29.0 29.030763596410914 29.0 29.0 29.0 29.030763596410914 29.030763596410914 29.030763596410914 29.0 29.030763596410914 29.030763596410914 29.030763596410914 29.0 29.0 29.030763596410914 29.0 29.0 29.0 29.030763596410914 29.030763596410914 29.0 29.030763596410914 29.0 29.030763596410914 29.030763596410914 29.030763596410914 29.030763596410914 29.0 29.0 29.0 29.030763596410914 29.0 29.030763596410914 29.0 29.030763596410914 29.0 29.0 29.030763596410914 29.0 29.0 29.030763596410914 29.0 29.030763596410914 29.030763596410914 29.030763596410914 29.0 29.030763596410914 29.030763596410914 29.0 29.0 29.030763596410914 29.030763596410914 29.030763596410914 29.0 29.030763596410914 29.0 29.030763596410914 29.0 29.0 29.030763596410914 29.030763596410914 29.0 29.030763596410914 29.0 29.0 29.0 29.0 29.0 29.0 29.0 29.0 29.030763596410914 29.030763596410914 29.0 29.030763596410914 29.0 29.0 29.030763596410914 29.030763596410914 29.0 29.0 29.030763596410914 29.0 29.0 29.0 29.0 29.0 29.030763596410914 29.030763596410914 29.0 29.030763596410914 29.030763596410914 29.030763596410914 29.030763596410914 29.030763596410914 29.030763596410914 29.0 29.030763596410914 29.030763596410914 29.0 29.0 29.030763596410914 29.030763596410914 29.030763596410914 29.0 29.0 29.0 29.030763596410914 29.030763596410914 29.0 29.0 29.0 29.0 29.030763596410914 29.0 29.030763596410914 29.0 29.030763596410914 29.030763596410914 29.030763596410914 29.0 29.0 29.0 29.030763596410914 29.0 29.0 29.0 29.030763596410914 29.030763596410914 29.0 29.030763596410914 29.030763596410914 29.0 29.030763596410914 29.0 29.0 29.030763596410914 29.0 29.030763596410914 29.0 29.0 29.030763596410914 29.030763596410914 29.030763596410914 29.030763596410914 29.0 29.0 29.030763596410914 29.030763596410914 29.030763596410914 29.030763596410914 29.0 29.0 29.030763596410914 29.030763596410914 29.0 29.0 29.0 29.030763596410914 29.0 29.030763596410914 29.030763596410914 29.0 29.0 29.030763596410914 29.0 29.0 29.030763596410914 29.030763596410914 29.0 29.0 29.030763596410914 29.0 29.030763596410914 29.030763596410914 29.0 29.0 29.0 29.030763596410914 29.0 29.030763596410914 29.0 29.0 29.030763596410914 29.0 29.0 29.0 29.0 29.0 29.030763596410914 29.0 29.030763596410914 29.030763596410914 29.030763596410914 29.0 29.030763596410914 29.0 29.030763596410914 29.0 29.030763596410914 29.030763596410914 29.030763596410914 29.0 29.0 29.0 29.030763596410914 29.030763596410914 29.030763596410914 29.030763596410914 29.0 29.0 29.030763596410914 29.030763596410914 29.0 29.030763596410914 29.030763596410914 29.0 29.030763596410914 29.030763596410914 29.0 29.0 29.030763596410914 29.0 29.0 29.0 29.0 29.030763596410914 29.0 29.0 29.030763596410914 29.0 29.0 29.030763596410914 29.030763596410914 29.0 29.030763596410914 29.030763596410914 29.0 29.0 29.0 29.030763596410914 29.0 29.0 29.0 29.030763596410914 29.0 29.030763596410914 29.030763596410914 29.0 29.0 29.0 29.030763596410914 29.030763596410914 29.0 29.0 29.030763596410914 29.030763596410914 29.0 29.030763596410914 29.0 29.0 29.0 29.0 29.0 29.0 29.030763596410914 29.0 29.0 29.0 29.0 29.030763596410914 29.030763596410914 29.0 29.030763596410914 29.0 29.030763596410914 29.0 29.030763596410914 29.0 29.0 29.030763596410914 29.030763596410914 29.0 29.0 29.0 29.0 29.030763596410914 29.030763596410914 29.0 29.030763596410914 29.0 29.0 29.030763596410914 29.030763596410914 29.0 29.0 29.030763596410914 29.030763596410914 29.030763596410914 29.030763596410914 29.030763596410914 29.030763596410914 29.030763596410914 29.0 29.0 29.030763596410914 29.030763596410914 29.030763596410914 29.0 29.030763596410914 29.0 29.0 29.0 29.0 29.030763596410914 29.030763596410914 29.0 29.030763596410914 29.0 29.0 29.0 29.030763596410914 29.030763596410914 29.030763596410914 29.0 29.030763596410914 29.0 29.030763596410914 29.030763596410914 29.030763596410914 29.0 29.030763596410914 29.0 29.030763596410914 29.030763596410914 29.030763596410914 29.030763596410914 29.0 29.0 29.030763596410914 29.030763596410914 29.030763596410914 29.0 29.0 29.030763596410914 29.030763596410914 29.030763596410914 29.0 29.030763596410914 29.030763596410914 29.0 29.030763596410914 29.030763596410914 29.030763596410914 29.030763596410914 29.0 29.0 29.0 29.030763596410914 29.030763596410914 29.030763596410914 29.030763596410914 29.0 29.0 29.0 29.0 29.030763596410914 29.0 29.030763596410914 29.0 29.030763596410914 29.030763596410914 29.030763596410914 29.0 29.030763596410914 29.0 29.030763596410914 29.0 29.030763596410914 29.0 29.0 29.0 29.0 29.030763596410914 29.030763596410914 29.030763596410914 29.030763596410914 29.0 29.030763596410914 29.030763596410914 29.0 29.030763596410914 29.0 29.0 29.030763596410914 29.030763596410914 29.0 29.0 29.0 29.0 29.030763596410914 29.030763596410914 29.0 29.030763596410914 29.030763596410914 29.030763596410914 29.0 29.030763596410914 29.0 29.030763596410914 29.0 29.030763596410914 29.030763596410914 29.030763596410914 29.030763596410914 29.030763596410914 29.030763596410914 29.0 29.0 29.0 29.030763596410914 29.0 29.030763596410914 29.030763596410914 29.030763596410914 29.030763596410914 29.0 29.030763596410914 29.030763596410914 29.030763596410914 29.0 29.0 29.030763596410914 29.0 29.0 29.030763596410914 29.030763596410914 29.0 29.0 29.0 29.030763596410914 29.0 29.0 29.0 29.030763596410914 29.030763596410914 29.0 29.030763596410914 29.030763596410914 29.0 29.0 29.030763596410914 29.0 29.0 29.030763596410914 29.030763596410914 29.030763596410914 29.030763596410914 29.030763596410914 29.0 29.0 29.030763596410914 29.0 29.030763596410914 29.030763596410914 29.0 29.030763596410914 29.030763596410914 29.061527192821828 29.061527192821828 29.09229078923274 29.061527192821828 29.09229078923274 29.09229078923274 29.09229078923274 29.09229078923274 29.09229078923274 29.09229078923274 29.09229078923274 29.09229078923274 29.09229078923274 29.09229078923274 29.123054385643655 29.09229078923274 29.09229078923274 29.09229078923274 29.123054385643655 29.123054385643655 29.215345174876397 29.39992675334188 29.707562717451015 29.83061710309467 29.922907892327412 30.322834645669293 30.47665262772386 30.66123420618934 30.81505218824391 31.153451748763963 31.430324116462188 31.79948727339315 32.107123237502286 32.53781358725508 33.30690349752793 33.58377586522615 33.95293902215711 34.35286577549899 34.84508331807361 35.183482878593665 35.82951840322285 36.1679179637429 36.41402673503021 36.906244277604834 37.152353048892145 37.33693462735763 37.859915766343164 38.25984251968504 38.81358725508149 39.15198681560154 39.674967954587075 40.16718549716169 40.65940303973631 41.05932979307819 41.67460172129647 42.07452847463834 42.68980040285662 43.12049075260941 44.01263504852591 44.41256180186779 44.935542940853324 45.52005127266068 46.16608679728987 46.62754074345358 47.39663065372642 47.82732100347921 48.35030214246475 48.873283281450284 49.21168284197033 49.48855520966856 50.042299945065004 50.31917231276323 50.688335469694195 50.903680644570585 51.18055301226882 51.42666178355613 51.64200695843252 51.79582494048709 51.91887932613075 51.98040651895257 52.0419337117744 52.13422450100714 52.257278886650795 52.411096868705364 52.53415125434902 52.65720563999267 52.84178721845816 52.96484160410181 53.14942318256729 53.364768357443694 53.54934993590917 53.79545870719648 53.918513092840136 54.072331074894706 54.2876762497711 54.47225782823658 54.65683940670207 54.74913019593481 54.872184581578466 54.99523896722212 55.087529756454856 55.149056949276684 55.179820545687605 55.21058414209851 55.21058414209851 55.24134773850943 55.24134773850943 55.33363852774217 55.395165720563995 55.48745650979674 55.57974729902948 55.67203808826222 55.82585607031679 55.948910455960444 56.13349203442593 56.28731001648049 56.41036440212415 56.53341878776781 56.68723676982238 56.87181834828786 57.02563633034242 57.08716352316425 57.210217908807905 57.33327229445156 57.39479948727339 57.456326680095216 57.48709027650613 57.54861746932796 57.57938106573887 57.61014466214979 57.70243545138253 57.79472624061527 57.917780626258924 58.010071415491666 58.1023622047244 58.22541659036806 58.40999816883354 58.50228895806629 58.59457974729903 58.68687053653177 58.7483977293536 58.779161325764505 58.809924922175426 58.84068851858633 58.87145211499725 58.87145211499725 58.84068851858633 58.87145211499725 58.87145211499725 58.87145211499725 58.87145211499725 58.87145211499725 58.87145211499725 58.87145211499725 58.90221571140816 58.93297930781908 58.96374290422999 58.99450650064091 59.05603369346274 59.117560886284565 59.14832448269547 59.2098516755173 59.27137886833913 59.30214246475004 59.363669657571876 59.45596044680461 59.48672404321553 59.51748763962644 59.579014832448266 59.579014832448266 59.60977842885918 59.60977842885918 59.67130562168101 59.70206921809192 59.70206921809192 59.70206921809192 59.732832814502835 59.732832814502835 59.732832814502835 59.732832814502835 59.732832814502835 59.732832814502835 59.732832814502835 59.732832814502835 59.732832814502835 59.76359641091375 59.79436000732467 59.82512360373558 59.85588720014648 59.886650796557404 59.886650796557404 59.91741439296832 59.94817798937923 59.978941585790146 60.00970518220106 60.040468778611974 60.07123237502289 60.07123237502289 60.07123237502289 60.07123237502289 60.07123237502289 60.07123237502289 60.07123237502289 60.07123237502289 60.07123237502289 60.07123237502289 60.07123237502289 60.07123237502289 60.07123237502289 60.07123237502289 60.07123237502289 60.07123237502289 60.07123237502289 60.1019959714338 60.1019959714338 60.132759567844715 60.132759567844715 60.132759567844715 60.132759567844715 60.1019959714338 60.1019959714338 60.1019959714338 60.132759567844715 60.132759567844715 60.132759567844715 60.1019959714338 60.1019959714338 60.1019959714338 60.1019959714338 60.1019959714338 60.1019959714338 60.1019959714338 60.07123237502289 60.040468778611974 60.00970518220106 60.00970518220106 59.978941585790146 59.978941585790146 59.978941585790146 59.978941585790146 59.94817798937923 59.978941585790146 59.94817798937923 59.94817798937923 59.94817798937923 59.94817798937923 59.94817798937923 59.978941585790146 59.94817798937923 59.94817798937923 59.94817798937923 59.978941585790146 59.94817798937923 59.94817798937923 59.94817798937923 59.94817798937923 59.978941585790146 59.978941585790146 59.94817798937923 59.94817798937923 59.94817798937923 59.94817798937923 59.94817798937923 59.94817798937923 59.978941585790146 59.978941585790146 59.94817798937923 59.94817798937923 59.94817798937923 59.94817798937923 59.94817798937923 59.978941585790146 59.94817798937923 59.94817798937923 59.94817798937923 59.94817798937923 59.978941585790146 59.978941585790146 59.978941585790146 59.978941585790146 59.978941585790146 59.978941585790146 59.978941585790146 59.978941585790146 59.94817798937923 59.94817798937923 59.978941585790146 59.94817798937923 59.978941585790146 59.978941585790146 59.978941585790146 59.978941585790146 59.978941585790146 59.978941585790146 59.978941585790146 59.978941585790146 59.978941585790146 59.978941585790146 59.978941585790146 59.978941585790146 59.978941585790146 59.978941585790146 59.978941585790146 59.978941585790146 59.978941585790146 59.978941585790146 59.978941585790146 59.978941585790146 59.978941585790146 59.94817798937923 59.978941585790146 59.978941585790146 59.978941585790146 59.978941585790146 59.978941585790146 59.978941585790146 59.978941585790146 59.978941585790146 59.978941585790146 59.978941585790146 59.978941585790146 59.978941585790146 59.978941585790146 59.978941585790146 59.978941585790146 59.978941585790146 59.978941585790146 60.00970518220106 60.040468778611974 60.07123237502289 60.07123237502289 60.1019959714338 60.1019959714338 60.132759567844715 60.132759567844715 60.132759567844715 60.132759567844715 60.132759567844715 60.132759567844715 60.132759567844715 60.132759567844715 60.132759567844715 60.1019959714338 60.040468778611974 59.978941585790146 59.91741439296832 59.85588720014648 59.732832814502835 59.70206921809192 59.67130562168101 59.64054202527009 59.60977842885918 59.579014832448266 59.51748763962644 59.48672404321553 59.45596044680461 59.425196850393704 59.39443325398278 59.332906061160955 59.30214246475004 59.30214246475004 59.27137886833913 59.24061527192821 59.24061527192821 59.24061527192821 59.24061527192821 59.24061527192821 59.24061527192821 59.24061527192821 59.24061527192821 59.24061527192821 59.24061527192821 59.24061527192821 59.24061527192821 59.24061527192821 59.24061527192821 59.24061527192821 59.24061527192821 59.24061527192821 59.24061527192821 59.24061527192821 59.24061527192821 59.24061527192821 59.27137886833913 59.27137886833913 59.27137886833913 59.30214246475004 59.30214246475004 59.332906061160955 59.332906061160955 59.332906061160955 59.363669657571876 59.363669657571876 59.39443325398278 59.39443325398278 59.39443325398278 59.39443325398278 59.39443325398278 59.39443325398278 59.425196850393704 59.425196850393704 59.425196850393704 59.425196850393704 59.425196850393704 59.425196850393704 59.425196850393704 59.425196850393704 59.45596044680461 59.45596044680461 59.48672404321553 59.48672404321553 59.48672404321553 59.51748763962644 59.54825123603735 59.579014832448266 59.579014832448266 59.579014832448266 59.60977842885918 59.60977842885918 59.60977842885918 59.60977842885918 59.60977842885918 59.60977842885918 59.60977842885918 59.579014832448266 59.60977842885918 59.60977842885918 59.60977842885918 59.60977842885918 59.60977842885918 59.64054202527009 59.64054202527009 59.67130562168101 59.70206921809192 59.70206921809192 59.732832814502835 59.76359641091375 59.76359641091375 59.79436000732467 59.79436000732467 59.79436000732467 59.79436000732467 59.79436000732467 59.79436000732467 59.79436000732467 59.79436000732467 59.79436000732467 59.79436000732467 59.79436000732467 59.79436000732467 59.79436000732467 59.79436000732467 59.79436000732467 59.79436000732467 59.79436000732467 59.79436000732467 59.79436000732467 59.79436000732467 59.79436000732467 59.79436000732467 59.79436000732467 59.79436000732467 59.79436000732467 59.82512360373558 59.79436000732467 59.79436000732467 59.79436000732467 59.79436000732467 59.79436000732467 59.79436000732467 59.76359641091375 59.76359641091375 59.76359641091375 59.76359641091375 59.76359641091375 59.732832814502835 59.732832814502835 59.732832814502835 59.76359641091375 59.76359641091375 59.76359641091375 59.76359641091375 59.76359641091375 59.76359641091375 59.76359641091375 59.76359641091375 59.76359641091375 59.732832814502835 59.76359641091375 59.76359641091375 59.76359641091375 59.76359641091375 59.732832814502835 59.732832814502835 59.76359641091375 59.76359641091375 59.732832814502835 59.76359641091375 59.76359641091375 59.732832814502835 59.732832814502835 59.76359641091375 59.732832814502835 59.76359641091375 59.732832814502835 59.76359641091375 59.732832814502835 59.76359641091375 59.732832814502835 59.76359641091375 59.732832814502835 59.732832814502835 59.76359641091375 59.732832814502835 59.76359641091375 59.732832814502835 59.76359641091375 59.732832814502835 59.76359641091375 59.732832814502835 59.76359641091375 59.732832814502835 59.70206921809192 59.67130562168101 59.64054202527009 59.60977842885918 59.579014832448266 59.579014832448266 59.54825123603735 59.54825123603735 59.51748763962644 59.51748763962644 59.48672404321553 59.45596044680461 59.39443325398278 59.363669657571876 59.27137886833913 59.17908807910639 59.05603369346274 58.87145211499725 58.7483977293536 58.563816150888115 58.40999816883354 58.28694378318989 58.071598608313494 57.917780626258924 57.763962644204355 57.48709027650613 57.36403589086248 57.14869071598608 56.77952755905512 56.56418238417872 56.225782823658676 55.97967405237136 55.70280168467313 55.395165720563995 55.24134773850943 54.841420985167545 54.5030214246475 54.2876762497711 53.980040285661964 53.73393151437466 53.27247756821095 53.026368796923634 52.78026002563632 52.411096868705364 52.07269730818531 51.826588536898 51.39589818714521 51.18055301226882 50.81138985533785 50.56528108405054 50.56528108405054 50.442226698406884 49.980772752243176 49.73466398095587 49.39626442043581 49.119392052737595 48.81175608862846 48.473356528108404 48.165720563999265 47.95037538912287 47.64273942501373 47.42739425013734 47.15052188243911 46.93517670756272 46.56601355063175 46.31990477934444 46.16608679728987 46.043032411646216 45.91997802600257 45.79692364035891 45.61234206189343 45.45852407983885 45.30470609778429 45.15088811572972 45.05859732649698 44.96630653726424 44.84325215162058 44.59714338033327 44.474088994689616 44.381798205456874 44.25874381981322 44.135689434169564 44.04339864493682 43.92034425929317 43.85881706647134 43.73576268082768 43.64347189159494 43.612708295184035 43.52041750595129 43.39736312030763 43.33583592748581 43.274308734663975 43.21278154184215 43.12049075260941 42.99743636696576 42.93590917414393 42.78209119208936 42.62827321003479 42.53598242080205 42.44369163156931 42.32063724592565 42.197582860282 42.04376487822743 41.9822376854056 41.85918329976195 41.73612891411829 41.67460172129647 41.58231093206372 41.5207837392419 41.42849295000916 41.336202160776416 41.3054385643655 41.21314777513276 41.15162058231093 41.090093389489105 41.05932979307819 40.997802600256364 40.96703900384545 40.87474821461271 40.843984618201794 40.75169382896905 40.65940303973631 40.597875846914484 40.444057864859914 40.413294268449 40.22871268998352 40.07489470792895 39.95184032228529 39.76725874381981 39.674967954587075 39.49038637612159 39.33656839406702 39.24427760483428 39.09045962277971 38.93664164072514 38.81358725508149 38.629005676616 38.53671488738326 38.413660501739606 38.22907892327412 38.167551730452296 38.04449734480864 37.89067936275407 37.798388573521336 37.70609778428859 37.61380699505585 37.521516205823104 37.398461820179456 37.306171030946714 37.18311664530306 37.060062259659404 36.93700787401575 36.78318989196118 36.66013550631752 36.444790331441126 36.26020875297564 36.198681560153815 36.044863578099246 35.82951840322285 35.706464017579194 35.46035524629189 35.337300860648234 35.15271928218275 35.029664896539096 34.99890130012818 34.90661051089544 34.8143197216627 34.75279252884087 34.69126533601904 34.66050173960813 34.5989745467863 34.537447353964474 34.475920161142646 34.44515656473173 34.383629371909905 34.383629371909905 34.32210217908808 34.32210217908808 34.26057498626625 34.16828419703351 34.137520600622594 34.075993407800766 34.01446621497894 33.95293902215711 33.922175425746204 33.860648232924376 33.76835744369163 33.7068302508698 33.67606665445889 33.614539461637065 33.55301226881524 33.49148507599341 33.42995788317158 33.39919428676067 33.33766709393884 33.27613990111701 33.2453763047061 33.18384911188427 33.12232191906244 32.99926753341879 32.906976744186046 32.84544955136422 32.72239516572056 32.59934078007691 32.47628639443325 32.414759201611425 32.32246841237868 32.23017762314594 32.107123237502286 32.07635964109137 31.922541659036806 31.830250869804065 31.768723676982237 31.70719648416041 31.64566929133858 31.614905694927668 31.614905694927668 31.584142098516754 31.55337850210584 31.522614905694926 31.491851309284012 31.430324116462188 31.430324116462188 31.36879692364036 31.338033327229446 31.27650613440762 31.21497894158579 31.153451748763963 31.12268815235305 31.030397363120308 30.999633766709394 30.938106573887566 30.87657938106574 30.845815784654825 30.753524995422083 30.691997802600255 30.630470609778428 30.599707013367514 30.538179820545686 30.507416224134772 30.47665262772386 30.415125434902034 30.38436183849112 30.322834645669293 30.261307452847465 30.261307452847465 30.23054385643655 30.23054385643655 30.199780260025637 30.169016663614723 30.13825306720381 30.13825306720381 30.107489470792896 30.107489470792896 30.07672587438198 30.07672587438198 30.045962277971068 30.045962277971068 30.045962277971068 30.015198681560154 30.015198681560154 30.015198681560154 29.98443508514924 29.98443508514924 29.98443508514924 29.98443508514924 29.98443508514924 29.98443508514924 29.953671488738326 29.953671488738326 29.922907892327412 29.8921442959165 29.861380699505585 29.83061710309467 29.799853506683757 29.73832631386193 29.6767991210401 29.646035524629188 29.646035524629188 29.615271928218274 29.615271928218274 29.58450833180736 29.58450833180736 29.58450833180736 29.553744735396446 29.553744735396446 29.522981138985532 29.49221754257462 29.49221754257462 29.461453946163708 29.430690349752794 29.430690349752794 29.430690349752794 29.430690349752794 29.430690349752794 29.39992675334188 29.39992675334188 29.39992675334188 29.39992675334188 29.39992675334188 29.369163156930966 29.369163156930966 29.369163156930966 29.338399560520052 29.338399560520052 29.30763596410914 29.30763596410914 29.30763596410914 29.30763596410914 29.30763596410914 29.276872367698225 29.276872367698225 29.30763596410914 29.30763596410914 29.276872367698225 29.276872367698225 29.276872367698225 29.276872367698225 29.276872367698225 29.276872367698225 29.276872367698225 29.276872367698225 29.276872367698225 29.276872367698225 29.276872367698225 29.276872367698225 29.276872367698225 29.276872367698225 29.24610877128731 29.24610877128731 29.24610877128731 29.24610877128731 29.24610877128731 29.24610877128731 29.24610877128731 29.24610877128731 29.24610877128731 29.24610877128731 29.24610877128731 29.24610877128731 29.24610877128731 29.24610877128731 29.24610877128731 29.24610877128731 29.24610877128731 29.24610877128731 29.24610877128731 29.24610877128731 29.24610877128731 29.24610877128731 29.24610877128731 29.215345174876397 29.24610877128731 29.24610877128731 29.24610877128731 29.24610877128731 29.24610877128731 29.24610877128731 29.215345174876397 29.24610877128731 29.24610877128731 29.24610877128731 29.24610877128731 29.24610877128731 29.24610877128731 29.215345174876397 29.24610877128731 29.24610877128731 29.24610877128731 29.215345174876397 29.24610877128731 29.215345174876397 29.215345174876397 29.215345174876397 29.215345174876397 29.215345174876397 29.215345174876397 29.215345174876397 29.215345174876397 29.215345174876397 29.215345174876397 29.215345174876397 29.215345174876397 29.215345174876397 29.184581578465483 29.215345174876397 29.184581578465483 29.184581578465483 29.184581578465483 29.184581578465483 29.184581578465483 29.184581578465483 29.184581578465483 29.184581578465483 29.184581578465483 29.184581578465483 29.184581578465483 29.184581578465483 29.184581578465483 29.184581578465483 29.184581578465483 29.184581578465483 29.184581578465483 29.184581578465483 29.184581578465483 29.184581578465483 29.184581578465483 29.184581578465483 29.184581578465483 29.184581578465483 29.184581578465483 29.184581578465483 29.184581578465483 29.184581578465483 29.184581578465483 29.184581578465483 29.184581578465483 29.184581578465483 29.184581578465483 29.184581578465483 29.184581578465483 29.184581578465483 29.184581578465483 29.184581578465483 29.184581578465483 29.184581578465483 29.184581578465483 29.184581578465483 29.184581578465483 29.184581578465483 29.184581578465483 29.184581578465483 29.184581578465483 29.184581578465483 29.184581578465483 29.184581578465483 29.184581578465483 29.184581578465483 29.184581578465483 29.184581578465483 29.184581578465483 29.184581578465483 29.184581578465483 29.184581578465483 29.184581578465483 29.184581578465483 29.184581578465483 29.184581578465483 29.184581578465483 29.184581578465483 29.184581578465483 29.184581578465483 29.184581578465483 29.184581578465483 29.184581578465483 29.184581578465483 29.184581578465483 29.184581578465483 29.184581578465483 29.184581578465483 29.184581578465483 29.184581578465483 29.184581578465483 29.184581578465483 29.184581578465483 29.184581578465483 29.184581578465483 29.184581578465483 29.184581578465483 29.15381798205457 29.15381798205457 29.15381798205457 29.15381798205457 29.15381798205457 29.15381798205457 29.15381798205457 29.15381798205457 29.15381798205457 29.15381798205457 29.15381798205457 29.123054385643655 29.123054385643655 29.123054385643655 29.123054385643655 29.123054385643655 29.123054385643655 29.123054385643655 29.123054385643655 29.123054385643655 29.123054385643655 29.123054385643655 29.123054385643655 29.123054385643655 29.123054385643655 29.123054385643655 29.123054385643655 29.123054385643655 29.123054385643655 29.123054385643655 29.123054385643655 29.123054385643655 29.123054385643655 29.123054385643655 29.123054385643655 29.123054385643655 29.123054385643655 29.123054385643655 29.123054385643655 29.123054385643655 29.123054385643655 29.123054385643655 29.123054385643655 29.123054385643655 29.123054385643655 29.123054385643655 29.123054385643655 29.123054385643655 29.123054385643655 29.123054385643655 29.123054385643655 29.123054385643655 29.123054385643655 29.123054385643655 29.123054385643655 29.123054385643655 29.123054385643655 29.123054385643655 29.123054385643655 29.123054385643655 29.123054385643655 29.123054385643655 29.123054385643655 29.123054385643655 29.123054385643655 29.123054385643655 29.123054385643655 29.123054385643655 29.123054385643655 29.123054385643655 29.123054385643655 29.123054385643655 29.123054385643655 29.123054385643655 29.123054385643655 29.123054385643655 29.123054385643655 29.123054385643655 29.123054385643655 29.123054385643655 29.123054385643655 29.123054385643655 29.123054385643655 29.123054385643655 29.123054385643655 29.123054385643655 29.123054385643655 29.123054385643655 29.123054385643655 29.123054385643655 29.123054385643655 29.123054385643655 29.123054385643655 29.123054385643655 29.123054385643655 29.123054385643655 29.123054385643655 29.123054385643655 29.123054385643655 29.123054385643655 29.123054385643655 29.123054385643655 29.123054385643655 29.123054385643655 29.123054385643655 29.123054385643655 29.123054385643655 29.123054385643655 29.123054385643655 29.123054385643655 29.123054385643655 29.123054385643655 29.123054385643655 29.123054385643655 29.123054385643655 29.123054385643655 29.123054385643655 29.123054385643655 29.123054385643655 29.123054385643655 29.123054385643655 29.123054385643655 29.123054385643655 29.123054385643655 29.123054385643655 29.123054385643655 29.123054385643655 29.123054385643655 29.123054385643655 29.123054385643655 29.123054385643655 29.123054385643655 29.123054385643655 29.123054385643655 29.123054385643655 29.123054385643655 29.123054385643655 29.123054385643655 29.123054385643655 29.123054385643655 29.123054385643655 29.123054385643655 29.09229078923274 29.123054385643655 29.123054385643655 29.123054385643655 29.123054385643655 29.123054385643655 29.123054385643655 29.123054385643655 29.123054385643655 29.123054385643655 29.123054385643655 29.123054385643655 29.123054385643655 29.123054385643655 29.123054385643655 29.123054385643655 29.123054385643655 29.123054385643655 29.123054385643655 29.123054385643655 29.123054385643655 29.123054385643655 29.123054385643655 29.123054385643655 29.123054385643655 29.123054385643655 29.123054385643655 29.123054385643655 29.123054385643655 29.123054385643655 29.123054385643655 29.123054385643655 29.123054385643655 29.123054385643655 29.123054385643655 29.123054385643655 29.123054385643655 29.123054385643655 29.123054385643655 29.123054385643655 29.123054385643655 29.123054385643655 29.123054385643655 29.123054385643655 29.123054385643655 29.123054385643655 29.123054385643655 29.123054385643655 29.123054385643655 29.123054385643655 29.123054385643655 29.123054385643655 29.123054385643655 29.123054385643655 29.123054385643655 29.123054385643655 29.123054385643655 29.123054385643655 29.123054385643655 29.123054385643655 29.123054385643655 29.123054385643655 29.123054385643655 29.123054385643655 29.123054385643655 29.123054385643655 29.123054385643655 29.123054385643655 29.123054385643655 29.123054385643655 29.123054385643655 29.123054385643655 29.123054385643655 29.123054385643655 29.123054385643655 29.123054385643655 29.123054385643655 29.123054385643655 29.123054385643655 29.123054385643655 29.123054385643655 29.123054385643655 29.123054385643655 29.123054385643655 29.123054385643655 29.123054385643655 29.123054385643655 29.123054385643655 29.123054385643655 29.123054385643655 29.123054385643655 29.123054385643655 29.123054385643655 29.123054385643655 29.123054385643655 29.123054385643655 29.123054385643655 29.123054385643655 29.123054385643655 29.123054385643655 29.123054385643655 29.123054385643655 29.123054385643655 29.123054385643655 29.123054385643655 29.123054385643655 29.123054385643655 29.123054385643655 29.123054385643655 29.123054385643655 29.123054385643655 29.123054385643655 29.09229078923274 29.123054385643655 29.123054385643655 29.123054385643655 29.123054385643655 29.09229078923274 29.123054385643655 29.123054385643655 29.123054385643655 29.123054385643655 29.123054385643655 29.123054385643655 29.123054385643655 29.123054385643655 29.123054385643655 29.123054385643655 29.123054385643655 29.123054385643655 29.123054385643655 29.123054385643655 29.123054385643655 29.123054385643655 29.123054385643655 29.123054385643655 29.123054385643655 29.123054385643655 29.123054385643655 29.123054385643655 29.123054385643655 29.123054385643655 29.123054385643655 29.123054385643655 29.123054385643655 29.123054385643655 29.123054385643655 29.123054385643655 29.123054385643655 29.123054385643655 29.123054385643655 29.123054385643655 29.123054385643655 29.123054385643655 29.123054385643655 29.123054385643655 29.123054385643655 29.123054385643655 29.123054385643655 29.123054385643655 29.123054385643655 29.123054385643655 29.123054385643655 29.123054385643655 29.123054385643655 29.123054385643655 29.123054385643655 29.123054385643655 29.123054385643655 29.123054385643655 29.123054385643655 29.123054385643655 29.123054385643655 29.123054385643655 29.123054385643655 29.123054385643655 29.123054385643655 29.123054385643655 29.123054385643655 29.123054385643655 29.123054385643655 29.123054385643655 29.123054385643655 29.123054385643655 29.123054385643655 29.123054385643655 29.123054385643655 29.123054385643655 29.123054385643655 29.123054385643655 29.123054385643655 29.123054385643655 29.123054385643655 29.123054385643655 29.123054385643655 29.123054385643655 29.123054385643655 29.123054385643655 29.123054385643655 29.123054385643655 29.09229078923274 29.123054385643655 29.123054385643655 29.123054385643655 29.123054385643655 29.123054385643655 29.123054385643655 29.123054385643655 29.123054385643655 29.123054385643655 29.123054385643655 29.123054385643655 29.123054385643655 29.123054385643655 29.123054385643655 29.123054385643655 29.123054385643655 29.123054385643655 29.123054385643655 29.123054385643655 29.123054385643655 29.123054385643655 29.123054385643655 29.123054385643655 29.123054385643655 29.123054385643655 29.123054385643655 29.123054385643655 29.123054385643655 29.123054385643655 29.123054385643655 29.123054385643655 29.123054385643655 29.123054385643655 29.123054385643655 29.09229078923274 29.123054385643655 29.123054385643655 29.123054385643655 29.123054385643655 29.123054385643655 29.123054385643655 29.123054385643655 29.123054385643655 29.123054385643655 29.123054385643655 29.123054385643655 29.123054385643655 29.123054385643655 29.123054385643655 29.123054385643655 29.123054385643655 29.123054385643655 29.123054385643655 29.123054385643655 29.123054385643655 29.123054385643655 29.123054385643655 29.123054385643655 29.123054385643655 29.123054385643655 29.123054385643655 29.123054385643655 29.123054385643655 29.123054385643655 29.123054385643655 29.123054385643655 29.123054385643655 29.123054385643655 29.123054385643655 29.123054385643655 29.123054385643655 29.123054385643655 29.123054385643655 29.123054385643655 29.123054385643655 29.123054385643655 29.123054385643655 29.123054385643655 29.123054385643655 29.123054385643655 29.123054385643655 29.123054385643655 29.123054385643655 29.123054385643655 29.123054385643655 29.123054385643655 29.123054385643655 29.123054385643655 29.123054385643655 29.123054385643655 29.123054385643655 29.123054385643655 29.123054385643655 29.123054385643655 29.123054385643655 29.123054385643655 29.123054385643655 29.123054385643655 29.123054385643655 29.123054385643655 29.123054385643655 29.123054385643655 29.123054385643655 29.123054385643655 29.123054385643655 29.123054385643655 29.123054385643655 29.123054385643655 29.123054385643655 29.123054385643655 29.123054385643655 29.123054385643655 29.123054385643655 29.123054385643655 29.123054385643655 29.123054385643655 29.123054385643655 29.123054385643655 29.123054385643655 29.123054385643655 29.123054385643655 29.123054385643655 29.123054385643655 29.123054385643655 29.123054385643655 29.123054385643655 29.123054385643655 29.123054385643655 29.123054385643655 29.123054385643655 29.123054385643655 29.123054385643655 29.123054385643655 29.123054385643655 29.123054385643655 29.123054385643655 29.123054385643655 29.123054385643655 29.123054385643655 29.123054385643655 29.123054385643655 29.123054385643655 29.123054385643655 29.123054385643655 29.123054385643655 29.123054385643655 29.123054385643655 29.123054385643655 29.123054385643655 29.123054385643655 29.123054385643655 29.123054385643655 29.123054385643655 29.123054385643655 29.123054385643655 29.123054385643655 29.123054385643655 29.123054385643655 29.123054385643655 29.123054385643655 29.123054385643655 29.123054385643655 29.123054385643655 29.123054385643655 29.123054385643655 29.123054385643655 29.123054385643655 29.123054385643655 29.123054385643655 29.123054385643655 29.123054385643655 29.123054385643655 29.123054385643655 29.123054385643655 29.123054385643655 29.123054385643655 29.24610877128731 29.369163156930966 29.522981138985532 29.615271928218274 29.769089910272843 29.83061710309467 29.953671488738326 30.015198681560154 30.13825306720381 30.169016663614723 30.261307452847465 30.29207104925838 30.322834645669293 30.353598242080206 30.353598242080206 30.38436183849112 30.415125434902034 30.445889031312948 30.47665262772386 30.538179820545686 30.5689434169566 30.599707013367514 30.630470609778428 30.66123420618934 30.72276139901117 30.753524995422083 30.784288591832997 30.845815784654825 30.87657938106574 30.96887017029848 31.030397363120308 31.153451748763963 31.307269730818533 31.461087712873102 31.64566929133858 31.830250869804065 32.014832448269544 32.19941402673503 32.38399560520051 32.47628639443325 32.59934078007691 32.69163156930965 32.906976744186046 32.99926753341879 33.09155832265153 33.214612708295185 33.33766709393884 33.49148507599341 33.79912104010255 33.983702618568024 34.35286577549899 34.537447353964474 34.8143197216627 35.09119208936092 35.30653726423732 35.583409631935545 35.79875480681194 36.106390770921074 36.444790331441126 36.69089910272844 37.09082585607032 37.42922541659037 37.70609778428859 38.075260941219554 38.35213330891778 38.78282365867057 39.367331990477936 39.674967954587075 40.16718549716169 40.597875846914484 40.936275407434536 41.27467496795458 41.7668925105292 42.22834645669291 42.72056399926753 43.028199963376665 43.48965390954038 44.074162241347736 44.25874381981322 44.627906976744185 44.874015748031496 45.24317890496246 45.52005127266068 45.735396447537084 46.0122688152353 46.25837758652261 46.38143197216627 46.504486357809924 46.62754074345358 46.81212232191906 47.1197582860282 47.27357626808276 47.48892144295917 47.73503021424648 47.91961179271196 48.073429774766524 48.22724775682109 48.50412012451932 48.6887017029848 48.81175608862846 48.99633766709394 49.1501556491485 49.27321003479216 49.427028016846734 49.51931880607947 49.642373191723124 49.82695477018861 49.888481963010435 50.07306354147592 50.16535433070866 50.2576451199414 50.34993590917414 50.380699505585056 50.442226698406884 50.534517487639626 50.56528108405054 50.596044680461446 50.62680827687237 50.65757187328328 50.688335469694195 50.688335469694195 50.688335469694195 50.688335469694195 50.688335469694195 50.688335469694195 50.71909906610511 50.74986266251602 50.78062625892693 50.78062625892693 50.78062625892693 50.81138985533785 50.842153451748764 50.903680644570585 50.903680644570585 50.934444240981506 50.934444240981506 50.96520783739241 50.96520783739241 50.96520783739241 50.96520783739241 50.96520783739241 50.96520783739241 50.96520783739241 50.96520783739241 50.96520783739241 50.96520783739241 50.96520783739241 50.96520783739241 50.96520783739241 50.96520783739241 50.995971433803334 50.995971433803334 50.995971433803334 50.995971433803334 50.995971433803334 51.02673503021424 51.02673503021424 50.995971433803334 51.02673503021424 51.02673503021424 51.05749862662516 51.05749862662516 51.08826222303607 51.08826222303607 51.11902581944699 51.11902581944699 51.18055301226882 51.18055301226882 51.211316608679724 51.211316608679724 51.242080205090645 51.211316608679724 51.242080205090645 51.242080205090645 51.242080205090645 51.242080205090645 51.242080205090645 51.242080205090645 51.242080205090645 51.242080205090645 51.242080205090645 51.242080205090645 51.242080205090645 51.242080205090645 51.242080205090645 51.242080205090645 51.242080205090645 51.242080205090645 51.242080205090645 51.242080205090645 51.242080205090645 51.27284380150155 51.33437099432338 51.3651345907343 51.39589818714521 51.488188976377955 51.51895257278886 51.54971616919978 51.58047976561069 51.58047976561069 51.61124336202161 51.61124336202161 51.61124336202161 51.61124336202161 51.61124336202161 51.61124336202161 51.61124336202161 51.61124336202161 51.61124336202161 51.58047976561069 51.61124336202161 51.61124336202161 51.67277055484343 51.703534151254345 51.73429774766526 51.79582494048709 51.826588536898 51.85735213330892 51.88811572971983 51.91887932613075 51.949642922541656 51.98040651895257 51.98040651895257 51.98040651895257 51.98040651895257 51.98040651895257 51.98040651895257 51.98040651895257 51.98040651895257 51.98040651895257 51.98040651895257 51.98040651895257 51.98040651895257 51.98040651895257 51.98040651895257 51.98040651895257 51.98040651895257 51.98040651895257 51.98040651895257 52.011170115363484 52.0419337117744 52.0419337117744 52.0419337117744 52.07269730818531 52.0419337117744 52.07269730818531 52.0419337117744 52.07269730818531 52.07269730818531 52.07269730818531 52.07269730818531 52.07269730818531 52.07269730818531 52.07269730818531 52.07269730818531 52.07269730818531 52.07269730818531 52.07269730818531 52.07269730818531 52.07269730818531 52.07269730818531 52.07269730818531 52.07269730818531 52.07269730818531 52.07269730818531 52.07269730818531 52.07269730818531 52.07269730818531 52.07269730818531 52.07269730818531 52.07269730818531 52.07269730818531 52.07269730818531 52.07269730818531 52.07269730818531 52.07269730818531 52.07269730818531 52.07269730818531 52.07269730818531 52.07269730818531 52.07269730818531 52.07269730818531 52.07269730818531 52.07269730818531 52.07269730818531 52.07269730818531 52.07269730818531 52.07269730818531 52.07269730818531 52.07269730818531 52.07269730818531 52.07269730818531 52.07269730818531 52.07269730818531 52.07269730818531 52.07269730818531 52.07269730818531 52.07269730818531 52.07269730818531 52.103460904596226 52.103460904596226 52.13422450100714 52.13422450100714 52.13422450100714 52.13422450100714 52.13422450100714 52.13422450100714 52.13422450100714 52.13422450100714 52.13422450100714 52.16498809741805 52.13422450100714 52.13422450100714 52.13422450100714 52.13422450100714 52.13422450100714 52.13422450100714 52.13422450100714 52.13422450100714 52.13422450100714 52.13422450100714 52.13422450100714 52.13422450100714 52.13422450100714 52.13422450100714 52.13422450100714 52.13422450100714 52.13422450100714 52.16498809741805 52.16498809741805 52.13422450100714 52.13422450100714 52.13422450100714 52.13422450100714 52.13422450100714 52.13422450100714 52.13422450100714 52.16498809741805 52.13422450100714 52.16498809741805 52.13422450100714 52.13422450100714 52.13422450100714 52.13422450100714 52.16498809741805 52.13422450100714 52.13422450100714 52.13422450100714 52.16498809741805 52.13422450100714 52.13422450100714 52.13422450100714 52.13422450100714 52.13422450100714 52.13422450100714 52.13422450100714 52.13422450100714 52.13422450100714 52.13422450100714 52.13422450100714 52.13422450100714 52.13422450100714 52.13422450100714 52.13422450100714 52.13422450100714 52.16498809741805 52.16498809741805 52.13422450100714 52.13422450100714 52.13422450100714 52.13422450100714 52.13422450100714 52.13422450100714 52.13422450100714 52.13422450100714 52.13422450100714 52.13422450100714 52.13422450100714 52.13422450100714 52.13422450100714 52.13422450100714 52.13422450100714 52.13422450100714 52.13422450100714 52.13422450100714 52.13422450100714 52.13422450100714 52.13422450100714 52.13422450100714 52.13422450100714 52.13422450100714 52.13422450100714 52.13422450100714 52.13422450100714 52.13422450100714 52.13422450100714 52.13422450100714 52.13422450100714 52.13422450100714 52.13422450100714 52.13422450100714 52.13422450100714 52.13422450100714 52.13422450100714 52.13422450100714 52.13422450100714 52.13422450100714 52.13422450100714 52.13422450100714 52.13422450100714 52.13422450100714 52.13422450100714 52.13422450100714 52.13422450100714 52.13422450100714 52.13422450100714 52.13422450100714 52.13422450100714 52.13422450100714 52.13422450100714 52.13422450100714 52.13422450100714 52.13422450100714 52.13422450100714 52.13422450100714 52.13422450100714 52.13422450100714 52.13422450100714 52.13422450100714 52.13422450100714 52.13422450100714 52.13422450100714 52.13422450100714 52.13422450100714 52.13422450100714 52.13422450100714 52.13422450100714 52.13422450100714 52.13422450100714 52.13422450100714 52.13422450100714 52.13422450100714 52.13422450100714 52.13422450100714 52.13422450100714 52.13422450100714 52.13422450100714 52.13422450100714 52.13422450100714 52.13422450100714 52.13422450100714 52.13422450100714 52.13422450100714 52.13422450100714 52.13422450100714 52.13422450100714 52.13422450100714 52.13422450100714 52.13422450100714 52.13422450100714 52.13422450100714 52.13422450100714 52.13422450100714 52.13422450100714 52.13422450100714 52.16498809741805 52.16498809741805 52.16498809741805 52.16498809741805 52.16498809741805 52.19575169382897 52.22651529023988 52.22651529023988 52.257278886650795 52.257278886650795 52.257278886650795 52.257278886650795 52.288042483061716 52.257278886650795 52.257278886650795 52.257278886650795 52.257278886650795 52.257278886650795 52.257278886650795 52.257278886650795 52.257278886650795 52.257278886650795 52.257278886650795 52.257278886650795 52.257278886650795 52.257278886650795 52.257278886650795 52.257278886650795 52.288042483061716 52.288042483061716 52.288042483061716 52.288042483061716 52.288042483061716 52.288042483061716 52.31880607947262 52.288042483061716 52.288042483061716 52.288042483061716 52.288042483061716 52.288042483061716 52.257278886650795 52.257278886650795 52.22651529023988 52.19575169382897 52.13422450100714 52.0419337117744 51.91887932613075 51.79582494048709 51.67277055484343 51.488188976377955 51.30360739791247 51.02673503021424 50.87291704815968 50.71909906610511 50.56528108405054 50.31917231276323 50.134590734297745 49.79619117377769 49.642373191723124 49.39626442043581 49.18091924555942 48.99633766709394 48.84251968503936 48.565647317341146 48.411829335286576 48.19648416041018 48.04266617835561 47.7965574070683 47.5812122321919 47.42739425013734 47.212049075260936 47.02746749679545 46.84288591832997 46.62754074345358 46.442959164988096 46.2276139901117 45.85845083318073 45.643105658304336 45.427760483427946 45.21241530855154 44.90477934444241 44.59714338033327 44.35103460904596 44.04339864493682 43.79728987364952 43.612708295184035 43.42812671671855 43.24354513825307 42.966672770554844 42.72056399926753 42.53598242080205 42.22834645669291 41.9822376854056 41.7668925105292 41.55154733565281 41.36696575718733 41.12085698590002 40.87474821461271 40.690166636147225 40.47482146127083 40.25947628639443 40.136421900750776 39.95184032228529 39.79802234023072 39.644204358176154 39.428859183299764 39.30580479765611 39.15198681560154 38.99816883354697 38.90587804431423 38.78282365867057 38.65976927302692 38.53671488738326 38.413660501739606 38.321369712506865 38.19831532686321 38.013733748397726 37.9522065555759 37.82915216993224 37.70609778428859 37.552279802234025 37.398461820179456 37.2754074345358 37.060062259659404 36.906244277604834 36.81395348837209 36.69089910272844 36.56784471708478 36.352499542208385 36.22944515656473 36.13715436733199 36.106390770921074 36.106390770921074 36.01409998168833 35.9218091924556 35.82951840322285 35.737227613990115 35.61417322834646 35.55264603552463 35.39882805347006 35.337300860648234 35.15271928218275 35.06042849295001 34.99890130012818 34.87584691448453 34.75279252884087 34.69126533601904 34.537447353964474 34.44515656473173 34.35286577549899 34.229811389855335 34.19904779344442 34.075993407800766 34.01446621497894 33.922175425746204 33.860648232924376 33.829884636513455 33.76835744369163 33.73759384728072 33.7068302508698 33.64530305804798 33.58377586522615 33.55301226881524 33.522248672404324 33.460721479582496 33.42995788317158 33.33766709393884 33.30690349752793 33.27613990111701 33.18384911188427 33.12232191906244 33.0300311298297 32.968503937007874 32.84544955136422 32.75315876213148 32.72239516572056 32.63010437648782 32.53781358725508 32.507049990844166 32.44552279802234 32.414759201611425 32.32246841237868 32.29170481596777 32.260941219556855 32.19941402673503 32.168650430324114 32.1378868339132 32.107123237502286 32.07635964109137 32.04559604468046 31.984068851858634 31.95330525544772 31.891778062625892 31.830250869804065 31.768723676982237 31.64566929133858 31.584142098516754 31.522614905694926 31.461087712873102 31.430324116462188 31.36879692364036 31.307269730818533 31.21497894158579 31.153451748763963 31.091924555942136 31.06116095953122 31.06116095953122 31.030397363120308 30.999633766709394 30.999633766709394 30.96887017029848 30.96887017029848 30.938106573887566 30.907342977476652 30.907342977476652 30.87657938106574 30.81505218824391 30.784288591832997 30.72276139901117 30.66123420618934 30.630470609778428 30.5689434169566 30.47665262772386 30.38436183849112 30.322834645669293 30.23054385643655 30.169016663614723 30.107489470792896 30.07672587438198 30.015198681560154 30.015198681560154 29.98443508514924 29.953671488738326 29.953671488738326 29.953671488738326 29.922907892327412 29.922907892327412 29.8921442959165 29.861380699505585 29.8921442959165 29.861380699505585 29.8921442959165 29.861380699505585 29.83061710309467 29.83061710309467 29.83061710309467 29.83061710309467 29.83061710309467 29.83061710309467 29.83061710309467 29.799853506683757 29.769089910272843 29.769089910272843 29.73832631386193 29.73832631386193 29.707562717451015 29.707562717451015 29.6767991210401 29.6767991210401 29.6767991210401 29.646035524629188 29.58450833180736 29.553744735396446 29.522981138985532 29.49221754257462 29.461453946163708 29.39992675334188 29.369163156930966 29.30763596410914 29.30763596410914 29.276872367698225 29.276872367698225 29.276872367698225 29.276872367698225 29.276872367698225 29.276872367698225 29.276872367698225 29.276872367698225 29.276872367698225 29.276872367698225 29.276872367698225 29.276872367698225 29.276872367698225 29.24610877128731 29.24610877128731 29.276872367698225 29.276872367698225 29.24610877128731 29.24610877128731 29.24610877128731 29.24610877128731 29.215345174876397 29.215345174876397 29.215345174876397 29.215345174876397 29.184581578465483 29.184581578465483 29.184581578465483 29.184581578465483 29.184581578465483 29.184581578465483 29.184581578465483 29.184581578465483 29.184581578465483 29.184581578465483 29.184581578465483 29.184581578465483 29.184581578465483 29.184581578465483 29.15381798205457 29.15381798205457 29.184581578465483 29.184581578465483 29.184581578465483 29.15381798205457 29.15381798205457 29.15381798205457 29.15381798205457 29.15381798205457 29.15381798205457 29.15381798205457 29.15381798205457 29.15381798205457 29.15381798205457 29.15381798205457 29.15381798205457 29.15381798205457 29.123054385643655 29.123054385643655 29.123054385643655 29.123054385643655 29.123054385643655 29.123054385643655 29.123054385643655 29.123054385643655 29.123054385643655 29.123054385643655 29.123054385643655 29.123054385643655 29.123054385643655 29.123054385643655 29.123054385643655 29.123054385643655 29.123054385643655 29.09229078923274 29.09229078923274 29.09229078923274 29.09229078923274 29.061527192821828 29.061527192821828 29.061527192821828 29.061527192821828 29.061527192821828 29.061527192821828 29.061527192821828 29.061527192821828 29.061527192821828 29.030763596410914 29.061527192821828 29.030763596410914 29.030763596410914 29.030763596410914 29.030763596410914 29.030763596410914 29.030763596410914 29.030763596410914 29.030763596410914 29.030763596410914 29.030763596410914 29.030763596410914 29.030763596410914 29.030763596410914 29.030763596410914 29.030763596410914 29.030763596410914 29.030763596410914 29.030763596410914 29.030763596410914 29.030763596410914 29.030763596410914 29.030763596410914 29.030763596410914 29.030763596410914 29.0 29.030763596410914 29.0 29.0 29.0 29.0 29.030763596410914 29.0 29.0 29.0 29.0 29.0 29.0 29.0 29.0 29.0 29.0 29.0 29.0 29.030763596410914 29.0 29.0 29.0 29.030763596410914 29.0 29.0 29.0 29.030763596410914 29.0 29.0 29.0 29.0 29.0 29.030763596410914 29.0 29.0 29.0 29.0 29.0 29.0 29.0 29.0 29.030763596410914 29.0 29.0 29.0 29.0 29.0 29.0 29.0 29.0 29.030763596410914 29.0 29.0 29.0 29.0 29.0 29.0 29.0 29.0 29.0 29.0 29.0 29.0 29.0 29.030763596410914 29.0 29.0 29.0 29.0 29.0 29.0 29.0 29.0 29.030763596410914 29.0 29.030763596410914 29.0 29.0 29.0 29.0 29.0 29.0 29.0 29.0 29.0 29.030763596410914 29.0 29.0 29.0 29.0 29.030763596410914 29.0 29.0 29.0 29.0 29.0 29.0 29.0 29.0 29.0 29.0 29.0 29.0 29.0 29.0 29.0 29.0 29.0 29.0 29.0 29.0 29.0 29.0 29.0 29.0 29.0 29.0 29.0 29.0 29.0 29.0 29.0 29.0 29.0 29.0 29.0 29.0 29.0 29.0 29.0 29.0 29.0 29.0 29.0 29.0 29.0 29.0 29.0 29.0 29.0 29.0 29.0 29.0 29.0 29.0 29.0 29.0 29.0 29.0 29.0 29.0 29.0 29.0 29.030763596410914 29.0 29.0 29.0 29.0 29.0 29.0 29.0 29.0 29.0 29.0 29.0 29.0 29.0 29.0 29.0 29.0 29.0 29.0 29.0 29.0 29.0 29.0 29.0 29.0 29.0 29.030763596410914 29.0 29.0 29.0 29.0 29.0 29.030763596410914 29.0 29.030763596410914 29.0 29.0 29.0 29.030763596410914 29.0 29.0 29.0 29.030763596410914 29.0 29.0 29.0 29.0 29.0 29.0 29.0 29.0 29.0 29.0 29.030763596410914 29.0 29.0 29.0 29.0 29.0 29.0 29.0 29.0 29.0 29.0 29.0 29.0 29.0 29.0 29.0 29.030763596410914 29.0 29.0 29.0 29.0 29.0 29.0 29.0 29.0 29.0 29.0 29.0 29.0 29.0 29.0 29.0 29.0 29.030763596410914 29.0 29.0 29.0 29.0 29.0 29.0 29.0 29.0 29.0 29.0 29.0 29.0 29.0 29.0 29.0 29.0 29.0 29.0 29.0 29.0 29.030763596410914 29.030763596410914 29.0 29.0 29.030763596410914 29.0 29.0 29.0 29.0 29.0 29.0 29.0 29.0 29.0 29.0 29.0 29.0 29.0 29.0 29.0 29.0 29.0 29.0 29.0 29.0 29.0 29.0 29.0 29.0 29.0 29.0 29.0 29.0 29.0 29.0 29.0 29.0 29.0 29.0 29.030763596410914 29.0 29.0 29.0 29.0 29.0 29.0 29.0 29.0 29.0 29.0 29.0 29.0 29.030763596410914 29.0 29.030763596410914 29.0 29.0 29.030763596410914 29.0 29.0 29.030763596410914 29.030763596410914 29.0 29.0 29.0 29.030763596410914 29.0 29.0 29.0 29.0 29.0 29.0 29.0 29.0 29.0 29.030763596410914 29.0 29.0 29.0 29.0 29.030763596410914 29.0 29.0 29.0 29.0 29.0 29.0 29.0 29.0 29.0 29.0 29.0 29.0 29.0 29.0 29.0 29.0 29.0 29.0 29.0 29.0 29.030763596410914 29.0 29.0 29.030763596410914 29.030763596410914 29.0 29.0 29.0 29.0 29.0 29.0 29.0 29.0 29.0 29.030763596410914 29.0 29.0 29.0 29.0 29.0 29.030763596410914 29.0 29.0 29.0 29.0 29.0 29.0 29.0 29.030763596410914 29.0 29.0 29.0 29.030763596410914 29.0 29.0 29.0 29.0 29.0 29.0 29.0 29.0 29.0 29.0 29.0 29.0 29.0 29.0 29.0 29.0 28.969236403589086 28.969236403589086 28.969236403589086 29.0 28.969236403589086 28.969236403589086 28.969236403589086 28.969236403589086 28.969236403589086 28.969236403589086 28.969236403589086 28.969236403589086 28.969236403589086 28.969236403589086 28.969236403589086 28.969236403589086 28.969236403589086 29.0 28.969236403589086 28.969236403589086 29.0 28.969236403589086 28.969236403589086 28.969236403589086 28.969236403589086 28.969236403589086 28.969236403589086 28.969236403589086 28.969236403589086 28.969236403589086 28.969236403589086 28.969236403589086 28.969236403589086 28.969236403589086 28.969236403589086 28.969236403589086 28.969236403589086 28.969236403589086 28.969236403589086 28.969236403589086 28.969236403589086 28.969236403589086 28.969236403589086 28.969236403589086 28.969236403589086 28.969236403589086 28.969236403589086 28.969236403589086 28.969236403589086 28.969236403589086 28.969236403589086 28.969236403589086 28.969236403589086 28.969236403589086 28.969236403589086 28.969236403589086 28.969236403589086 28.969236403589086 28.969236403589086 28.969236403589086 28.969236403589086 28.969236403589086 29.0 28.969236403589086 28.969236403589086 28.969236403589086 28.969236403589086 28.969236403589086 28.969236403589086 28.969236403589086 28.969236403589086 28.969236403589086 28.969236403589086 28.969236403589086 28.969236403589086 28.969236403589086 28.969236403589086 28.969236403589086 28.969236403589086 28.969236403589086 28.969236403589086 28.969236403589086 28.969236403589086 28.969236403589086 28.969236403589086 28.969236403589086 28.969236403589086 28.969236403589086 28.969236403589086 28.969236403589086 28.969236403589086 28.969236403589086 28.969236403589086 28.969236403589086 28.969236403589086 28.969236403589086 28.969236403589086 28.969236403589086 28.969236403589086 28.969236403589086 28.969236403589086 28.969236403589086 28.969236403589086 28.969236403589086 28.969236403589086 28.969236403589086 28.969236403589086 28.969236403589086 28.969236403589086 28.969236403589086 28.969236403589086 28.969236403589086 28.969236403589086 28.969236403589086 28.969236403589086 28.969236403589086 28.969236403589086 28.969236403589086 28.969236403589086 28.969236403589086 28.969236403589086 28.969236403589086 28.969236403589086 28.969236403589086 28.969236403589086 28.969236403589086 28.969236403589086 28.969236403589086 28.969236403589086 28.969236403589086 28.969236403589086 28.969236403589086 28.969236403589086 28.969236403589086 28.969236403589086 28.969236403589086 28.969236403589086 28.969236403589086 28.969236403589086 28.969236403589086 28.969236403589086 28.969236403589086 28.969236403589086 28.969236403589086 28.969236403589086 28.969236403589086 28.969236403589086 28.969236403589086 28.969236403589086 28.969236403589086 28.969236403589086 28.969236403589086 28.969236403589086 28.969236403589086 28.969236403589086 29.0 28.969236403589086 28.969236403589086 28.969236403589086 28.969236403589086 28.969236403589086 28.969236403589086 28.969236403589086 28.969236403589086 28.969236403589086 28.969236403589086 28.969236403589086 28.969236403589086 28.969236403589086 28.969236403589086 28.969236403589086 28.969236403589086 28.969236403589086 28.969236403589086 28.969236403589086 28.969236403589086 28.969236403589086 28.969236403589086 28.969236403589086 28.969236403589086 28.969236403589086 28.969236403589086 28.969236403589086 28.969236403589086 28.969236403589086 28.969236403589086 29.0 28.969236403589086 28.969236403589086 28.969236403589086 28.969236403589086 28.969236403589086 28.969236403589086 28.969236403589086 28.969236403589086 28.969236403589086 28.969236403589086 28.969236403589086 28.969236403589086 28.969236403589086 28.969236403589086 28.969236403589086 28.969236403589086 28.969236403589086 28.969236403589086 28.969236403589086 28.969236403589086 29.0 28.969236403589086 28.969236403589086 28.969236403589086 28.969236403589086 28.969236403589086 28.969236403589086 29.0 28.969236403589086 29.0 28.969236403589086 28.969236403589086 28.969236403589086 28.969236403589086 29.0 28.969236403589086 29.0 29.0 29.0 28.969236403589086 29.0 29.0 28.969236403589086 29.0 29.0 29.030763596410914 29.061527192821828 29.09229078923274 29.123054385643655 29.15381798205457 29.184581578465483 29.215345174876397 29.24610877128731 29.30763596410914 29.461453946163708 29.58450833180736 29.6767991210401 29.799853506683757 29.861380699505585 29.953671488738326 30.13825306720381 30.169016663614723 30.261307452847465 30.29207104925838 30.353598242080206 30.38436183849112 30.445889031312948 30.47665262772386 30.47665262772386 30.507416224134772 30.538179820545686 30.5689434169566 30.599707013367514 30.630470609778428 30.630470609778428 30.691997802600255 30.784288591832997 30.845815784654825 30.96887017029848 31.06116095953122 31.153451748763963 31.245742537996705 31.399560520051274 31.614905694927668 31.922541659036806 32.04559604468046 32.260941219556855 32.47628639443325 32.63010437648782 32.814685954953305 32.968503937007874 33.09155832265153 33.214612708295185 33.33766709393884 33.49148507599341 33.64530305804798 33.829884636513455 33.95293902215711 34.10675700421168 34.19904779344442 34.32210217908808 34.41439296832082 34.5989745467863 34.84508331807361 34.99890130012818 35.12195568577184 35.24501007141549 35.39882805347006 35.583409631935545 35.737227613990115 35.89104559604468 36.106390770921074 36.32173594579747 36.53708112067387 36.78318989196118 37.060062259659404 37.33693462735763 37.521516205823104 37.73686138069951 37.98297015198681 38.167551730452296 38.38289690532869 38.567478483794176 38.81358725508149 39.0596960263688 39.24427760483428 39.45962277971067 39.70573155099798 39.921076725874386 40.16718549716169 40.32100347921626 40.56711225050357 40.75169382896905 40.936275407434536 41.090093389489105 41.243911371543675 41.42849295000916 41.61307452847464 41.7668925105292 41.92071049258377 42.105292071049256 42.22834645669291 42.44369163156931 42.59750961362388 42.812854788500275 43.028199963376665 43.15125434902033 43.366599523896724 43.581944698773114 43.828053470060425 44.01263504852591 44.16645303058048 44.35103460904596 44.627906976744185 44.75096136238784 44.874015748031496 45.181651712140635 45.3354696941952 45.52005127266068 45.67386925471526 45.88921442959165 46.104559604468044 46.25837758652261 46.53524995422084 46.750595129097235 46.904413111151804 47.15052188243911 47.304339864493684 47.67350302142465 47.91961179271196 48.104193371177445 48.319538546053835 48.59641091375206 48.93481047427211 49.27321003479216 49.48855520966856 49.82695477018861 50.134590734297745 50.380699505585056 50.688335469694195 51.02673503021424 51.30360739791247 51.51895257278886 51.73429774766526 51.98040651895257 52.34956967588353 52.53415125434902 52.65720563999267 52.87255081486907 53.026368796923634 53.21095037538912 53.27247756821095 53.48782274308734 53.610877128731005 53.70316791796374 53.76469511078557 53.85698590001831 53.980040285661964 54.16462186412745 54.25691265336019 54.379967039003844 54.53378502105841 54.626075810291155 54.77989379234572 54.872184581578466 54.99523896722212 55.149056949276684 55.24134773850943 55.395165720563995 55.54898370261857 55.641274491851306 55.73356528108405 55.76432887749496 55.85661966672771 55.91814685954953 55.97967405237136 56.041201245193186 56.10272843801501 56.13349203442593 56.16425563083684 56.195019227247755 56.225782823658676 56.31807361289141 56.31807361289141 56.37960080571324 56.441127998535066 56.441127998535066 56.502655191356894 56.53341878776781 56.62570957700055 56.718000366233284 56.748763962644205 56.81029115546603 56.87181834828786 56.90258194469877 56.994872733931516 57.056399926753336 57.117927119575164 57.14869071598608 57.179454312397 57.179454312397 57.179454312397 57.179454312397 57.179454312397 57.179454312397 57.179454312397 57.179454312397 57.179454312397 57.179454312397 57.179454312397 57.179454312397 57.179454312397 57.179454312397 57.179454312397 57.179454312397 57.14869071598608 57.14869071598608 57.14869071598608 57.14869071598608 57.14869071598608 57.14869071598608 57.14869071598608 57.14869071598608 57.14869071598608 57.14869071598608 57.14869071598608 57.14869071598608 57.14869071598608 57.14869071598608 57.14869071598608 57.14869071598608 57.14869071598608 57.14869071598608 57.14869071598608 57.14869071598608 57.14869071598608 57.14869071598608 57.14869071598608 57.14869071598608 57.14869071598608 57.14869071598608 57.14869071598608 57.117927119575164 57.14869071598608 57.117927119575164 57.14869071598608 57.14869071598608 57.117927119575164 57.117927119575164 57.08716352316425 57.08716352316425 57.08716352316425 57.08716352316425 57.08716352316425 57.08716352316425 57.08716352316425 57.08716352316425 57.08716352316425 57.056399926753336 57.056399926753336 57.056399926753336 57.02563633034242 56.994872733931516 56.964109137520595 56.93334554110969 56.93334554110969 56.93334554110969 56.93334554110969 56.93334554110969 56.93334554110969 56.93334554110969 56.93334554110969 56.90258194469877 56.87181834828786 56.841054751876946 56.81029115546603 56.81029115546603 56.81029115546603 56.81029115546603 56.81029115546603 56.77952755905512 56.77952755905512 56.748763962644205 56.748763962644205 56.718000366233284 56.718000366233284 56.68723676982238 56.68723676982238 56.656473173411456 56.656473173411456 56.62570957700055 56.62570957700055 56.59494598058963 56.59494598058963 56.59494598058963 56.59494598058963 56.56418238417872 56.56418238417872 56.56418238417872 56.53341878776781 56.502655191356894 56.47189159494598 56.441127998535066 56.441127998535066 56.441127998535066 56.441127998535066 56.441127998535066 56.41036440212415 56.441127998535066 56.41036440212415 56.441127998535066 56.41036440212415 56.37960080571324 56.37960080571324 56.37960080571324 56.37960080571324 56.37960080571324 56.37960080571324 56.37960080571324 56.37960080571324 56.37960080571324 56.37960080571324 56.37960080571324 56.348837209302324 56.31807361289141 56.28731001648049 56.28731001648049 56.28731001648049 56.25654642006958 56.25654642006958 56.25654642006958 56.25654642006958 56.28731001648049 56.25654642006958 56.28731001648049 56.25654642006958 56.25654642006958 56.28731001648049 56.28731001648049 56.28731001648049 56.28731001648049 56.28731001648049 56.28731001648049 56.25654642006958 56.25654642006958 56.25654642006958 56.25654642006958 56.25654642006958 56.25654642006958 56.25654642006958 56.28731001648049 56.28731001648049 56.28731001648049 56.28731001648049 56.28731001648049 56.28731001648049 56.28731001648049 56.28731001648049 56.28731001648049 56.28731001648049 56.28731001648049 56.31807361289141 56.28731001648049 56.31807361289141 56.28731001648049 56.31807361289141 56.31807361289141 56.31807361289141 56.31807361289141 56.31807361289141 56.31807361289141 56.31807361289141 56.31807361289141 56.31807361289141 56.31807361289141 56.31807361289141 56.31807361289141 56.31807361289141 56.31807361289141 56.31807361289141 56.31807361289141 56.31807361289141 56.31807361289141 56.31807361289141 56.31807361289141 56.31807361289141 56.31807361289141 56.31807361289141 56.31807361289141 56.28731001648049 56.28731001648049 56.28731001648049 56.28731001648049 56.28731001648049 56.28731001648049 56.28731001648049 56.28731001648049 56.28731001648049 56.28731001648049 56.28731001648049 56.28731001648049 56.28731001648049 56.28731001648049 56.28731001648049 56.28731001648049 56.28731001648049 56.28731001648049 56.28731001648049 56.28731001648049 56.28731001648049 56.28731001648049 56.28731001648049 56.28731001648049 56.28731001648049 56.28731001648049 56.28731001648049 56.28731001648049 56.25654642006958 56.25654642006958 56.25654642006958 56.25654642006958 56.25654642006958 56.25654642006958 56.25654642006958 56.25654642006958 56.25654642006958 56.25654642006958 56.25654642006958 56.25654642006958 56.25654642006958 56.25654642006958 56.25654642006958 56.25654642006958 56.25654642006958 56.25654642006958 56.25654642006958 56.225782823658676 56.225782823658676 56.225782823658676 56.225782823658676 56.225782823658676 56.225782823658676 56.195019227247755 56.225782823658676 56.225782823658676 56.225782823658676 56.225782823658676 56.195019227247755 56.225782823658676 56.225782823658676 56.195019227247755 56.195019227247755 56.16425563083684 56.13349203442593 56.10272843801501 56.0719648416041 56.0719648416041 56.041201245193186 56.01043764878227 55.97967405237136 55.97967405237136 55.97967405237136 55.97967405237136 55.97967405237136 55.97967405237136 55.97967405237136 55.97967405237136 55.97967405237136 55.97967405237136 55.97967405237136 55.97967405237136 56.01043764878227 56.01043764878227 56.041201245193186 56.041201245193186 56.041201245193186 56.041201245193186 56.041201245193186 56.041201245193186 56.041201245193186 56.041201245193186 56.041201245193186 56.041201245193186 56.01043764878227 56.041201245193186 56.041201245193186 56.041201245193186 56.041201245193186 56.041201245193186 56.01043764878227 56.01043764878227 56.041201245193186 56.041201245193186 56.041201245193186 56.041201245193186 56.01043764878227 56.041201245193186 56.041201245193186 56.041201245193186 56.01043764878227 56.01043764878227 56.01043764878227 56.01043764878227 56.041201245193186 56.01043764878227 56.01043764878227 56.01043764878227 56.01043764878227 56.01043764878227 56.01043764878227 56.041201245193186 56.041201245193186 56.01043764878227 56.01043764878227 56.01043764878227 56.01043764878227 56.041201245193186 56.01043764878227 56.01043764878227 56.041201245193186 56.01043764878227 56.041201245193186 56.01043764878227 56.01043764878227 56.01043764878227 56.01043764878227 56.01043764878227 55.97967405237136 55.97967405237136 55.948910455960444 55.91814685954953 55.85661966672771 55.79509247390588 55.76432887749496 55.67203808826222 55.54898370261857 55.48745650979674 55.395165720563995 55.30287493133125 55.179820545687605 55.026002563633035 54.841420985167545 54.59531221388024 54.379967039003844 54.226149056949275 54.072331074894706 53.94927668925105 53.70316791796374 53.518586339498256 53.3955319538546 53.18018677897821 52.99560520051273 52.84178721845816 52.59567844717085 52.411096868705364 52.13422450100714 51.79582494048709 51.58047976561069 51.242080205090645 50.903680644570585 50.56528108405054 50.34993590917414 50.19611792711957 49.95000915583226 49.70390038454495 49.55008240249039 49.24244643838125 48.99633766709394 48.873283281450284 48.719465299395715 48.59641091375206 48.28877494964292 48.165720563999265 47.95037538912287 47.70426661783556 47.45815784654825 47.304339864493684 46.996703900384546 46.81212232191906 46.504486357809924 46.16608679728987 45.91997802600257 45.643105658304336 45.427760483427946 45.12012451931881 44.72019776597693 44.474088994689616 44.227980223402305 43.92034425929317 43.5511811023622 43.305072331074896 43.058963559787585 42.62827321003479 42.32063724592565 42.07452847463834 41.85918329976195 41.55154733565281 41.36696575718733 41.12085698590002 40.936275407434536 40.690166636147225 40.413294268449 40.25947628639443 40.044131111518034 39.82878593664164 39.70573155099798 39.5211499725325 39.39809558688884 39.275041201245195 39.121223219190625 38.967405237136056 38.81358725508149 38.65976927302692 38.53671488738326 38.321369712506865 38.19831532686321 38.013733748397726 37.82915216993224 37.67533418787768 37.521516205823104 37.33693462735763 37.18311664530306 37.02929866324849 36.96777147042666 36.84471708478301 36.752426295550265 36.72166269913935 36.62937190990661 36.53708112067387 36.444790331441126 36.32173594579747 36.22944515656473 36.106390770921074 36.01409998168833 35.98333638527742 35.9218091924556 35.82951840322285 35.737227613990115 35.583409631935545 35.491118842702804 35.337300860648234 35.183482878593665 35.09119208936092 34.937374107306354 34.87584691448453 34.783556125251785 34.69126533601904 34.629738143197216 34.537447353964474 34.41439296832082 34.35286577549899 34.32210217908808 34.29133858267716 34.26057498626625 34.19904779344442 34.137520600622594 34.10675700421168 34.04522981138985 34.01446621497894 33.983702618568024 33.95293902215711 33.922175425746204 33.860648232924376 33.829884636513455 33.76835744369163 33.76835744369163 33.7068302508698 33.7068302508698 33.67606665445889 33.614539461637065 33.58377586522615 33.55301226881524 33.49148507599341 33.460721479582496 33.42995788317158 33.39919428676067 33.368430690349754 33.33766709393884 33.27613990111701 33.2453763047061 33.18384911188427 33.12232191906244 33.09155832265153 33.060794726240616 32.99926753341879 32.906976744186046 32.84544955136422 32.814685954953305 32.72239516572056 32.660867972898735 32.59934078007691 32.507049990844166 32.44552279802234 32.38399560520051 32.32246841237868 32.260941219556855 32.19941402673503 32.1378868339132 32.107123237502286 32.04559604468046 31.984068851858634 31.891778062625892 31.86101446621498 31.830250869804065 31.768723676982237 31.737960080571323 31.70719648416041 31.676432887749495 31.64566929133858 31.614905694927668 31.584142098516754 31.522614905694926 31.461087712873102 31.430324116462188 31.36879692364036 31.27650613440762 31.21497894158579 31.12268815235305 31.06116095953122 31.030397363120308 30.999633766709394 30.96887017029848 30.938106573887566 30.907342977476652 30.87657938106574 30.81505218824391 30.784288591832997 30.72276139901117 30.630470609778428 30.5689434169566 30.507416224134772 30.445889031312948 30.38436183849112 30.322834645669293 30.261307452847465 30.23054385643655 30.199780260025637 30.169016663614723 30.169016663614723 30.13825306720381 30.13825306720381 30.107489470792896 30.107489470792896 30.07672587438198 30.07672587438198 30.045962277971068 30.015198681560154 30.015198681560154 29.98443508514924 29.98443508514924 29.98443508514924 29.98443508514924 29.953671488738326 29.953671488738326 29.953671488738326 29.953671488738326 29.922907892327412 29.922907892327412 29.8921442959165 29.8921442959165 29.861380699505585 29.861380699505585 29.83061710309467 29.83061710309467 29.83061710309467 29.83061710309467 29.83061710309467 29.83061710309467 29.83061710309467 29.83061710309467 29.83061710309467 29.83061710309467 29.83061710309467 29.799853506683757 29.83061710309467 29.83061710309467 29.83061710309467 29.799853506683757 29.769089910272843 29.769089910272843 29.769089910272843 29.769089910272843 29.769089910272843 29.73832631386193 29.73832631386193 29.73832631386193 29.707562717451015 29.707562717451015 29.6767991210401 29.646035524629188 29.58450833180736 29.553744735396446 29.522981138985532 29.522981138985532 29.49221754257462 29.49221754257462 29.49221754257462 29.461453946163708 29.461453946163708 29.461453946163708 29.430690349752794 29.430690349752794 29.430690349752794 29.430690349752794 29.39992675334188 29.39992675334188 29.39992675334188 29.39992675334188 29.39992675334188 29.39992675334188 29.39992675334188 29.39992675334188 29.369163156930966 29.369163156930966 29.369163156930966 29.369163156930966 29.369163156930966 29.369163156930966 29.369163156930966 29.369163156930966 29.369163156930966 29.369163156930966 29.369163156930966 29.369163156930966 29.369163156930966 29.369163156930966 29.338399560520052 29.338399560520052 29.338399560520052 29.338399560520052 29.338399560520052 29.338399560520052 29.338399560520052 29.338399560520052 29.30763596410914 29.30763596410914 29.338399560520052 29.338399560520052 29.30763596410914 29.338399560520052 29.30763596410914 29.30763596410914 29.338399560520052 29.30763596410914 29.30763596410914 29.30763596410914 29.30763596410914 29.30763596410914 29.30763596410914 29.30763596410914 29.30763596410914 29.30763596410914 29.30763596410914 29.338399560520052 29.30763596410914 29.30763596410914 29.30763596410914 29.30763596410914 29.30763596410914 29.30763596410914 29.30763596410914 29.30763596410914 29.30763596410914 29.338399560520052 29.30763596410914 29.338399560520052 29.30763596410914 29.338399560520052 29.30763596410914 29.30763596410914 29.30763596410914 29.30763596410914 29.30763596410914 29.30763596410914 29.30763596410914 29.30763596410914 29.30763596410914 29.30763596410914 29.30763596410914 29.30763596410914 29.30763596410914 29.30763596410914 29.30763596410914 29.30763596410914 29.30763596410914 29.30763596410914 29.30763596410914 29.30763596410914 29.30763596410914 29.30763596410914 29.30763596410914 29.30763596410914 29.30763596410914 29.30763596410914 29.30763596410914 29.30763596410914 29.30763596410914 29.30763596410914 29.30763596410914 29.30763596410914 29.30763596410914 29.30763596410914 29.30763596410914 29.30763596410914 29.30763596410914 29.30763596410914 29.30763596410914 29.30763596410914 29.30763596410914 29.30763596410914 29.30763596410914 29.30763596410914 29.30763596410914 29.30763596410914 29.30763596410914 29.30763596410914 29.30763596410914 29.30763596410914 29.30763596410914 29.30763596410914 29.30763596410914 29.30763596410914 29.30763596410914 29.276872367698225 29.30763596410914 29.30763596410914 29.30763596410914 29.30763596410914 29.30763596410914 29.276872367698225 29.30763596410914 29.30763596410914 29.276872367698225 29.276872367698225 29.30763596410914 29.30763596410914 29.30763596410914 29.30763596410914 29.30763596410914 29.30763596410914 29.276872367698225 29.276872367698225 29.276872367698225 29.30763596410914 29.276872367698225 29.30763596410914 29.30763596410914 29.30763596410914 29.30763596410914 29.276872367698225 29.276872367698225 29.30763596410914 29.30763596410914 29.276872367698225 29.30763596410914 29.276872367698225 29.276872367698225 29.276872367698225 29.276872367698225 29.30763596410914 29.276872367698225 29.30763596410914 29.276872367698225 29.276872367698225 29.276872367698225 29.276872367698225 29.276872367698225 29.276872367698225 29.276872367698225 29.276872367698225 29.276872367698225 29.276872367698225 29.276872367698225 29.276872367698225 29.276872367698225 29.276872367698225 29.30763596410914 29.276872367698225 29.276872367698225 29.276872367698225 29.276872367698225 29.276872367698225 29.276872367698225 29.24610877128731 29.276872367698225 29.24610877128731 29.24610877128731 29.24610877128731 29.215345174876397 29.215345174876397 29.215345174876397 29.215345174876397 29.215345174876397 29.215345174876397 29.215345174876397 29.215345174876397 29.184581578465483 29.184581578465483 29.184581578465483 29.184581578465483 29.184581578465483 29.184581578465483 29.184581578465483 29.184581578465483 29.184581578465483 29.184581578465483 29.184581578465483 29.184581578465483 29.184581578465483 29.184581578465483 29.184581578465483 29.184581578465483 29.184581578465483 29.184581578465483 29.184581578465483 29.184581578465483 29.184581578465483 29.184581578465483 29.184581578465483 29.184581578465483 29.184581578465483 29.184581578465483 29.184581578465483 29.184581578465483 29.184581578465483 29.184581578465483 29.184581578465483 29.184581578465483 29.184581578465483 29.184581578465483 29.184581578465483 29.184581578465483 29.184581578465483 29.184581578465483 29.184581578465483 29.184581578465483 29.184581578465483 29.184581578465483 29.184581578465483 29.184581578465483 29.184581578465483 29.184581578465483 29.184581578465483 29.184581578465483 29.184581578465483 29.215345174876397 29.184581578465483 29.184581578465483 29.184581578465483 29.184581578465483 29.184581578465483 29.184581578465483 29.184581578465483 29.184581578465483 29.184581578465483 29.184581578465483 29.184581578465483 29.184581578465483 29.184581578465483 29.184581578465483 29.184581578465483 29.184581578465483 29.184581578465483 29.184581578465483 29.184581578465483 29.184581578465483 29.184581578465483 29.184581578465483 29.184581578465483 29.184581578465483 29.184581578465483 29.184581578465483 29.184581578465483 29.184581578465483 29.184581578465483 29.184581578465483 29.184581578465483 29.184581578465483 29.184581578465483 29.184581578465483 29.184581578465483 29.184581578465483 29.184581578465483 29.184581578465483 29.184581578465483 29.184581578465483 29.184581578465483 29.184581578465483 29.184581578465483 29.184581578465483 29.184581578465483 29.184581578465483 29.184581578465483 29.184581578465483 29.184581578465483 29.184581578465483 29.184581578465483 29.184581578465483 29.184581578465483 29.184581578465483 29.184581578465483 29.184581578465483 29.184581578465483 29.184581578465483 29.184581578465483 29.184581578465483 29.184581578465483 29.184581578465483 29.184581578465483 29.184581578465483 29.184581578465483 29.184581578465483 29.184581578465483 29.184581578465483 29.184581578465483 29.184581578465483 29.184581578465483 29.184581578465483 29.184581578465483 29.184581578465483 29.184581578465483 29.184581578465483 29.215345174876397 29.184581578465483 29.184581578465483 29.184581578465483 29.184581578465483 29.184581578465483 29.184581578465483 29.184581578465483 29.184581578465483 29.184581578465483 29.184581578465483 29.184581578465483 29.184581578465483 29.184581578465483 29.184581578465483 29.184581578465483 29.184581578465483 29.184581578465483 29.184581578465483 29.184581578465483 29.184581578465483 29.184581578465483 29.184581578465483 29.184581578465483 29.184581578465483 29.184581578465483 29.184581578465483 29.184581578465483 29.184581578465483 29.184581578465483 29.184581578465483 29.184581578465483 29.184581578465483 29.184581578465483 29.184581578465483 29.184581578465483 29.184581578465483 29.184581578465483 29.184581578465483 29.184581578465483 29.184581578465483 29.184581578465483 29.184581578465483 29.184581578465483 29.184581578465483 29.184581578465483 29.184581578465483 29.184581578465483 29.184581578465483 29.184581578465483 29.184581578465483 29.184581578465483 29.184581578465483 29.184581578465483 29.184581578465483 29.184581578465483 29.184581578465483 29.184581578465483 29.184581578465483 29.184581578465483 29.184581578465483 29.184581578465483 29.184581578465483 29.184581578465483 29.184581578465483 29.184581578465483 29.184581578465483 29.184581578465483 29.184581578465483 29.184581578465483 29.184581578465483 29.184581578465483 29.184581578465483 29.184581578465483 29.184581578465483 29.184581578465483 29.184581578465483 29.184581578465483 29.184581578465483 29.184581578465483 29.184581578465483 29.184581578465483 29.184581578465483 29.184581578465483 29.184581578465483 29.184581578465483 29.184581578465483 29.184581578465483 29.184581578465483 29.184581578465483 29.184581578465483 29.184581578465483 29.184581578465483 29.184581578465483 29.184581578465483 29.184581578465483 29.184581578465483 29.184581578465483 29.184581578465483 29.184581578465483 29.184581578465483 29.184581578465483 29.184581578465483 29.184581578465483 29.184581578465483 29.184581578465483 29.184581578465483 29.184581578465483 29.184581578465483 29.184581578465483 29.184581578465483 29.184581578465483 29.184581578465483 29.184581578465483 29.184581578465483 29.184581578465483 29.184581578465483 29.184581578465483 29.184581578465483 29.184581578465483 29.184581578465483 29.184581578465483 29.184581578465483 29.184581578465483 29.184581578465483 29.184581578465483 29.184581578465483 29.184581578465483 29.184581578465483 29.184581578465483 29.184581578465483 29.184581578465483 29.184581578465483 29.184581578465483 29.184581578465483 29.184581578465483 29.184581578465483 29.184581578465483 29.184581578465483 29.184581578465483 29.184581578465483 29.184581578465483 29.184581578465483 29.184581578465483 29.184581578465483 29.184581578465483 29.184581578465483 29.184581578465483 29.184581578465483 29.184581578465483 29.184581578465483 29.184581578465483 29.215345174876397 29.184581578465483 29.184581578465483 29.184581578465483 29.184581578465483 29.184581578465483 29.184581578465483 29.184581578465483 29.184581578465483 29.184581578465483 29.184581578465483 29.184581578465483 29.184581578465483 29.184581578465483 29.184581578465483 29.184581578465483 29.184581578465483 29.184581578465483 29.184581578465483 29.184581578465483 29.184581578465483 29.184581578465483 29.184581578465483 29.184581578465483 29.184581578465483 29.184581578465483 29.184581578465483 29.184581578465483 29.184581578465483 29.184581578465483 29.184581578465483 29.184581578465483 29.184581578465483 29.184581578465483 29.184581578465483 29.184581578465483 29.184581578465483 29.184581578465483 29.184581578465483 29.184581578465483 29.184581578465483 29.184581578465483 29.184581578465483 29.184581578465483 29.184581578465483 29.184581578465483 29.184581578465483 29.184581578465483 29.184581578465483 29.184581578465483 29.184581578465483 29.184581578465483 29.215345174876397 29.184581578465483 29.184581578465483 29.184581578465483 29.184581578465483 29.184581578465483 29.184581578465483 29.184581578465483 29.184581578465483 29.184581578465483 29.184581578465483 29.184581578465483 29.184581578465483 29.184581578465483 29.184581578465483 29.184581578465483 29.184581578465483 29.184581578465483 29.184581578465483 29.184581578465483 29.184581578465483 29.184581578465483 29.184581578465483 29.184581578465483 29.184581578465483 29.184581578465483 29.184581578465483 29.184581578465483 29.184581578465483 29.184581578465483 29.184581578465483 29.184581578465483 29.184581578465483 29.184581578465483 29.184581578465483 29.184581578465483 29.184581578465483 29.184581578465483 29.184581578465483 29.184581578465483 29.184581578465483 29.184581578465483 29.184581578465483 29.184581578465483 29.184581578465483 29.184581578465483 29.184581578465483 29.184581578465483 29.184581578465483 29.184581578465483 29.184581578465483 29.184581578465483 29.184581578465483 29.184581578465483 29.184581578465483 29.184581578465483 29.184581578465483 29.184581578465483 29.184581578465483 29.184581578465483 29.184581578465483 29.184581578465483 29.184581578465483 29.184581578465483 29.184581578465483 29.184581578465483 29.184581578465483 29.184581578465483 29.184581578465483 29.184581578465483 29.184581578465483 29.184581578465483 29.184581578465483 29.184581578465483 29.184581578465483 29.184581578465483 29.184581578465483 29.184581578465483 29.184581578465483 29.184581578465483 29.184581578465483 29.184581578465483 29.184581578465483 29.184581578465483 29.184581578465483 29.184581578465483 29.184581578465483 29.184581578465483 29.184581578465483 29.184581578465483 29.184581578465483 29.184581578465483 29.184581578465483 29.184581578465483 29.184581578465483 29.184581578465483 29.184581578465483 29.184581578465483 29.184581578465483 29.184581578465483 29.184581578465483 29.184581578465483 29.184581578465483 29.184581578465483 29.184581578465483 29.184581578465483 29.184581578465483 29.184581578465483 29.184581578465483 29.184581578465483 29.184581578465483 29.184581578465483 29.184581578465483 29.184581578465483 29.184581578465483 29.184581578465483 29.184581578465483 29.184581578465483 29.184581578465483 29.184581578465483 29.184581578465483 29.184581578465483 29.184581578465483 29.184581578465483 29.184581578465483 29.184581578465483 29.184581578465483 29.184581578465483 29.184581578465483 29.184581578465483 29.184581578465483 29.184581578465483 29.184581578465483 29.184581578465483 29.184581578465483 29.184581578465483 29.184581578465483 29.184581578465483 29.184581578465483 29.184581578465483 29.184581578465483 29.184581578465483 29.184581578465483 29.184581578465483 29.184581578465483 29.184581578465483 29.184581578465483 29.184581578465483 29.184581578465483 29.184581578465483 29.184581578465483 29.184581578465483 29.184581578465483 29.184581578465483 29.184581578465483 29.184581578465483 29.184581578465483 29.184581578465483 29.184581578465483 29.184581578465483 29.184581578465483 29.184581578465483 29.184581578465483 29.184581578465483 29.184581578465483 29.184581578465483 29.184581578465483 29.184581578465483 29.184581578465483 29.184581578465483 29.184581578465483 29.184581578465483 29.184581578465483 29.184581578465483 29.184581578465483 29.184581578465483 29.184581578465483 29.215345174876397 29.215345174876397 29.215345174876397 29.215345174876397 29.24610877128731 29.24610877128731 29.276872367698225 29.338399560520052 29.39992675334188 29.430690349752794 29.461453946163708 29.522981138985532 29.553744735396446 29.646035524629188 29.707562717451015 29.769089910272843 29.83061710309467 29.922907892327412 29.98443508514924 30.045962277971068 30.107489470792896 30.169016663614723 30.23054385643655 30.29207104925838 30.353598242080206 30.38436183849112 30.415125434902034 30.47665262772386 30.538179820545686 30.630470609778428 30.66123420618934 30.753524995422083 30.845815784654825 30.907342977476652 31.030397363120308 31.091924555942136 31.245742537996705 31.430324116462188 31.584142098516754 31.79948727339315 32.07635964109137 32.19941402673503 32.3532320087896 32.507049990844166 32.75315876213148 32.906976744186046 33.12232191906244 33.2453763047061 33.39919428676067 33.55301226881524 33.7068302508698 33.829884636513455 34.137520600622594 34.383629371909905 34.56821095037539 34.8143197216627 34.99890130012818 35.24501007141549 35.583409631935545 35.67570042116829 35.9218091924556 36.1679179637429 36.444790331441126 36.598608313495696 36.84471708478301 37.09082585607032 37.33693462735763 37.42922541659037 37.67533418787768 37.921442959164985 38.13678813404138 38.38289690532869 38.567478483794176 38.81358725508149 39.0596960263688 39.21351400842337 39.45962277971067 39.82878593664164 40.044131111518034 40.32100347921626 40.536348654092656 40.81322102179088 41.12085698590002 41.336202160776416 41.61307452847464 41.92071049258377 42.16681926387108 42.47445522798022 42.72056399926753 43.18201794543124 43.5511811023622 43.67423548800586 44.074162241347736 44.4433253982787 44.781724958798755 45.15088811572972 45.52005127266068 45.950741622413474 46.31990477934444 46.596777147042665 46.93517670756272 47.304339864493684 47.550448635780995 47.91961179271196 48.165720563999265 48.473356528108404 48.780992492217536 49.027101263504846 49.27321003479216 49.55008240249039 49.70390038454495 49.91924555942135 50.07306354147592 50.22688152353049 50.4729902948178 50.56528108405054 50.65757187328328 50.78062625892693 50.995971433803334 51.18055301226882 51.27284380150155 51.457425379967034 51.61124336202161 51.73429774766526 51.88811572971983 52.0419337117744 52.19575169382897 52.34956967588353 52.44186046511628 52.56491485075993 52.65720563999267 52.68796923640359 52.78026002563632 52.84178721845816 52.903314411279986 52.9340780076909 52.99560520051273 53.026368796923634 53.057132393334555 53.118659586156376 53.18018677897821 53.21095037538912 53.33400476103277 53.3955319538546 53.48782274308734 53.610877128731005 53.73393151437466 53.826222303607395 54.01080388207288 54.16462186412745 54.2876762497711 54.47225782823658 54.59531221388024 54.77989379234572 54.99523896722212 55.087529756454856 55.179820545687605 55.30287493133125 55.45669291338582 55.61051089544039 55.76432887749496 55.88738326313862 56.041201245193186 56.13349203442593 56.225782823658676 56.31807361289141 56.47189159494598 56.62570957700055 56.718000366233284 56.841054751876946 56.90258194469877 56.93334554110969 56.994872733931516 56.994872733931516 56.994872733931516 57.02563633034242 57.02563633034242 57.02563633034242 57.02563633034242 57.02563633034242 57.02563633034242 57.02563633034242 57.02563633034242 57.02563633034242 57.02563633034242 57.02563633034242 57.02563633034242 56.994872733931516 57.02563633034242 57.02563633034242 57.02563633034242 57.02563633034242 56.994872733931516 57.02563633034242 56.994872733931516 56.994872733931516 57.02563633034242 56.994872733931516 56.994872733931516 57.02563633034242 56.994872733931516 56.994872733931516 57.02563633034242 56.994872733931516 56.994872733931516 56.994872733931516 56.994872733931516 56.994872733931516 56.994872733931516 56.994872733931516 56.994872733931516 56.994872733931516 57.02563633034242 56.994872733931516 56.994872733931516 56.994872733931516 56.994872733931516 57.02563633034242 57.02563633034242 57.02563633034242 57.02563633034242 57.02563633034242 57.02563633034242 57.02563633034242 57.02563633034242 57.02563633034242 56.994872733931516 56.994872733931516 57.02563633034242 56.994872733931516 56.994872733931516 56.994872733931516 57.02563633034242 56.994872733931516 57.02563633034242 57.02563633034242 56.994872733931516 56.994872733931516 57.02563633034242 56.994872733931516 57.02563633034242 57.02563633034242 56.994872733931516 57.02563633034242 57.02563633034242 56.994872733931516 57.02563633034242 57.02563633034242 57.056399926753336 57.056399926753336 57.056399926753336 57.056399926753336 57.08716352316425 57.08716352316425 57.08716352316425 57.08716352316425 57.08716352316425 57.056399926753336 57.056399926753336 57.08716352316425 57.08716352316425 57.08716352316425 57.08716352316425 57.08716352316425 57.117927119575164 57.117927119575164 57.14869071598608 57.179454312397 57.14869071598608 57.179454312397 57.179454312397 57.14869071598608 57.179454312397 57.14869071598608 57.14869071598608 57.179454312397 57.14869071598608 57.14869071598608 57.14869071598608 57.14869071598608 57.14869071598608 57.179454312397 57.14869071598608 57.179454312397 57.179454312397 57.179454312397 57.14869071598608 57.179454312397 57.14869071598608 57.179454312397 57.14869071598608 57.14869071598608 57.179454312397 57.14869071598608 57.179454312397 57.14869071598608 57.14869071598608 57.14869071598608 57.179454312397 57.14869071598608 57.14869071598608 57.14869071598608 57.14869071598608 57.14869071598608 57.117927119575164 57.14869071598608 57.117927119575164 57.14869071598608 57.117927119575164 57.117927119575164 57.117927119575164 57.117927119575164 57.117927119575164 57.14869071598608 57.117927119575164 57.14869071598608 57.14869071598608 57.14869071598608 57.179454312397 57.179454312397 57.210217908807905 57.210217908807905 57.210217908807905 57.240981505218826 57.240981505218826 57.240981505218826 57.210217908807905 57.240981505218826 57.210217908807905 57.240981505218826 57.240981505218826 57.240981505218826 57.240981505218826 57.240981505218826 57.240981505218826 57.240981505218826 57.240981505218826 57.210217908807905 57.210217908807905 57.210217908807905 57.210217908807905 57.210217908807905 57.210217908807905 57.240981505218826 57.210217908807905 57.210217908807905 57.210217908807905 57.210217908807905 57.210217908807905 57.210217908807905 57.210217908807905 57.210217908807905 57.210217908807905 57.210217908807905 57.210217908807905 57.210217908807905 57.240981505218826 57.240981505218826 57.240981505218826 57.210217908807905 57.210217908807905 57.210217908807905 57.210217908807905 57.210217908807905 57.210217908807905 57.240981505218826 57.210217908807905 57.210217908807905 57.210217908807905 57.210217908807905 57.210217908807905 57.210217908807905 57.210217908807905 57.210217908807905 57.240981505218826 57.240981505218826 57.210217908807905 57.210217908807905 57.210217908807905 57.210217908807905 57.240981505218826 57.240981505218826 57.210217908807905 57.240981505218826 57.210217908807905 57.210217908807905 57.210217908807905 57.210217908807905 57.210217908807905 57.210217908807905 57.210217908807905 57.210217908807905 57.210217908807905 57.210217908807905 57.210217908807905 57.210217908807905 57.210217908807905 57.210217908807905 57.210217908807905 57.210217908807905 57.210217908807905 57.210217908807905 57.210217908807905 57.240981505218826 57.210217908807905 57.210217908807905 57.210217908807905 57.210217908807905 57.210217908807905 57.210217908807905 57.210217908807905 57.210217908807905 57.210217908807905 57.210217908807905 57.210217908807905 57.210217908807905 57.210217908807905 57.210217908807905 57.210217908807905 57.210217908807905 57.210217908807905 57.240981505218826 57.210217908807905 57.210217908807905 57.210217908807905 57.210217908807905 57.210217908807905 57.210217908807905 57.210217908807905 57.210217908807905 57.210217908807905 57.210217908807905 57.210217908807905 57.210217908807905 57.210217908807905 57.179454312397 57.210217908807905 57.210217908807905 57.210217908807905 57.179454312397 57.210217908807905 57.210217908807905 57.210217908807905 57.210217908807905 57.210217908807905 57.210217908807905 57.210217908807905 57.179454312397 57.210217908807905 57.210217908807905 57.210217908807905 57.179454312397 57.179454312397 57.210217908807905 57.210217908807905 57.179454312397 57.179454312397 57.179454312397 57.179454312397 57.14869071598608 57.14869071598608 57.14869071598608 57.14869071598608 57.14869071598608 57.14869071598608 57.14869071598608 57.14869071598608 57.14869071598608 57.14869071598608 57.14869071598608 57.14869071598608 57.14869071598608 57.14869071598608 57.14869071598608 57.14869071598608 57.14869071598608 57.14869071598608 57.14869071598608 57.14869071598608 57.14869071598608 57.14869071598608 57.14869071598608 57.14869071598608 57.14869071598608 57.14869071598608 57.14869071598608 57.14869071598608 57.14869071598608 57.14869071598608 57.14869071598608 57.14869071598608 57.14869071598608 57.14869071598608 57.14869071598608 57.14869071598608 57.14869071598608 57.14869071598608 57.14869071598608 57.14869071598608 57.14869071598608 57.14869071598608 57.14869071598608 57.14869071598608 57.14869071598608 57.14869071598608 57.14869071598608 57.14869071598608 57.14869071598608 57.14869071598608 57.14869071598608 57.14869071598608 57.14869071598608 57.14869071598608 57.14869071598608 57.14869071598608 57.14869071598608 57.117927119575164 57.02563633034242 56.93334554110969 56.841054751876946 56.718000366233284 56.656473173411456 56.56418238417872 56.502655191356894 56.41036440212415 56.31807361289141 56.195019227247755 56.0719648416041 55.91814685954953 55.82585607031679 55.70280168467313 55.61051089544039 55.395165720563995 55.21058414209851 55.026002563633035 54.841420985167545 54.626075810291155 54.47225782823658 54.226149056949275 54.01080388207288 53.76469511078557 53.518586339498256 53.33400476103277 53.057132393334555 52.718732832814496 52.53415125434902 52.19575169382897 51.98040651895257 51.64200695843252 51.27284380150155 50.903680644570585 50.534517487639626 50.288408716352315 49.95000915583226 49.61160959531221 49.39626442043581 49.05786485991577 48.719465299395715 48.473356528108404 48.165720563999265 47.98113898553378 47.67350302142465 47.39663065372642 47.1197582860282 46.93517670756272 46.658304339864486 46.504486357809924 46.2276139901117 45.950741622413474 45.67386925471526 45.45852407983885 45.30470609778429 45.12012451931881 44.874015748031496 44.627906976744185 44.381798205456874 44.227980223402305 43.981871452114994 43.7665262772386 43.612708295184035 43.39736312030763 43.21278154184215 43.028199963376665 42.905145577733016 42.78209119208936 42.62827321003479 42.412928035158394 42.32063724592565 42.22834645669291 42.04376487822743 41.951474088994686 41.7668925105292 41.61307452847464 41.39772935359824 41.243911371543675 41.12085698590002 41.02856619666728 40.87474821461271 40.75169382896905 40.50558505768174 40.38253067203809 40.1979490935726 40.01336751510712 39.921076725874386 39.70573155099798 39.582677165354326 39.428859183299764 39.24427760483428 39.121223219190625 38.93664164072514 38.78282365867057 38.629005676616 38.475187694561434 38.35213330891778 38.19831532686321 38.04449734480864 37.9522065555759 37.82915216993224 37.61380699505585 37.521516205823104 37.42922541659037 37.306171030946714 37.12158945248123 36.96777147042666 36.84471708478301 36.81395348837209 36.81395348837209 36.78318989196118 36.62937190990661 36.506317524262954 36.32173594579747 36.13715436733199 35.98333638527742 35.79875480681194 35.67570042116829 35.55264603552463 35.36806445705915 35.27577366782641 35.12195568577184 34.937374107306354 34.783556125251785 34.5989745467863 34.44515656473173 34.29133858267716 34.137520600622594 34.01446621497894 33.829884636513455 33.67606665445889 33.58377586522615 33.49148507599341 33.39919428676067 33.33766709393884 33.30690349752793 33.2453763047061 33.214612708295185 33.214612708295185 33.18384911188427 33.18384911188427 33.12232191906244 33.12232191906244 33.09155832265153 33.060794726240616 33.0300311298297 32.968503937007874 32.87621314777513 32.814685954953305 32.75315876213148 32.69163156930965 32.63010437648782 32.59934078007691 32.568577183665994 32.53781358725508 32.53781358725508 32.53781358725508 32.53781358725508 32.53781358725508 32.53781358725508 32.507049990844166 32.47628639443325 32.47628639443325 32.44552279802234 32.414759201611425 32.3532320087896 32.29170481596777 32.260941219556855 32.23017762314594 32.19941402673503 32.1378868339132 32.107123237502286 32.014832448269544 31.984068851858634 31.922541659036806 31.830250869804065 31.79948727339315 31.768723676982237 31.768723676982237 31.768723676982237 31.737960080571323 31.737960080571323 31.70719648416041 31.70719648416041 31.676432887749495 31.64566929133858 31.64566929133858 31.614905694927668 31.614905694927668 31.584142098516754 31.584142098516754 31.55337850210584 31.522614905694926 31.522614905694926 31.461087712873102 31.399560520051274 31.307269730818533 31.245742537996705 31.153451748763963 31.06116095953122 30.999633766709394 30.938106573887566 30.87657938106574 30.81505218824391 30.691997802600255 30.630470609778428 30.5689434169566 30.507416224134772 30.47665262772386 30.445889031312948 30.415125434902034 30.38436183849112 30.353598242080206 30.322834645669293 30.322834645669293 30.322834645669293 30.29207104925838 30.29207104925838 30.261307452847465 30.23054385643655 30.23054385643655 30.199780260025637 30.169016663614723 30.13825306720381 30.107489470792896 30.045962277971068 30.015198681560154 29.953671488738326 29.922907892327412 29.8921442959165 29.861380699505585 29.861380699505585 29.861380699505585 29.83061710309467 29.83061710309467 29.83061710309467 29.799853506683757 29.769089910272843 29.769089910272843 29.73832631386193 29.769089910272843 29.73832631386193 29.73832631386193 29.707562717451015 29.707562717451015 29.6767991210401 29.6767991210401 29.646035524629188 29.6767991210401 29.646035524629188 29.646035524629188 29.646035524629188 29.646035524629188 29.646035524629188 29.615271928218274 29.615271928218274 29.615271928218274 29.615271928218274 29.615271928218274 29.58450833180736 29.58450833180736 29.58450833180736 29.58450833180736 29.58450833180736 29.553744735396446 29.58450833180736 29.58450833180736 29.58450833180736 29.553744735396446 29.553744735396446 29.553744735396446 29.553744735396446 29.553744735396446 29.553744735396446 29.522981138985532 29.522981138985532 29.553744735396446 29.522981138985532 29.522981138985532 29.49221754257462 29.49221754257462 29.461453946163708 29.461453946163708 29.461453946163708 29.430690349752794 29.430690349752794 29.39992675334188 29.369163156930966 29.369163156930966 29.369163156930966 29.369163156930966 29.369163156930966 29.338399560520052 29.338399560520052 29.338399560520052 29.338399560520052 29.338399560520052 29.338399560520052 29.338399560520052 29.338399560520052 29.338399560520052 29.338399560520052 29.338399560520052 29.30763596410914 29.30763596410914 29.30763596410914 29.30763596410914 29.30763596410914 29.30763596410914 29.30763596410914 29.30763596410914 29.30763596410914 29.30763596410914 29.30763596410914 29.30763596410914 29.30763596410914 29.276872367698225 29.276872367698225 29.276872367698225 29.276872367698225 29.276872367698225 29.276872367698225 29.276872367698225 29.276872367698225 29.276872367698225 29.276872367698225 29.276872367698225 29.276872367698225 29.276872367698225 29.276872367698225 29.276872367698225 29.276872367698225 29.276872367698225 29.276872367698225 29.276872367698225 29.276872367698225 29.276872367698225 29.276872367698225 29.276872367698225 29.276872367698225 29.24610877128731 29.24610877128731 29.276872367698225 29.24610877128731 29.24610877128731 29.24610877128731 29.24610877128731 29.24610877128731 29.24610877128731 29.24610877128731 29.24610877128731 29.24610877128731 29.24610877128731 29.24610877128731 29.24610877128731 29.24610877128731 29.24610877128731 29.24610877128731 29.24610877128731 29.24610877128731 29.24610877128731 29.24610877128731 29.24610877128731 29.24610877128731 29.24610877128731 29.24610877128731 29.24610877128731 29.24610877128731 29.24610877128731 29.24610877128731 29.24610877128731 29.24610877128731 29.24610877128731 29.24610877128731 29.24610877128731 29.24610877128731 29.24610877128731 29.24610877128731 29.24610877128731 29.24610877128731 29.24610877128731 29.215345174876397 29.24610877128731 29.215345174876397 29.215345174876397 29.215345174876397 29.215345174876397 29.215345174876397 29.215345174876397 29.215345174876397 29.215345174876397 29.215345174876397 29.215345174876397 29.215345174876397 29.215345174876397 29.215345174876397 29.215345174876397 29.215345174876397 29.215345174876397 29.215345174876397 29.215345174876397 29.215345174876397 29.215345174876397 29.215345174876397 29.215345174876397 29.215345174876397 29.215345174876397 29.215345174876397 29.215345174876397 29.215345174876397 29.215345174876397 29.215345174876397 29.215345174876397 29.215345174876397 29.215345174876397 29.215345174876397 29.215345174876397 29.215345174876397 29.215345174876397 29.215345174876397 29.215345174876397 29.215345174876397 29.215345174876397 29.215345174876397 29.215345174876397 29.215345174876397 29.215345174876397 29.215345174876397 29.215345174876397 29.215345174876397 29.215345174876397 29.215345174876397 29.215345174876397 29.215345174876397 29.215345174876397 29.215345174876397 29.215345174876397 29.215345174876397 29.215345174876397 29.215345174876397 29.215345174876397 29.215345174876397 29.215345174876397 29.215345174876397 29.215345174876397 29.215345174876397 29.215345174876397 29.215345174876397 29.215345174876397 29.215345174876397 29.215345174876397 29.215345174876397 29.215345174876397 29.215345174876397 29.215345174876397 29.215345174876397 29.215345174876397 29.215345174876397 29.215345174876397 29.215345174876397 29.215345174876397 29.215345174876397 29.215345174876397 29.215345174876397 29.215345174876397 29.215345174876397 29.215345174876397 29.215345174876397 29.215345174876397 29.215345174876397 29.215345174876397 29.215345174876397 29.215345174876397 29.215345174876397 29.215345174876397 29.215345174876397 29.215345174876397 29.215345174876397 29.215345174876397 29.215345174876397 29.215345174876397 29.215345174876397 29.215345174876397 29.215345174876397 29.215345174876397 29.215345174876397 29.215345174876397 29.215345174876397 29.215345174876397 29.215345174876397 29.215345174876397 29.215345174876397 29.215345174876397 29.215345174876397 29.215345174876397 29.215345174876397 29.215345174876397 29.215345174876397 29.215345174876397 29.215345174876397 29.215345174876397 29.215345174876397 29.215345174876397 29.215345174876397 29.215345174876397 29.215345174876397 29.215345174876397 29.215345174876397 29.215345174876397 29.215345174876397 29.215345174876397 29.215345174876397 29.215345174876397 29.215345174876397 29.215345174876397 29.215345174876397 29.215345174876397 29.215345174876397 29.215345174876397 29.215345174876397 29.215345174876397 29.215345174876397 29.215345174876397 29.215345174876397 29.215345174876397 29.215345174876397 29.215345174876397 29.215345174876397 29.215345174876397 29.215345174876397 29.215345174876397 29.215345174876397 29.215345174876397 29.215345174876397 29.215345174876397 29.215345174876397 29.215345174876397 29.215345174876397 29.215345174876397 29.215345174876397 29.215345174876397 29.215345174876397 29.215345174876397 29.215345174876397 29.215345174876397 29.215345174876397 29.215345174876397 29.215345174876397 29.215345174876397 29.215345174876397 29.215345174876397 29.215345174876397 29.215345174876397 29.215345174876397 29.215345174876397 29.215345174876397 29.215345174876397 29.215345174876397 29.215345174876397 29.215345174876397 29.215345174876397 29.215345174876397 29.215345174876397 29.215345174876397 29.215345174876397 29.215345174876397 29.215345174876397 29.215345174876397 29.215345174876397 29.215345174876397 29.215345174876397 29.215345174876397 29.215345174876397 29.215345174876397 29.215345174876397 29.215345174876397 29.215345174876397 29.215345174876397 29.215345174876397 29.215345174876397 29.215345174876397 29.215345174876397 29.215345174876397 29.215345174876397 29.215345174876397 29.215345174876397 29.215345174876397 29.215345174876397 29.215345174876397 29.215345174876397 29.215345174876397 29.215345174876397 29.215345174876397 29.215345174876397 29.215345174876397 29.215345174876397 29.215345174876397 29.215345174876397 29.215345174876397 29.215345174876397 29.215345174876397 29.215345174876397 29.215345174876397 29.215345174876397 29.215345174876397 29.215345174876397 29.215345174876397 29.215345174876397 29.215345174876397 29.215345174876397 29.215345174876397 29.215345174876397 29.215345174876397 29.215345174876397 29.215345174876397 29.215345174876397 29.215345174876397 29.215345174876397 29.215345174876397 29.215345174876397 29.215345174876397 29.215345174876397 29.215345174876397 29.184581578465483 29.215345174876397 29.215345174876397 29.215345174876397 29.215345174876397 29.215345174876397 29.215345174876397 29.215345174876397 29.215345174876397 29.215345174876397 29.215345174876397 29.215345174876397 29.215345174876397 29.215345174876397 29.215345174876397 29.215345174876397 29.215345174876397 29.215345174876397 29.215345174876397 29.184581578465483 29.215345174876397 29.215345174876397 29.215345174876397 29.215345174876397 29.215345174876397 29.215345174876397 29.215345174876397 29.215345174876397 29.215345174876397 29.215345174876397 29.215345174876397 29.215345174876397 29.215345174876397 29.215345174876397 29.215345174876397 29.215345174876397 29.215345174876397 29.215345174876397 29.215345174876397 29.215345174876397 29.215345174876397 29.215345174876397 29.215345174876397 29.215345174876397 29.215345174876397 29.215345174876397 29.215345174876397 29.215345174876397 29.215345174876397 29.184581578465483 29.215345174876397 29.215345174876397 29.215345174876397 29.184581578465483 29.184581578465483 29.184581578465483 29.184581578465483 29.184581578465483 29.184581578465483 29.184581578465483 29.184581578465483 29.184581578465483 29.184581578465483 29.184581578465483 29.15381798205457 29.15381798205457 29.184581578465483 29.15381798205457 29.15381798205457 29.15381798205457 29.15381798205457 29.15381798205457 29.184581578465483 29.184581578465483 29.184581578465483 29.184581578465483 29.15381798205457 29.15381798205457 29.15381798205457 29.15381798205457 29.184581578465483 29.184581578465483 29.15381798205457 29.184581578465483 29.15381798205457 29.15381798205457 29.15381798205457 29.15381798205457 29.184581578465483 29.15381798205457 29.184581578465483 29.184581578465483 29.15381798205457 29.15381798205457 29.184581578465483 29.15381798205457 29.184581578465483 29.184581578465483 29.15381798205457 29.15381798205457 29.184581578465483 29.184581578465483 29.184581578465483 29.15381798205457 29.184581578465483 29.15381798205457 29.184581578465483 29.184581578465483 29.184581578465483 29.15381798205457 29.184581578465483 29.15381798205457 29.184581578465483 29.15381798205457 29.184581578465483 29.15381798205457 29.184581578465483 29.184581578465483 29.184581578465483 29.184581578465483 29.184581578465483 29.15381798205457 29.184581578465483 29.184581578465483 29.15381798205457 29.184581578465483 29.15381798205457 29.184581578465483 29.184581578465483 29.15381798205457 29.15381798205457 29.15381798205457 29.184581578465483 29.15381798205457 29.184581578465483 29.15381798205457 29.184581578465483 29.15381798205457 29.184581578465483 29.184581578465483 29.15381798205457 29.15381798205457 29.184581578465483 29.184581578465483 29.15381798205457 29.15381798205457 29.184581578465483 29.184581578465483 29.15381798205457 29.15381798205457 29.15381798205457 29.184581578465483 29.184581578465483 29.184581578465483 29.184581578465483 29.15381798205457 29.15381798205457 29.15381798205457 29.184581578465483 29.15381798205457 29.184581578465483 29.15381798205457 29.184581578465483 29.184581578465483 29.15381798205457 29.15381798205457 29.15381798205457 29.184581578465483 29.184581578465483 29.15381798205457 29.184581578465483 29.15381798205457 29.184581578465483 29.184581578465483 29.184581578465483 29.15381798205457 29.184581578465483 29.15381798205457 29.15381798205457 29.15381798205457 29.15381798205457 29.15381798205457 29.184581578465483 29.184581578465483 29.15381798205457 29.15381798205457 29.184581578465483 29.184581578465483 29.15381798205457 29.15381798205457 29.15381798205457 29.15381798205457 29.184581578465483 29.184581578465483 29.15381798205457 29.15381798205457 29.15381798205457 29.15381798205457 29.184581578465483 29.184581578465483 29.184581578465483 29.184581578465483 29.184581578465483 29.15381798205457 29.184581578465483 29.184581578465483 29.184581578465483 29.184581578465483 29.184581578465483 29.184581578465483 29.15381798205457 29.184581578465483 29.184581578465483 29.184581578465483 29.184581578465483 29.184581578465483 29.184581578465483 29.184581578465483 29.184581578465483 29.184581578465483 29.15381798205457 29.184581578465483 29.24610877128731 29.338399560520052 29.430690349752794 29.553744735396446 29.646035524629188 29.6767991210401 29.769089910272843 29.83061710309467 29.922907892327412 30.045962277971068 30.23054385643655 30.38436183849112 30.507416224134772 30.599707013367514 30.691997802600255 30.784288591832997 31.030397363120308 31.21497894158579 31.36879692364036 31.522614905694926 31.830250869804065 32.1378868339132 32.44552279802234 32.660867972898735 32.906976744186046 33.214612708295185 33.460721479582496 33.614539461637065 33.829884636513455 33.95293902215711 34.137520600622594 34.229811389855335 34.35286577549899 34.50668375755356 34.66050173960813 34.8143197216627 34.90661051089544 34.99890130012818 35.12195568577184 35.183482878593665 35.30653726423732 35.583409631935545 35.737227613990115 35.9218091924556 36.106390770921074 36.352499542208385 36.62937190990661 36.81395348837209 37.09082585607032 37.33693462735763 37.4907526094122 37.73686138069951 37.921442959164985 38.25984251968504 38.50595129097235 38.65976927302692 38.8443508514924 39.0596960263688 39.21351400842337 39.55191356894342 39.70573155099798 39.95184032228529 40.1979490935726 40.35176707562717 40.56711225050357 40.75169382896905 40.87474821461271 41.02856619666728 41.15162058231093 41.27467496795458 41.459256546420065 41.55154733565281 41.705365317707376 41.82841970335103 41.951474088994686 42.105292071049256 42.22834645669291 42.32063724592565 42.566746017212964 42.68980040285662 42.78209119208936 42.966672770554844 43.15125434902033 43.366599523896724 43.48965390954038 43.67423548800586 43.85881706647134 44.01263504852591 44.227980223402305 44.4433253982787 44.59714338033327 44.81248855520967 44.99707013367515 45.24317890496246 45.48928767624977 45.735396447537084 45.91997802600257 46.104559604468044 46.350668375755355 46.596777147042665 46.87364951474089 47.1197582860282 47.304339864493684 47.550448635780995 47.73503021424648 47.91961179271196 48.28877494964292 48.50412012451932 48.6887017029848 48.9040468778612 49.119392052737595 49.30397363120308 49.51931880607947 49.642373191723124 49.85771836659953 50.042299945065004 50.16535433070866 50.41146310199597 50.56528108405054 50.688335469694195 50.78062625892693 50.87291704815968 51.02673503021424 51.211316608679724 51.27284380150155 51.39589818714521 51.51895257278886 51.61124336202161 51.703534151254345 51.79582494048709 52.011170115363484 52.16498809741805 52.288042483061716 52.47262406152719 52.65720563999267 52.78026002563632 52.96484160410181 53.08789598974546 53.303241164621866 53.48782274308734 53.610877128731005 53.826222303607395 54.072331074894706 54.226149056949275 54.34920344259293 54.47225782823658 54.626075810291155 54.81065738875664 54.9644753708112 55.179820545687605 55.33363852774217 55.48745650979674 55.641274491851306 55.70280168467313 55.85661966672771 56.01043764878227 56.0719648416041 56.195019227247755 56.225782823658676 56.31807361289141 56.37960080571324 56.41036440212415 56.47189159494598 56.56418238417872 56.59494598058963 56.656473173411456 56.68723676982238 56.77952755905512 56.87181834828786 56.90258194469877 57.056399926753336 57.14869071598608 57.27174510162973 57.33327229445156 57.48709027650613 57.57938106573887 57.67167185497162 57.70243545138253 57.763962644204355 57.8562534334371 57.88701702984801 57.97930781908075 58.010071415491666 58.1023622047244 58.163889397546235 58.19465299395715 58.25618018677898 58.317707379600805 58.34847097601172 58.40999816883354 58.47152536165537 58.50228895806629 58.59457974729903 58.59457974729903 58.65610694012086 58.68687053653177 58.71763413294268 58.7483977293536 58.7483977293536 58.779161325764505 58.779161325764505 58.7483977293536 58.779161325764505 58.779161325764505 58.779161325764505 58.779161325764505 58.779161325764505 58.779161325764505 58.779161325764505 58.7483977293536 58.7483977293536 58.779161325764505 58.779161325764505 58.779161325764505 58.779161325764505 58.779161325764505 58.779161325764505 58.779161325764505 58.779161325764505 58.779161325764505 58.779161325764505 58.779161325764505 58.779161325764505 58.779161325764505 58.809924922175426 58.84068851858633 58.84068851858633 58.84068851858633 58.84068851858633 58.87145211499725 58.87145211499725 58.87145211499725 58.90221571140816 58.90221571140816 58.90221571140816 58.93297930781908 58.93297930781908 58.93297930781908 58.93297930781908 58.93297930781908 58.93297930781908 58.93297930781908 58.93297930781908 58.93297930781908 58.93297930781908 58.93297930781908 58.93297930781908 58.93297930781908 58.93297930781908 58.93297930781908 58.93297930781908 58.93297930781908 58.93297930781908 58.96374290422999 58.99450650064091 59.025270097051816 59.025270097051816 59.025270097051816 59.05603369346274 59.05603369346274 59.086797289873644 59.086797289873644 59.117560886284565 59.117560886284565 59.117560886284565 59.117560886284565 59.117560886284565 59.117560886284565 59.14832448269547 59.117560886284565 59.14832448269547 59.117560886284565 59.117560886284565 59.14832448269547 59.14832448269547 59.117560886284565 59.117560886284565 59.14832448269547 59.117560886284565 59.14832448269547 59.14832448269547 59.17908807910639 59.17908807910639 59.17908807910639 59.17908807910639 59.17908807910639 59.17908807910639 59.17908807910639 59.17908807910639 59.17908807910639 59.17908807910639 59.17908807910639 59.14832448269547 59.14832448269547 59.14832448269547 59.14832448269547 59.14832448269547 59.14832448269547 59.14832448269547 59.14832448269547 59.14832448269547 59.17908807910639 59.14832448269547 59.14832448269547 