29.0 29.0 29.0 29.0 29.0 29.0 29.0 29.0 29.0 29.0 29.0 29.0 29.0 29.0 28.969236403589086 29.0 29.0 29.0 29.0 29.0 29.0 29.0 29.0 29.0 29.0 29.0 29.0 28.969236403589086 29.0 29.0 29.0 29.0 29.0 29.0 29.0 29.0 29.0 29.0 29.0 29.0 29.0 29.0 29.0 29.0 29.0 29.0 29.0 29.0 29.0 29.0 29.0 29.0 29.0 29.0 29.0 29.0 29.0 29.0 29.0 29.0 29.0 29.0 29.0 29.0 29.0 29.0 29.0 29.0 29.0 29.0 29.0 29.0 29.0 29.0 29.0 29.0 29.0 29.0 29.0 29.0 29.0 29.0 29.0 29.0 29.0 29.0 29.0 29.0 29.0 29.0 29.0 29.0 29.0 29.0 29.0 29.0 29.0 29.0 29.0 29.0 29.0 29.0 29.0 29.0 29.0 29.0 29.0 29.0 29.0 29.0 29.0 29.0 29.0 29.0 29.0 29.0 29.0 29.0 29.0 29.0 29.0 29.0 29.0 29.0 29.0 29.0 29.0 29.0 29.0 29.0 29.0 29.0 29.0 29.0 29.0 29.0 29.0 29.0 29.0 29.0 29.0 29.0 29.0 29.0 29.0 29.0 29.0 29.0 29.0 29.0 29.0 29.0 29.0 29.0 29.0 29.0 29.0 29.0 29.0 29.0 29.0 29.0 29.0 29.0 29.0 29.0 29.0 29.0 29.0 29.0 29.0 29.0 29.0 29.0 29.0 29.0 29.0 29.0 29.0 29.0 29.0 29.0 29.0 29.0 29.0 29.0 29.0 29.0 29.0 29.0 29.0 29.0 29.0 29.0 29.0 29.0 29.0 29.0 29.0 29.0 29.0 29.0 29.0 29.0 29.0 29.0 29.0 29.0 29.0 29.0 29.0 29.0 29.0 29.0 29.0 29.0 29.0 29.0 29.0 29.0 29.0 29.0 29.0 29.0 29.0 29.0 29.0 29.0 29.0 29.0 29.0 29.0 29.0 29.0 29.0 29.0 29.0 29.0 29.0 29.0 29.0 29.0 29.0 29.0 29.0 29.0 29.0 29.0 29.0 29.0 29.0 29.0 29.0 29.0 29.0 29.0 29.0 29.0 29.0 29.0 29.0 29.0 29.0 29.0 29.0 29.0 29.0 29.0 29.0 29.0 29.0 29.0 29.0 29.0 29.0 29.0 29.0 29.0 29.0 29.0 29.0 29.0 29.0 29.0 29.0 29.0 29.0 29.0 29.0 29.0 29.0 29.0 29.0 29.0 29.0 29.0 29.0 29.0 29.0 29.0 29.0 29.0 29.0 29.0 29.0 29.0 29.0 29.0 29.0 29.0 29.0 29.0 29.0 29.0 29.0 29.0 29.0 29.0 29.0 29.0 29.0 29.0 29.0 29.0 29.0 29.0 29.0 29.0 29.0 29.0 29.0 29.0 29.0 29.0 29.0 29.0 29.0 29.0 29.0 29.0 29.0 29.0 29.0 29.0 29.0 29.0 29.0 29.0 29.0 29.0 29.0 29.0 29.0 29.0 29.0 29.0 29.0 29.0 29.0 29.0 29.0 29.0 29.0 29.0 29.0 29.0 29.0 29.0 29.0 29.0 29.0 29.0 29.0 29.0 29.0 29.0 29.0 29.0 29.0 29.0 29.0 29.0 29.0 29.0 29.0 29.0 29.0 29.0 29.0 29.0 29.0 29.0 29.0 29.0 29.0 29.0 29.0 29.0 29.0 29.0 29.0 29.0 29.0 29.0 29.0 29.0 29.0 29.0 29.0 29.0 29.0 29.0 29.0 29.0 29.0 29.0 29.0 29.0 29.0 29.0 29.0 29.0 29.0 29.0 29.0 29.0 29.0 29.0 29.0 29.0 29.0 29.0 29.0 29.0 29.0 29.0 29.0 29.0 29.0 29.0 29.0 29.0 29.0 29.0 29.0 29.0 29.0 29.0 29.0 29.0 29.0 29.0 29.0 29.0 29.0 29.0 29.0 29.0 29.0 29.0 29.0 29.0 29.0 29.0 29.0 29.0 29.0 29.0 29.0 29.0 29.0 29.0 29.0 29.0 29.0 29.0 29.0 29.0 29.0 29.0 29.0 29.0 29.0 29.0 29.0 29.0 29.0 29.0 29.0 29.0 29.0 29.0 29.0 29.0 29.0 29.0 29.0 29.0 29.0 29.0 29.0 29.0 29.0 29.0 29.0 29.0 29.0 29.0 29.0 29.0 29.0 29.0 29.0 29.0 29.0 29.0 29.0 29.0 29.0 29.0 29.0 29.0 29.0 29.0 29.0 29.0 28.969236403589086 29.0 29.0 29.0 29.0 29.0 29.0 29.0 29.0 29.0 29.0 29.0 29.0 29.0 29.0 29.0 29.0 29.0 29.0 29.0 29.0 29.0 29.0 29.0 29.0 29.0 29.0 29.0 29.0 29.0 29.0 29.0 29.0 29.0 29.0 29.0 29.0 29.0 29.0 29.0 29.0 29.0 29.0 29.0 29.0 29.0 29.0 29.0 29.0 29.0 29.0 29.0 29.0 29.0 29.0 29.0 29.0 29.0 29.0 29.0 29.0 29.0 29.0 29.0 29.0 29.0 29.0 29.0 29.0 29.0 29.0 29.0 29.0 29.0 29.0 29.0 29.0 29.0 29.0 29.0 29.0 29.0 29.0 29.0 29.0 29.0 29.0 29.0 29.0 29.0 29.0 29.0 29.0 29.0 29.0 29.0 29.0 29.0 29.0 29.0 29.0 29.0 29.0 29.0 29.0 29.0 29.0 29.0 29.0 29.0 29.0 29.0 29.0 29.09229078923274 29.215345174876397 29.39992675334188 29.553744735396446 29.6767991210401 29.799853506683757 29.98443508514924 30.23054385643655 30.38436183849112 30.599707013367514 30.938106573887566 31.12268815235305 31.461087712873102 32.04559604468046 32.660867972898735 33.30690349752793 34.01446621497894 34.84508331807361 35.706464017579194 36.56784471708478 37.4907526094122 38.44442409815052 39.49038637612159 40.597875846914484 41.67460172129647 42.812854788500275 44.04339864493682 45.12012451931881 46.38143197216627 47.7965574070683 48.780992492217536 50.134590734297745 51.488188976377955 52.84178721845816 54.25691265336019 55.67203808826222 56.994872733931516 58.40999816883354 59.70206921809192 61.086431056583045 62.44002929866325 63.670573155099795 64.93188060794725 66.22395165720565 67.54678630287492 68.77733015931148 70.00787401574803 71.45376304706097 72.80736128914117 74.1917231276323 75.48379417689067 76.77586522614905 78.12946346822926 79.42153451748763 80.74436916315693 82.0056766160044 83.11316608679729 84.62058231093206 85.66654458890312 87.08167002380517 88.2814502838308 89.11206738692547 90.0965024720747 90.68101080388206 91.4501007141549 92.00384544955136 92.31148141366049 92.5268265885369 92.64988097418055 92.68064457059145 92.68064457059145 92.68064457059145 92.61911737776964 92.46529939571508 92.31148141366049 91.94231825672954 91.26551913568943 90.40413843618384 89.45046694744552 88.77366782640541 87.66617835561252 86.46639809558688 85.63578099249222 84.43600073246657 83.20545687603003 82.2517853872917 80.49826039186962 79.26771653543307 78.06793627540742 77.11426478666911 76.06830250869804 74.22248672404322 73.11499725325032 72.13056216810108 71.14612708295184 69.79252884087163 68.50045779161326 67.17762314594395 66.1624244643838 64.80882622230361 63.578282365867054 62.53232008789599 61.14795824940487 60.1019959714338 58.68687053653177 57.240981505218826 56.25654642006958 54.9644753708112 54.0415674784838 52.74949642922542 51.51895257278886 50.596044680461446 49.334737227613985 47.64273942501373 46.596777147042665 45.82768723676982 44.90477934444241 43.7665262772386 42.62827321003479 41.5207837392419 40.56711225050357 39.70573155099798 39.121223219190625 38.35213330891778 37.70609778428859 37.12158945248123 36.41402673503021 35.89104559604468 35.15271928218275 34.41439296832082 33.983702618568024 33.33766709393884 33.0300311298297 32.660867972898735 32.44552279802234 32.260941219556855 32.014832448269544 31.768723676982237 31.676432887749495 31.584142098516754 31.55337850210584 31.522614905694926 31.491851309284012 31.461087712873102 31.36879692364036 31.27650613440762 31.21497894158579 31.091924555942136 30.96887017029848 30.81505218824391 30.5689434169566 30.353598242080206 30.13825306720381 30.07672587438198 30.07672587438198 30.07672587438198 30.07672587438198 30.045962277971068 30.045962277971068 30.015198681560154 30.015198681560154 30.015198681560154 29.98443508514924 29.98443508514924 29.98443508514924 29.98443508514924 29.98443508514924 29.98443508514924 29.98443508514924 29.98443508514924 30.015198681560154 30.045962277971068 30.13825306720381 30.261307452847465 30.415125434902034 30.66123420618934 30.691997802600255 30.72276139901117 31.06116095953122 31.830250869804065 32.507049990844166 33.64530305804798 34.8143197216627 35.82951840322285 37.33693462735763 39.0596960263688 40.136421900750776 42.59750961362388 44.04339864493682 45.427760483427946 47.33510346090459 49.427028016846734 51.488188976377955 52.903314411279986 54.933711774400294 56.93334554110969 58.563816150888115 60.28657754989928 62.255447720197765 63.63980955868888 65.51638893975462 66.86998718183483 68.8080937557224 71.33070866141732 72.34590734297747 73.82255997070132 75.69913935176706 77.02197399743636 78.74473539644754 80.59055118110236 82.22102179088078 83.72843801501557 84.74363669657572 85.75883537813587 86.43563449917598 87.850759934078 88.80443142281632 89.38893975462369 90.0657388756638 90.61948361106025 90.89635597875846 91.26551913568943 91.48086431056583 91.72697308185315 91.88079106390771 91.91155466031861 91.94231825672954 91.91155466031861 91.85002746749679 91.6654458890313 91.48086431056583 91.01941036440212 90.40413843618384 89.72733931514375 88.98901300128182 88.18915949459806 87.57388756637978 86.7125068668742 86.3125801135323 85.08203625709577 84.15912836476835 83.45156564731735 82.40560336934627 81.26735030214246 80.37520600622597 78.71397180003662 77.63724592565464 76.6528108405054 75.51455777330159 74.49935909174144 72.99194286760667 71.5152902398828 69.9463468229262 68.43893059879143 67.33144112799853 66.37776963926021 64.99340780076909 64.03973631203075 62.28621131660868 60.994140267350296 60.132759567844715 58.90221571140816 58.04083501190259 56.90258194469877 55.82585607031679 55.026002563633035 53.918513092840136 52.74949642922542 51.91887932613075 50.81138985533785 50.01153634865409 49.08862845632668 48.011902581944696 47.212049075260936 46.196850393700785 45.396996887017025 44.50485259110053 43.24354513825307 42.59750961362388 41.951474088994686 40.65940303973631 40.044131111518034 39.121223219190625 38.35213330891778 37.58304339864493 36.66013550631752 36.106390770921074 35.27577366782641 34.537447353964474 34.075993407800766 33.64530305804798 33.42995788317158 33.214612708295185 33.060794726240616 32.968503937007874 32.87621314777513 32.75315876213148 32.69163156930965 32.568577183665994 32.414759201611425 32.29170481596777 32.19941402673503 32.04559604468046 31.95330525544772 31.79948727339315 31.676432887749495 31.584142098516754 31.522614905694926 31.430324116462188 31.27650613440762 31.153451748763963 30.96887017029848 30.753524995422083 30.66123420618934 30.5689434169566 30.5689434169566 30.5689434169566 30.5689434169566 30.630470609778428 30.630470609778428 30.72276139901117 30.784288591832997 30.87657938106574 30.938106573887566 30.96887017029848 31.030397363120308 31.153451748763963 31.614905694927668 32.04559604468046 32.84544955136422 33.829884636513455 34.5989745467863 35.61417322834646 36.84471708478301 38.19831532686321 39.5211499725325 39.982603918696206 41.39772935359824 42.84361838491119 43.981871452114994 45.67386925471526 47.85808459989013 49.027101263504846 50.74986266251602 51.58047976561069 53.14942318256729 54.933711774400294 56.195019227247755 58.50228895806629 60.22505035707745 61.82475737044497 63.17835561252517 64.19355429408533 66.1316608679729 67.85442226698407 69.300311298297 70.80772752243178 72.77659769273026 74.00714154916682 75.91448452664346 77.51419154001098 79.42153451748763 81.48269547701886 82.95934810474272 84.89745467863028 86.80479765610693 88.06610510895439 90.34261124336201 90.95788317158029 92.37300860648233 93.69584325215162 94.89562351217725 95.54165903680645 96.71067570042116 97.32594762863944 97.78740157480314 98.06427394250137 98.31038271378868 98.40267350302142 98.40267350302142 98.40267350302142 98.34114631019959 98.15656473173411 97.78740157480314 97.26442043581761 96.52609412195568 95.63394982603918 94.98791430141 93.94195202343893 92.80369895623511 92.15766343160593 90.58872001464934 89.75810291155466 88.98901300128182 87.69694195202344 86.3125801135323 84.83592748580845 83.78996520783738 82.43636696575717 80.99047793444424 79.51382530672038 78.09869987181834 77.14502838308002 76.12982970151987 74.99157663431606 74.06866874198865 72.37667093938839 71.57681743270463 70.71543673319906 69.45412928035158 68.19282182750412 67.02380516388939 65.88555209668559 64.47042666178355 63.14759201611426 61.82475737044497 61.240249038637614 59.886650796557404 58.44076176524446 56.93334554110969 55.425929316974916 54.41073063541476 52.96484160410181 51.61124336202161 50.688335469694195 49.39626442043581 48.28877494964292 47.519685039370074 46.658304339864486 46.0122688152353 45.15088811572972 44.074162241347736 43.48965390954038 42.966672770554844 42.22834645669291 41.5207837392419 40.87474821461271 40.044131111518034 39.21351400842337 38.35213330891778 37.767624977110415 37.09082585607032 36.32173594579747 35.706464017579194 34.5989745467863 34.075993407800766 33.55301226881524 33.214612708295185 33.060794726240616 32.78392235854239 32.69163156930965 32.660867972898735 32.568577183665994 32.507049990844166 32.47628639443325 32.44552279802234 32.38399560520051 32.32246841237868 32.32246841237868 32.32246841237868 32.29170481596777 32.32246841237868 32.3532320087896 32.44552279802234 32.568577183665994 32.93774034059696 33.214612708295185 33.7068302508698 34.29133858267716 34.35286577549899 35.09119208936092 36.22944515656473 37.12158945248123 38.50595129097235 39.61344076176525 41.18238417872185 42.8743819813221 44.72019776597693 46.104559604468044 48.04266617835561 49.21168284197033 51.91887932613075 53.21095037538912 54.74913019593481 56.841054751876946 58.93297930781908 61.055667460172124 63.11682841970335 64.59348104742722 66.77769639260208 68.3774034059696 70.4078007690899 72.53048892144295 74.00714154916682 76.92968320820361 78.34480864310567 79.75993407800769 81.79033144112799 83.1439296832082 85.08203625709577 86.80479765610693 87.97381431972167 89.57352133308916 91.57315509979856 92.15766343160593 93.48049807727523 94.83409631935542 96.15693096502473 96.98754806811938 98.15656473173411 99.264054202527 100.24848928767624 100.8329976194836 101.63285112616737 102.24812305438564 102.832631386193 103.35561252517854 103.69401208569859 104.12470243545138 104.3708112067387 104.73997436366965 105.01684673136788 105.04761032777878 105.07837392418972 105.07837392418972 105.04761032777878 104.92455594213513 104.64768357443693 104.12470243545138 103.38637612158945 102.832631386193 102.24812305438564 101.29445156564731 100.24848928767624 99.0179454312397 98.27961911737776 97.11060245376305 95.91082219373742 95.08020509064274 93.84966123420618 92.58835378135873 91.72697308185315 90.46566562900567 89.57352133308916 88.21992309100898 86.3125801135323 85.29738143197216 84.18989196117926 82.71323933345542 81.63651345907343 80.09833363852775 79.0831349569676 77.17579197949092 75.82219373741073 74.89928584508331 73.91485075993407 72.65354330708661 71.66910822193736 69.97711041933712 69.08496612342061 67.63907709210767 66.31624244643838 65.30104376487822 63.85515473356528 62.47079289507416 61.45559421351401 60.040468778611974 59.025270097051816 57.61014466214979 56.16425563083684 55.11829335286578 53.518586339498256 52.718732832814496 51.949642922541656 50.903680644570585 50.134590734297745 49.334737227613985 48.13495696758835 47.550448635780995 46.41219556857718 45.735396447537084 45.089360922907886 44.227980223402305 43.581944698773114 42.62827321003479 41.64383812488555 40.997802600256364 40.10565830433986 39.5211499725325 38.65976927302692 37.89067936275407 37.33693462735763 36.598608313495696 35.89104559604468 35.337300860648234 34.629738143197216 34.41439296832082 34.01446621497894 33.76835744369163 33.58377586522615 33.49148507599341 33.42995788317158 33.368430690349754 33.30690349752793 33.27613990111701 33.15308551547336 32.968503937007874 32.84544955136422 32.69163156930965 32.568577183665994 32.47628639443325 32.44552279802234 32.38399560520051 32.32246841237868 32.260941219556855 32.19941402673503 32.1378868339132 32.1378868339132 32.1378868339132 32.1378868339132 32.1378868339132 32.1378868339132 32.168650430324114 32.19941402673503 32.260941219556855 32.507049990844166 32.75315876213148 33.214612708295185 33.522248672404324 33.79912104010255 34.537447353964474 35.27577366782641 36.56784471708478 38.075260941219554 39.18275041201245 41.5207837392419 43.058963559787585 44.41256180186779 45.98150521882439 47.33510346090459 49.24244643838125 51.27284380150155 53.118659586156376 55.026002563633035 56.37960080571324 57.54861746932796 59.332906061160955 60.53268632118659 62.870719648416035 64.25508148690716 65.7009705182201 67.39296832082036 68.65427577366782 70.16169199780259 71.76139901117011 72.89965207837392 74.46859549533052 75.63761215894525 77.26808276872367 78.8985533785021 80.62131477751328 81.91338582677164 83.20545687603003 84.34370994323385 85.75883537813587 86.74327046328511 88.4967954587072 89.72733931514375 90.98864676799121 91.57315509979856 92.64988097418055 93.29591649880975 93.75737044497345 94.3111151803699 94.58798754806811 94.68027833730086 94.71104193371177 94.68027833730086 94.64951474088994 94.52646035524629 94.28035158395897 94.03424281267166 93.69584325215162 93.2343893059879 92.86522614905695 92.21919062442777 91.6346822926204 91.11170115363487 90.12726606848562 89.11206738692547 88.34297747665262 86.7125068668742 85.60501739608131 84.22065555759018 83.20545687603003 81.54422266984068 79.75993407800769 77.97564548617468 76.68357443691632 74.74546786302875 73.42263321735945 71.5152902398828 70.22321919062442 68.31587621314777 66.56235121772569 65.02417139718 63.08606482329243 61.8862845632668 60.901849478117555 58.87145211499725 58.163889397546235 56.964109137520595 55.57974729902948 54.31843984618202 52.65720563999267 51.703534151254345 50.842153451748764 49.73466398095587 49.18091924555942 47.765793810657385 46.68906793627541 45.88921442959165 44.627906976744185 43.39736312030763 42.53598242080205 40.997802600256364 40.1979490935726 39.5211499725325 38.53671488738326 37.798388573521336 36.96777147042666 35.82951840322285 35.24501007141549 34.56821095037539 34.229811389855335 34.01446621497894 33.73759384728072 33.460721479582496 33.214612708295185 32.99926753341879 32.84544955136422 32.72239516572056 32.53781358725508 32.29170481596777 32.1378868339132 31.984068851858634 31.768723676982237 31.461087712873102 31.245742537996705 30.938106573887566 30.907342977476652 30.845815784654825 30.753524995422083 30.691997802600255 30.599707013367514 30.5689434169566 30.5689434169566 30.507416224134772 30.47665262772386 30.47665262772386 30.38436183849112 30.23054385643655 30.107489470792896 30.107489470792896 30.07672587438198 30.07672587438198 30.07672587438198 30.07672587438198 30.07672587438198 30.045962277971068 30.045962277971068 30.045962277971068 30.045962277971068 
