29.0 28.969236403589086 29.0 29.0 29.0 28.969236403589086 29.0 29.0 28.969236403589086 29.0 28.969236403589086 28.969236403589086 29.0 29.0 29.0 28.969236403589086 29.0 28.969236403589086 28.969236403589086 29.0 29.0 29.0 28.969236403589086 29.0 29.0 28.969236403589086 29.0 29.0 29.0 29.0 29.0 29.0 29.0 29.0 29.0 29.0 29.0 29.0 29.0 29.0 29.0 29.0 29.0 28.969236403589086 29.0 29.0 28.969236403589086 29.0 29.0 28.969236403589086 29.0 29.0 28.969236403589086 29.0 29.0 29.0 28.969236403589086 29.0 29.0 29.0 28.969236403589086 29.0 29.0 29.0 28.969236403589086 29.0 29.0 29.0 29.0 29.0 29.0 29.0 29.0 28.969236403589086 29.0 29.0 28.969236403589086 28.969236403589086 28.969236403589086 29.0 28.969236403589086 29.0 29.0 29.0 28.969236403589086 28.969236403589086 29.0 29.0 29.0 29.0 29.0 29.0 29.0 29.0 28.969236403589086 29.0 28.969236403589086 28.969236403589086 29.0 28.969236403589086 29.0 29.0 29.0 28.969236403589086 29.0 29.0 28.969236403589086 29.0 29.0 29.0 29.0 28.969236403589086 29.0 29.0 29.0 29.0 28.969236403589086 29.0 29.0 29.0 28.969236403589086 28.969236403589086 28.969236403589086 29.0 28.969236403589086 28.969236403589086 28.969236403589086 29.0 28.969236403589086 29.0 29.0 29.0 28.969236403589086 29.0 28.969236403589086 29.0 28.969236403589086 29.0 29.0 28.969236403589086 29.0 29.0 29.0 29.0 29.0 29.0 29.0 29.0 28.969236403589086 29.0 29.0 28.969236403589086 28.969236403589086 29.0 29.0 29.0 29.0 28.969236403589086 29.0 29.0 29.0 29.0 28.969236403589086 28.969236403589086 29.0 28.969236403589086 29.0 28.969236403589086 28.969236403589086 29.0 29.0 29.0 29.0 29.0 29.0 29.0 29.0 29.0 29.0 29.0 29.0 29.0 28.969236403589086 29.0 29.0 29.0 29.0 29.0 29.0 29.0 29.0 29.0 29.0 29.0 29.0 29.0 29.0 29.0 29.0 29.0 28.969236403589086 29.0 28.969236403589086 29.0 29.0 29.0 29.0 29.0 29.0 29.0 29.0 29.0 29.0 28.969236403589086 28.969236403589086 28.969236403589086 29.0 29.0 29.0 28.969236403589086 28.969236403589086 28.969236403589086 29.0 29.0 29.0 28.969236403589086 29.0 29.0 29.0 28.969236403589086 29.0 29.0 29.0 28.969236403589086 29.0 29.0 29.0 29.0 28.969236403589086 29.0 29.0 29.0 29.0 29.0 28.969236403589086 28.969236403589086 29.0 29.0 29.0 29.0 29.0 29.0 29.0 28.969236403589086 28.969236403589086 29.0 29.0 29.0 29.0 29.0 29.0 29.0 28.969236403589086 28.969236403589086 29.0 29.0 29.0 28.969236403589086 28.969236403589086 29.0 29.0 29.0 29.0 29.0 29.0 29.0 29.0 29.0 29.0 29.0 29.0 28.969236403589086 29.0 29.0 28.969236403589086 28.969236403589086 29.0 29.0 29.0 29.0 29.0 29.0 29.0 28.969236403589086 29.0 29.0 29.0 29.0 29.0 29.0 28.969236403589086 29.0 29.0 29.0 29.0 28.969236403589086 29.0 29.0 28.969236403589086 29.0 29.0 29.0 28.969236403589086 29.0 29.0 29.0 28.969236403589086 29.0 28.969236403589086 29.0 29.0 29.0 29.0 29.0 29.0 29.0 29.0 29.0 29.0 29.0 29.0 28.969236403589086 29.0 29.0 28.969236403589086 28.969236403589086 29.0 29.0 29.0 29.0 29.0 29.0 29.0 29.0 29.0 28.969236403589086 29.0 29.0 29.0 28.969236403589086 29.0 29.0 29.0 29.0 29.0 29.0 29.0 29.0 29.0 29.0 29.0 29.0 28.969236403589086 29.0 28.969236403589086 29.0 29.0 29.0 29.0 28.969236403589086 29.0 28.969236403589086 29.0 29.0 29.0 29.0 29.0 29.0 28.969236403589086 29.0 29.0 28.969236403589086 29.0 29.0 29.0 29.0 28.969236403589086 29.0 29.0 29.0 29.0 28.969236403589086 29.0 29.0 29.0 29.0 29.0 28.969236403589086 29.0 29.0 29.0 28.969236403589086 28.969236403589086 29.0 29.0 28.969236403589086 28.969236403589086 29.0 29.0 28.969236403589086 29.0 28.969236403589086 28.969236403589086 29.0 28.969236403589086 28.969236403589086 29.0 29.0 29.0 28.969236403589086 29.0 29.0 29.0 29.0 28.969236403589086 29.0 28.969236403589086 29.0 29.0 28.969236403589086 29.0 28.969236403589086 29.0 28.969236403589086 28.969236403589086 29.0 29.0 29.0 29.0 29.0 29.0 28.969236403589086 29.0 28.969236403589086 29.0 29.0 29.0 29.0 29.0 29.0 28.969236403589086 29.0 29.0 28.969236403589086 29.0 29.0 29.0 29.0 29.0 29.0 29.0 29.0 29.0 28.969236403589086 28.969236403589086 29.0 29.0 29.0 29.0 29.0 29.0 29.0 29.0 29.0 29.0 29.0 28.969236403589086 28.969236403589086 28.969236403589086 29.0 28.969236403589086 28.969236403589086 29.0 29.0 29.0 28.969236403589086 29.0 29.0 29.0 29.0 29.0 29.0 28.969236403589086 29.0 29.0 29.0 29.0 29.0 28.969236403589086 29.0 29.0 29.0 28.969236403589086 28.969236403589086 29.0 29.0 28.969236403589086 29.0 29.0 29.0 28.969236403589086 29.0 28.969236403589086 29.0 29.0 29.0 29.0 29.0 29.0 29.0 29.0 29.0 29.0 28.969236403589086 29.0 29.0 28.969236403589086 29.0 28.969236403589086 29.0 29.0 29.0 29.0 29.0 29.0 29.0 29.0 29.0 29.0 29.0 29.0 29.0 29.0 29.0 29.0 29.030763596410914 29.09229078923274 29.215345174876397 29.369163156930966 29.49221754257462 29.6767991210401 29.83061710309467 29.953671488738326 30.169016663614723 30.23054385643655 30.29207104925838 30.38436183849112 30.445889031312948 30.538179820545686 30.599707013367514 30.691997802600255 30.784288591832997 30.87657938106574 30.96887017029848 31.091924555942136 31.21497894158579 31.338033327229446 31.461087712873102 31.70719648416041 31.922541659036806 32.168650430324114 32.414759201611425 32.69163156930965 32.968503937007874 33.27613990111701 33.58377586522615 33.860648232924376 34.16828419703351 34.50668375755356 34.8143197216627 35.12195568577184 35.429591649880976 35.737227613990115 36.01409998168833 36.32173594579747 36.62937190990661 36.906244277604834 37.18311664530306 37.459989013001284 37.73686138069951 38.013733748397726 38.29060611609595 38.567478483794176 38.875114447903314 39.15198681560154 39.428859183299764 39.70573155099798 39.95184032228529 40.1979490935726 40.50558505768174 40.81322102179088 41.090093389489105 41.336202160776416 41.61307452847464 41.85918329976195 42.105292071049256 42.35140084233657 42.566746017212964 42.812854788500275 43.0897271561985 43.305072331074896 43.5511811023622 43.828053470060425 44.10492583775865 44.381798205456874 44.72019776597693 45.02783373008606 45.36623329060612 45.643105658304336 45.91997802600257 46.2276139901117 46.56601355063175 46.87364951474089 47.212049075260936 47.48892144295917 47.7965574070683 48.13495696758835 48.473356528108404 48.84251968503936 49.1501556491485 49.45779161325764 49.70390038454495 49.95000915583226 50.22688152353049 50.4729902948178 50.74986266251602 50.995971433803334 51.242080205090645 51.488188976377955 51.703534151254345 51.91887932613075 52.103460904596226 52.31880607947262 52.53415125434902 52.74949642922542 52.96484160410181 53.18018677897821 53.364768357443694 53.580113532320084 53.76469511078557 54.01080388207288 54.226149056949275 54.41073063541476 54.59531221388024 54.77989379234572 54.933711774400294 55.087529756454856 55.27211133492034 55.45669291338582 55.61051089544039 55.79509247390588 55.97967405237136 56.13349203442593 56.28731001648049 56.441127998535066 56.62570957700055 56.81029115546603 56.994872733931516 57.14869071598608 57.36403589086248 57.48709027650613 57.6409082585607 57.82548983702618 57.94854422266984 58.13312580113532 58.28694378318989 58.44076176524446 58.62534334370994 58.779161325764505 58.90221571140816 59.117560886284565 59.30214246475004 59.45596044680461 59.60977842885918 59.79436000732467 59.91741439296832 60.1019959714338 60.22505035707745 60.34810474272111 60.50192272477568 60.655740706830244 60.84032228529573 60.932613074528476 61.086431056583045 61.20948544222669 61.30177623145944 61.42483061710309 61.48635780992492 61.57864859915766 61.64017579197949 61.73246658121223 61.79399377403406 61.82475737044497 61.855520966855885 61.8862845632668 61.8862845632668 61.8862845632668 61.8862845632668 61.8862845632668 61.8862845632668 61.8862845632668 61.8862845632668 61.8862845632668 61.91704815967771 61.91704815967771 61.91704815967771 61.91704815967771 61.947811756088626 61.947811756088626 61.947811756088626 61.947811756088626 61.947811756088626 61.91704815967771 61.947811756088626 61.947811756088626 61.947811756088626 61.947811756088626 61.947811756088626 61.947811756088626 61.947811756088626 61.91704815967771 61.91704815967771 61.91704815967771 61.91704815967771 61.91704815967771 61.91704815967771 61.947811756088626 61.947811756088626 61.91704815967771 61.91704815967771 61.91704815967771 61.91704815967771 61.91704815967771 61.91704815967771 61.91704815967771 61.91704815967771 61.91704815967771 61.8862845632668 61.91704815967771 61.91704815967771 61.91704815967771 61.91704815967771 61.91704815967771 61.91704815967771 61.91704815967771 61.91704815967771 61.91704815967771 61.91704815967771 61.8862845632668 61.91704815967771 61.8862845632668 61.8862845632668 61.8862845632668 61.855520966855885 61.855520966855885 61.82475737044497 61.82475737044497 61.82475737044497 61.82475737044497 61.82475737044497 61.855520966855885 61.82475737044497 61.82475737044497 61.855520966855885 61.855520966855885 61.855520966855885 61.82475737044497 61.82475737044497 61.855520966855885 61.855520966855885 61.82475737044497 61.82475737044497 61.82475737044497 61.82475737044497 61.79399377403406 61.79399377403406 61.79399377403406 61.79399377403406 61.76323017762314 61.76323017762314 61.76323017762314 61.76323017762314 61.76323017762314 61.76323017762314 61.76323017762314 61.76323017762314 61.76323017762314 61.76323017762314 61.76323017762314 61.76323017762314 61.76323017762314 61.76323017762314 61.76323017762314 61.76323017762314 61.76323017762314 61.76323017762314 61.76323017762314 61.76323017762314 61.76323017762314 61.76323017762314 61.79399377403406 61.76323017762314 61.76323017762314 61.76323017762314 61.76323017762314 61.76323017762314 61.76323017762314 61.76323017762314 61.76323017762314 61.76323017762314 61.76323017762314 61.79399377403406 61.76323017762314 61.76323017762314 61.76323017762314 61.76323017762314 61.76323017762314 61.79399377403406 61.76323017762314 61.76323017762314 61.76323017762314 61.76323017762314 61.76323017762314 61.76323017762314 61.76323017762314 61.76323017762314 61.76323017762314 61.76323017762314 61.76323017762314 61.79399377403406 61.76323017762314 61.76323017762314 61.76323017762314 61.76323017762314 61.76323017762314 61.79399377403406 61.76323017762314 61.76323017762314 61.76323017762314 61.76323017762314 61.76323017762314 61.76323017762314 61.76323017762314 61.76323017762314 61.76323017762314 61.76323017762314 61.76323017762314 61.76323017762314 61.76323017762314 61.76323017762314 61.76323017762314 61.76323017762314 61.76323017762314 61.73246658121223 61.701702984801315 61.6709393883904 61.64017579197949 61.57864859915766 61.547885002746746 61.547885002746746 61.547885002746746 61.51712140633583 61.51712140633583 61.51712140633583 61.48635780992492 61.48635780992492 61.48635780992492 61.48635780992492 61.48635780992492 61.48635780992492 61.48635780992492 61.48635780992492 61.48635780992492 61.48635780992492 61.48635780992492 61.48635780992492 61.45559421351401 61.45559421351401 61.45559421351401 61.45559421351401 61.45559421351401 61.45559421351401 61.48635780992492 61.45559421351401 61.48635780992492 61.45559421351401 61.45559421351401 61.45559421351401 61.48635780992492 61.45559421351401 61.45559421351401 61.45559421351401 61.45559421351401 61.45559421351401 61.48635780992492 61.48635780992492 61.45559421351401 61.48635780992492 61.48635780992492 61.48635780992492 61.48635780992492 61.45559421351401 61.45559421351401 61.45559421351401 61.45559421351401 61.45559421351401 61.45559421351401 61.45559421351401 61.45559421351401 61.48635780992492 61.48635780992492 61.45559421351401 61.48635780992492 61.48635780992492 61.48635780992492 61.48635780992492 61.48635780992492 61.48635780992492 61.48635780992492 61.45559421351401 61.48635780992492 61.48635780992492 61.48635780992492 61.51712140633583 61.51712140633583 61.51712140633583 61.51712140633583 61.51712140633583 61.51712140633583 61.547885002746746 61.51712140633583 61.51712140633583 61.547885002746746 61.51712140633583 61.547885002746746 61.547885002746746 61.547885002746746 61.547885002746746 61.57864859915766 61.547885002746746 61.547885002746746 61.547885002746746 61.547885002746746 61.547885002746746 61.547885002746746 61.547885002746746 61.547885002746746 61.547885002746746 61.547885002746746 61.547885002746746 61.547885002746746 61.547885002746746 61.547885002746746 61.547885002746746 61.547885002746746 61.547885002746746 61.547885002746746 61.547885002746746 61.547885002746746 61.547885002746746 61.547885002746746 61.547885002746746 61.547885002746746 61.547885002746746 61.547885002746746 61.547885002746746 61.547885002746746 61.547885002746746 61.547885002746746 61.547885002746746 61.547885002746746 61.547885002746746 61.547885002746746 61.547885002746746 61.547885002746746 61.547885002746746 61.547885002746746 61.547885002746746 61.57864859915766 61.57864859915766 61.57864859915766 61.57864859915766 61.57864859915766 61.609412195568574 61.57864859915766 61.609412195568574 61.609412195568574 61.609412195568574 61.609412195568574 61.609412195568574 61.609412195568574 61.609412195568574 61.609412195568574 61.609412195568574 61.609412195568574 61.609412195568574 61.609412195568574 61.609412195568574 61.609412195568574 61.609412195568574 61.609412195568574 61.609412195568574 61.609412195568574 61.609412195568574 61.609412195568574 61.609412195568574 61.609412195568574 61.609412195568574 61.609412195568574 61.609412195568574 61.609412195568574 61.609412195568574 61.609412195568574 61.609412195568574 61.609412195568574 61.64017579197949 61.609412195568574 61.609412195568574 61.609412195568574 61.609412195568574 61.609412195568574 61.609412195568574 61.609412195568574 61.609412195568574 61.609412195568574 61.609412195568574 61.609412195568574 61.609412195568574 61.609412195568574 61.609412195568574 61.609412195568574 61.609412195568574 61.609412195568574 61.609412195568574 61.609412195568574 61.609412195568574 61.609412195568574 61.609412195568574 61.609412195568574 61.609412195568574 61.609412195568574 61.609412195568574 61.609412195568574 61.609412195568574 61.609412195568574 61.609412195568574 61.609412195568574 61.609412195568574 61.609412195568574 61.609412195568574 61.609412195568574 61.609412195568574 61.609412195568574 61.609412195568574 61.609412195568574 61.609412195568574 61.609412195568574 61.609412195568574 61.609412195568574 61.609412195568574 61.609412195568574 61.57864859915766 61.609412195568574 61.609412195568574 61.609412195568574 61.57864859915766 61.609412195568574 61.57864859915766 61.57864859915766 61.609412195568574 61.57864859915766 61.609412195568574 61.609412195568574 61.57864859915766 61.609412195568574 61.57864859915766 61.547885002746746 61.51712140633583 61.45559421351401 61.39406702069218 61.36330342428126 61.240249038637614 61.17872184581578 61.14795824940487 61.14795824940487 61.11719465299395 61.055667460172124 60.96337667093938 60.87108588170665 60.71726789965207 60.655740706830244 60.50192272477568 60.28657754989928 60.132759567844715 59.978941585790146 59.82512360373558 59.64054202527009 59.48672404321553 59.363669657571876 59.2098516755173 59.025270097051816 58.87145211499725 58.7483977293536 58.62534334370994 58.44076176524446 58.25618018677898 58.163889397546235 58.04083501190259 57.88701702984801 57.79472624061527 57.61014466214979 57.4255630836843 57.33327229445156 57.117927119575164 56.994872733931516 56.841054751876946 56.59494598058963 56.47189159494598 56.225782823658676 56.041201245193186 55.79509247390588 55.51822010620765 55.33363852774217 55.05676616004395 54.81065738875664 54.59531221388024 54.34920344259293 54.13385826771653 53.73393151437466 53.518586339498256 53.303241164621866 53.026368796923634 52.74949642922542 52.56491485075993 52.288042483061716 52.011170115363484 51.73429774766526 51.42666178355613 51.30360739791247 51.02673503021424 50.74986266251602 50.442226698406884 50.134590734297745 49.91924555942135 49.61160959531221 49.30397363120308 48.96557407068302 48.84251968503936 48.565647317341146 48.25801135323201 47.95037538912287 47.765793810657385 47.42739425013734 47.05823109320637 46.84288591832997 46.658304339864486 46.504486357809924 46.2276139901117 45.98150521882439 45.70463285112616 45.427760483427946 45.15088811572972 44.96630653726424 44.75096136238784 44.56637978392236 44.135689434169564 43.828053470060425 43.612708295184035 43.33583592748581 43.028199963376665 42.812854788500275 42.38216443874748 42.197582860282 41.951474088994686 41.67460172129647 41.490020142830986 41.243911371543675 40.936275407434536 40.75169382896905 40.50558505768174 40.35176707562717 40.22871268998352 40.044131111518034 39.921076725874386 39.674967954587075 39.49038637612159 39.33656839406702 39.15198681560154 39.09045962277971 38.81358725508149 38.59824208020509 38.413660501739606 38.22907892327412 38.013733748397726 37.89067936275407 37.64457059146676 37.521516205823104 37.36769822376854 37.18311664530306 37.060062259659404 36.906244277604834 36.69089910272844 36.56784471708478 36.29097234938656 36.198681560153815 36.07562717451016 35.82951840322285 35.737227613990115 35.55264603552463 35.429591649880976 35.21424647500458 35.06042849295001 34.937374107306354 34.75279252884087 34.5989745467863 34.475920161142646 34.29133858267716 34.137520600622594 33.95293902215711 33.79912104010255 33.7068302508698 33.58377586522615 33.460721479582496 33.368430690349754 33.2453763047061 33.12232191906244 33.060794726240616 32.93774034059696 32.84544955136422 32.78392235854239 32.660867972898735 32.568577183665994 32.44552279802234 32.38399560520051 32.29170481596777 32.168650430324114 32.107123237502286 31.984068851858634 31.891778062625892 31.79948727339315 31.737960080571323 31.737960080571323 31.70719648416041 31.70719648416041 31.676432887749495 31.614905694927668 31.55337850210584 31.491851309284012 31.399560520051274 31.36879692364036 31.27650613440762 31.153451748763963 31.091924555942136 30.999633766709394 30.907342977476652 30.753524995422083 30.630470609778428 30.538179820545686 30.322834645669293 30.23054385643655 30.169016663614723 30.07672587438198 30.045962277971068 30.015198681560154 29.98443508514924 29.953671488738326 29.922907892327412 29.8921442959165 29.861380699505585 29.861380699505585 29.861380699505585 29.861380699505585 29.83061710309467 29.83061710309467 29.83061710309467 29.799853506683757 29.799853506683757 29.769089910272843 29.769089910272843 29.73832631386193 29.707562717451015 29.707562717451015 29.6767991210401 29.6767991210401 29.646035524629188 29.646035524629188 29.615271928218274 29.615271928218274 29.615271928218274 29.58450833180736 29.58450833180736 29.553744735396446 29.522981138985532 29.522981138985532 29.49221754257462 29.49221754257462 29.461453946163708 29.461453946163708 29.430690349752794 29.39992675334188 29.430690349752794 29.39992675334188 29.39992675334188 29.369163156930966 29.369163156930966 29.369163156930966 29.369163156930966 29.369163156930966 29.369163156930966 29.338399560520052 29.338399560520052 29.338399560520052 29.338399560520052 29.338399560520052 29.30763596410914 29.30763596410914 29.30763596410914 29.30763596410914 29.30763596410914 29.30763596410914 29.30763596410914 29.30763596410914 29.276872367698225 29.30763596410914 29.30763596410914 29.30763596410914 29.30763596410914 29.30763596410914 29.30763596410914 29.30763596410914 29.30763596410914 29.30763596410914 29.30763596410914 29.30763596410914 29.30763596410914 29.276872367698225 29.30763596410914 29.30763596410914 29.276872367698225 29.30763596410914 29.276872367698225 29.30763596410914 29.276872367698225 29.276872367698225 29.276872367698225 29.276872367698225 29.276872367698225 29.30763596410914 29.276872367698225 29.30763596410914 29.276872367698225 29.276872367698225 29.30763596410914 29.276872367698225 29.276872367698225 29.30763596410914 29.276872367698225 29.30763596410914 29.276872367698225 29.276872367698225 29.30763596410914 29.30763596410914 29.276872367698225 29.30763596410914 29.30763596410914 29.276872367698225 29.276872367698225 29.276872367698225 29.30763596410914 29.30763596410914 29.276872367698225 29.30763596410914 29.276872367698225 29.276872367698225 29.276872367698225 29.276872367698225 29.276872367698225 29.276872367698225 29.276872367698225 29.276872367698225 29.24610877128731 29.24610877128731 29.24610877128731 29.24610877128731 29.24610877128731 29.24610877128731 29.24610877128731 29.24610877128731 29.215345174876397 29.215345174876397 29.215345174876397 29.215345174876397 29.215345174876397 29.24610877128731 29.215345174876397 29.24610877128731 29.215345174876397 29.215345174876397 29.24610877128731 29.215345174876397 29.24610877128731 29.24610877128731 29.215345174876397 29.215345174876397 29.215345174876397 29.215345174876397 29.215345174876397 29.24610877128731 29.215345174876397 29.215345174876397 29.215345174876397 29.215345174876397 29.24610877128731 29.215345174876397 29.24610877128731 29.215345174876397 29.215345174876397 29.215345174876397 29.215345174876397 29.215345174876397 29.215345174876397 29.215345174876397 29.215345174876397 29.215345174876397 29.215345174876397 29.215345174876397 29.215345174876397 29.215345174876397 29.215345174876397 29.215345174876397 29.215345174876397 29.215345174876397 29.215345174876397 29.215345174876397 29.215345174876397 29.24610877128731 29.215345174876397 29.215345174876397 29.215345174876397 29.215345174876397 29.215345174876397 29.215345174876397 29.215345174876397 29.215345174876397 29.215345174876397 29.215345174876397 29.215345174876397 29.215345174876397 29.215345174876397 29.215345174876397 29.215345174876397 29.215345174876397 29.215345174876397 29.215345174876397 29.215345174876397 29.215345174876397 29.215345174876397 29.215345174876397 29.215345174876397 29.215345174876397 29.215345174876397 29.215345174876397 29.215345174876397 29.215345174876397 29.215345174876397 29.215345174876397 29.215345174876397 29.215345174876397 29.215345174876397 29.215345174876397 29.215345174876397 29.215345174876397 29.215345174876397 29.215345174876397 29.215345174876397 29.215345174876397 29.215345174876397 29.215345174876397 29.215345174876397 29.215345174876397 29.215345174876397 29.215345174876397 29.215345174876397 29.215345174876397 29.215345174876397 29.215345174876397 29.215345174876397 29.215345174876397 29.215345174876397 29.215345174876397 29.215345174876397 29.215345174876397 29.215345174876397 29.215345174876397 29.215345174876397 29.215345174876397 29.215345174876397 29.215345174876397 29.215345174876397 29.215345174876397 29.215345174876397 29.215345174876397 29.215345174876397 29.215345174876397 29.215345174876397 29.215345174876397 29.215345174876397 29.215345174876397 29.215345174876397 29.215345174876397 29.215345174876397 29.215345174876397 29.215345174876397 29.215345174876397 29.215345174876397 29.215345174876397 29.215345174876397 29.215345174876397 29.215345174876397 29.215345174876397 29.215345174876397 29.215345174876397 29.215345174876397 29.215345174876397 29.215345174876397 29.215345174876397 29.215345174876397 29.215345174876397 29.215345174876397 29.215345174876397 29.215345174876397 29.215345174876397 29.215345174876397 29.215345174876397 29.215345174876397 29.215345174876397 29.24610877128731 29.215345174876397 29.215345174876397 29.215345174876397 29.215345174876397 29.215345174876397 29.215345174876397 29.215345174876397 29.215345174876397 29.215345174876397 29.215345174876397 29.215345174876397 29.215345174876397 29.215345174876397 29.215345174876397 29.215345174876397 29.215345174876397 29.215345174876397 29.215345174876397 29.215345174876397 29.215345174876397 29.215345174876397 29.215345174876397 29.184581578465483 29.184581578465483 29.184581578465483 29.184581578465483 29.184581578465483 29.184581578465483 29.184581578465483 29.184581578465483 29.184581578465483 29.184581578465483 29.184581578465483 29.184581578465483 29.184581578465483 29.184581578465483 29.184581578465483 29.184581578465483 29.184581578465483 29.184581578465483 29.184581578465483 29.184581578465483 29.184581578465483 29.184581578465483 29.184581578465483 29.184581578465483 29.184581578465483 29.184581578465483 29.184581578465483 29.184581578465483 29.184581578465483 29.15381798205457 29.184581578465483 29.184581578465483 29.184581578465483 29.184581578465483 29.184581578465483 29.184581578465483 29.184581578465483 29.184581578465483 29.184581578465483 29.184581578465483 29.184581578465483 29.184581578465483 29.184581578465483 29.184581578465483 29.184581578465483 29.184581578465483 29.184581578465483 29.184581578465483 29.184581578465483 29.184581578465483 29.184581578465483 29.184581578465483 29.184581578465483 29.184581578465483 29.184581578465483 29.184581578465483 29.184581578465483 29.184581578465483 29.184581578465483 29.184581578465483 29.184581578465483 29.184581578465483 29.184581578465483 29.184581578465483 29.184581578465483 29.184581578465483 29.184581578465483 29.184581578465483 29.184581578465483 29.184581578465483 29.184581578465483 29.184581578465483 29.184581578465483 29.184581578465483 29.184581578465483 29.184581578465483 29.184581578465483 29.184581578465483 29.184581578465483 29.184581578465483 29.184581578465483 29.184581578465483 29.184581578465483 29.184581578465483 29.184581578465483 29.184581578465483 29.184581578465483 29.184581578465483 29.184581578465483 29.184581578465483 29.184581578465483 29.184581578465483 29.184581578465483 29.184581578465483 29.184581578465483 29.184581578465483 29.184581578465483 29.184581578465483 29.184581578465483 29.184581578465483 29.184581578465483 29.184581578465483 29.184581578465483 29.184581578465483 29.184581578465483 29.184581578465483 29.184581578465483 29.184581578465483 29.184581578465483 29.184581578465483 29.184581578465483 29.184581578465483 29.184581578465483 29.184581578465483 29.184581578465483 29.184581578465483 29.184581578465483 29.184581578465483 29.184581578465483 29.184581578465483 29.184581578465483 29.15381798205457 29.184581578465483 29.184581578465483 29.184581578465483 29.184581578465483 29.184581578465483 29.184581578465483 29.184581578465483 29.184581578465483 29.184581578465483 29.184581578465483 29.184581578465483 29.184581578465483 29.184581578465483 29.184581578465483 29.184581578465483 29.184581578465483 29.184581578465483 29.184581578465483 29.184581578465483 29.184581578465483 29.184581578465483 29.184581578465483 29.184581578465483 29.184581578465483 29.184581578465483 29.184581578465483 29.184581578465483 29.184581578465483 29.184581578465483 29.184581578465483 29.184581578465483 29.184581578465483 29.184581578465483 29.184581578465483 29.184581578465483 29.184581578465483 29.184581578465483 29.184581578465483 29.184581578465483 29.184581578465483 29.184581578465483 29.184581578465483 29.184581578465483 29.184581578465483 29.184581578465483 29.184581578465483 29.184581578465483 29.184581578465483 29.184581578465483 29.184581578465483 29.184581578465483 29.184581578465483 29.184581578465483 29.184581578465483 29.184581578465483 29.184581578465483 29.184581578465483 29.184581578465483 29.184581578465483 29.184581578465483 29.184581578465483 29.184581578465483 29.184581578465483 29.184581578465483 29.184581578465483 29.184581578465483 29.184581578465483 29.184581578465483 29.184581578465483 29.184581578465483 29.184581578465483 29.184581578465483 29.184581578465483 29.15381798205457 29.184581578465483 29.184581578465483 29.184581578465483 29.184581578465483 29.184581578465483 29.15381798205457 29.184581578465483 29.184581578465483 29.184581578465483 29.184581578465483 29.184581578465483 29.184581578465483 29.184581578465483 29.184581578465483 29.184581578465483 29.184581578465483 29.184581578465483 29.184581578465483 29.184581578465483 29.184581578465483 29.184581578465483 29.184581578465483 29.184581578465483 29.184581578465483 29.184581578465483 29.184581578465483 29.184581578465483 29.184581578465483 29.184581578465483 29.184581578465483 29.184581578465483 29.184581578465483 29.184581578465483 29.184581578465483 29.184581578465483 29.184581578465483 29.184581578465483 29.184581578465483 29.184581578465483 29.184581578465483 29.184581578465483 29.184581578465483 29.15381798205457 29.184581578465483 29.184581578465483 29.184581578465483 29.184581578465483 29.184581578465483 29.184581578465483 29.184581578465483 29.15381798205457 29.184581578465483 29.184581578465483 29.184581578465483 29.184581578465483 29.184581578465483 29.184581578465483 29.184581578465483 29.184581578465483 29.184581578465483 29.184581578465483 29.184581578465483 29.15381798205457 29.184581578465483 29.184581578465483 29.184581578465483 29.184581578465483 29.184581578465483 29.184581578465483 29.184581578465483 29.184581578465483 29.184581578465483 29.184581578465483 29.184581578465483 29.184581578465483 29.184581578465483 29.184581578465483 29.184581578465483 29.184581578465483 29.184581578465483 29.184581578465483 29.184581578465483 29.184581578465483 29.184581578465483 29.184581578465483 29.184581578465483 29.184581578465483 29.184581578465483 29.184581578465483 29.184581578465483 29.184581578465483 29.184581578465483 29.184581578465483 29.184581578465483 29.184581578465483 29.184581578465483 29.184581578465483 29.15381798205457 29.184581578465483 29.184581578465483 29.184581578465483 29.184581578465483 29.184581578465483 29.184581578465483 29.184581578465483 29.184581578465483 29.184581578465483 29.15381798205457 29.184581578465483 29.184581578465483 29.184581578465483 29.184581578465483 29.184581578465483 29.184581578465483 29.184581578465483 29.184581578465483 29.184581578465483 29.184581578465483 29.184581578465483 29.184581578465483 29.184581578465483 29.184581578465483 29.184581578465483 29.184581578465483 29.184581578465483 29.184581578465483 29.184581578465483 29.184581578465483 29.184581578465483 29.184581578465483 29.184581578465483 29.184581578465483 29.184581578465483 29.184581578465483 29.184581578465483 29.184581578465483 29.184581578465483 29.184581578465483 29.184581578465483 29.184581578465483 29.184581578465483 29.184581578465483 29.184581578465483 29.184581578465483 29.184581578465483 29.184581578465483 29.184581578465483 29.184581578465483 29.184581578465483 29.184581578465483 29.184581578465483 29.184581578465483 29.184581578465483 29.184581578465483 29.184581578465483 29.184581578465483 29.184581578465483 29.184581578465483 29.184581578465483 29.184581578465483 29.184581578465483 29.184581578465483 29.184581578465483 29.184581578465483 29.184581578465483 29.184581578465483 29.184581578465483 29.184581578465483 29.184581578465483 29.184581578465483 29.184581578465483 29.184581578465483 29.184581578465483 29.184581578465483 29.184581578465483 29.184581578465483 29.15381798205457 29.184581578465483 29.184581578465483 29.184581578465483 29.184581578465483 29.184581578465483 29.184581578465483 29.184581578465483 29.184581578465483 29.184581578465483 29.184581578465483 29.184581578465483 29.184581578465483 29.184581578465483 29.184581578465483 29.184581578465483 29.184581578465483 29.184581578465483 29.184581578465483 29.184581578465483 29.184581578465483 29.184581578465483 29.184581578465483 29.184581578465483 29.15381798205457 29.184581578465483 29.184581578465483 29.184581578465483 29.184581578465483 29.184581578465483 29.184581578465483 29.184581578465483 29.184581578465483 29.184581578465483 29.184581578465483 29.184581578465483 29.184581578465483 29.184581578465483 29.184581578465483 29.184581578465483 29.184581578465483 29.184581578465483 29.184581578465483 29.184581578465483 29.184581578465483 29.15381798205457 29.15381798205457 29.15381798205457 29.15381798205457 29.15381798205457 29.15381798205457 29.123054385643655 29.15381798205457 29.123054385643655 29.15381798205457 29.123054385643655 29.123054385643655 29.123054385643655 29.123054385643655 29.123054385643655 29.123054385643655 29.123054385643655 29.123054385643655 29.123054385643655 29.123054385643655 29.123054385643655 29.123054385643655 29.123054385643655 29.123054385643655 29.123054385643655 29.123054385643655 29.123054385643655 29.15381798205457 29.123054385643655 29.123054385643655 29.123054385643655 29.15381798205457 29.123054385643655 29.123054385643655 29.123054385643655 29.15381798205457 29.123054385643655 29.123054385643655 29.123054385643655 29.123054385643655 29.123054385643655 29.123054385643655 29.123054385643655 29.15381798205457 29.123054385643655 29.123054385643655 29.123054385643655 29.123054385643655 29.123054385643655 29.123054385643655 29.123054385643655 29.123054385643655 29.123054385643655 29.123054385643655 29.123054385643655 29.123054385643655 29.15381798205457 29.123054385643655 29.123054385643655 29.123054385643655 29.123054385643655 29.123054385643655 29.15381798205457 29.15381798205457 29.123054385643655 29.123054385643655 29.123054385643655 29.123054385643655 29.123054385643655 29.123054385643655 29.123054385643655 29.123054385643655 29.123054385643655 29.123054385643655 29.123054385643655 29.123054385643655 29.15381798205457 29.123054385643655 29.123054385643655 29.123054385643655 29.123054385643655 29.15381798205457 29.123054385643655 29.123054385643655 29.123054385643655 29.15381798205457 29.123054385643655 29.123054385643655 29.123054385643655 29.123054385643655 29.123054385643655 29.123054385643655 29.123054385643655 29.123054385643655 29.123054385643655 29.123054385643655 29.123054385643655 29.123054385643655 29.123054385643655 29.123054385643655 29.15381798205457 29.15381798205457 29.15381798205457 29.15381798205457 29.15381798205457 29.15381798205457 29.15381798205457 29.15381798205457 29.15381798205457 29.15381798205457 29.184581578465483 29.215345174876397 29.24610877128731 29.30763596410914 29.369163156930966 29.39992675334188 29.430690349752794 29.461453946163708 29.522981138985532 29.553744735396446 29.646035524629188 29.73832631386193 29.769089910272843 29.83061710309467 29.922907892327412 29.953671488738326 30.107489470792896 30.169016663614723 30.23054385643655 30.261307452847465 30.322834645669293 30.38436183849112 30.47665262772386 30.538179820545686 30.599707013367514 30.66123420618934 30.753524995422083 30.845815784654825 30.938106573887566 30.999633766709394 31.12268815235305 31.245742537996705 31.36879692364036 31.430324116462188 31.522614905694926 31.70719648416041 31.79948727339315 31.830250869804065 31.891778062625892 32.19941402673503 32.414759201611425 32.63010437648782 32.87621314777513 33.09155832265153 33.27613990111701 33.522248672404324 33.67606665445889 33.89141182933528 34.16828419703351 34.383629371909905 34.66050173960813 34.90661051089544 35.09119208936092 35.36806445705915 35.55264603552463 35.79875480681194 36.1679179637429 36.3832631386193 36.66013550631752 36.96777147042666 37.152353048892145 37.459989013001284 37.767624977110415 38.013733748397726 38.321369712506865 38.59824208020509 38.99816883354697 39.367331990477936 39.644204358176154 40.01336751510712 40.290239882805345 40.65940303973631 41.02856619666728 41.3054385643655 41.7668925105292 42.105292071049256 42.35140084233657 42.566746017212964 42.78209119208936 43.12049075260941 43.52041750595129 43.79728987364952 44.01263504852591 44.32027101263505 44.50485259110053 44.81248855520967 45.05859732649698 45.36623329060612 45.67386925471526 45.91997802600257 46.25837758652261 46.658304339864486 46.904413111151804 47.39663065372642 47.61197582860282 47.91961179271196 48.319538546053835 48.62717451016297 48.99633766709394 49.427028016846734 49.79619117377769 50.19611792711957 50.442226698406884 50.74986266251602 51.149789415857896 51.457425379967034 51.949642922541656 52.19575169382897 52.56491485075993 52.87255081486907 53.18018677897821 53.48782274308734 53.79545870719648 54.0415674784838 54.34920344259293 54.56454861746933 54.841420985167545 55.24134773850943 55.425929316974916 55.61051089544039 55.88738326313862 56.0719648416041 56.348837209302324 56.56418238417872 56.87181834828786 57.117927119575164 57.27174510162973 57.39479948727339 57.67167185497162 57.82548983702618 57.97930781908075 58.071598608313494 58.163889397546235 58.25618018677898 58.317707379600805 58.37923457242263 58.40999816883354 58.40999816883354 58.40999816883354 58.40999816883354 58.44076176524446 58.44076176524446 58.40999816883354 58.40999816883354 58.44076176524446 58.44076176524446 58.44076176524446 58.44076176524446 58.44076176524446 58.44076176524446 58.44076176524446 58.44076176524446 58.44076176524446 58.44076176524446 58.44076176524446 58.44076176524446 58.44076176524446 58.44076176524446 58.44076176524446 58.44076176524446 58.44076176524446 58.44076176524446 58.44076176524446 58.44076176524446 58.44076176524446 58.44076176524446 58.44076176524446 58.44076176524446 58.40999816883354 58.44076176524446 58.44076176524446 58.44076176524446 58.44076176524446 58.44076176524446 58.44076176524446 58.44076176524446 58.40999816883354 58.40999816883354 58.40999816883354 58.40999816883354 58.40999816883354 58.40999816883354 58.40999816883354 58.40999816883354 58.40999816883354 58.37923457242263 58.37923457242263 58.37923457242263 58.37923457242263 58.37923457242263 58.37923457242263 58.37923457242263 58.37923457242263 58.37923457242263 58.37923457242263 58.34847097601172 58.37923457242263 58.34847097601172 58.34847097601172 58.34847097601172 58.34847097601172 58.37923457242263 58.37923457242263 58.37923457242263 58.37923457242263 58.34847097601172 58.37923457242263 58.37923457242263 58.37923457242263 58.37923457242263 58.37923457242263 58.37923457242263 58.34847097601172 58.34847097601172 58.37923457242263 58.37923457242263 58.37923457242263 58.37923457242263 58.37923457242263 58.37923457242263 58.37923457242263 58.37923457242263 58.37923457242263 58.37923457242263 58.37923457242263 58.34847097601172 58.37923457242263 58.34847097601172 58.37923457242263 58.37923457242263 58.37923457242263 58.37923457242263 58.37923457242263 58.37923457242263 58.37923457242263 58.37923457242263 58.37923457242263 58.37923457242263 58.37923457242263 58.37923457242263 58.37923457242263 58.37923457242263 58.37923457242263 58.37923457242263 58.37923457242263 58.37923457242263 58.37923457242263 58.37923457242263 58.37923457242263 58.37923457242263 58.37923457242263 58.37923457242263 58.37923457242263 58.37923457242263 58.37923457242263 58.37923457242263 58.37923457242263 58.37923457242263 58.37923457242263 58.37923457242263 58.37923457242263 58.37923457242263 58.37923457242263 58.37923457242263 58.37923457242263 58.37923457242263 58.37923457242263 58.37923457242263 58.37923457242263 58.37923457242263 58.37923457242263 58.37923457242263 58.37923457242263 58.37923457242263 58.37923457242263 58.37923457242263 58.37923457242263 58.37923457242263 58.37923457242263 58.37923457242263 58.34847097601172 58.34847097601172 58.34847097601172 58.34847097601172 58.317707379600805 58.317707379600805 58.317707379600805 58.317707379600805 58.317707379600805 58.317707379600805 58.317707379600805 58.317707379600805 58.317707379600805 58.317707379600805 58.317707379600805 58.317707379600805 58.317707379600805 58.317707379600805 58.317707379600805 58.317707379600805 58.317707379600805 58.317707379600805 58.317707379600805 58.317707379600805 58.317707379600805 58.317707379600805 58.317707379600805 58.34847097601172 58.317707379600805 58.317707379600805 58.317707379600805 58.34847097601172 58.317707379600805 58.317707379600805 58.317707379600805 58.317707379600805 58.317707379600805 58.317707379600805 58.317707379600805 58.317707379600805 58.317707379600805 58.317707379600805 58.317707379600805 58.317707379600805 58.317707379600805 58.317707379600805 58.317707379600805 58.317707379600805 58.317707379600805 58.317707379600805 58.317707379600805 58.34847097601172 58.34847097601172 58.317707379600805 58.28694378318989 58.25618018677898 58.22541659036806 58.19465299395715 58.19465299395715 58.163889397546235 58.163889397546235 58.13312580113532 58.163889397546235 58.163889397546235 58.163889397546235 58.163889397546235 58.163889397546235 58.163889397546235 58.19465299395715 58.19465299395715 58.22541659036806 58.22541659036806 58.22541659036806 58.22541659036806 58.22541659036806 58.22541659036806 58.22541659036806 58.22541659036806 58.22541659036806 58.22541659036806 58.22541659036806 58.22541659036806 58.22541659036806 58.22541659036806 58.22541659036806 58.22541659036806 58.22541659036806 58.22541659036806 58.22541659036806 58.19465299395715 58.19465299395715 58.19465299395715 58.19465299395715 58.19465299395715 58.19465299395715 58.19465299395715 58.19465299395715 58.19465299395715 58.19465299395715 58.19465299395715 58.19465299395715 58.19465299395715 58.19465299395715 58.19465299395715 58.19465299395715 58.19465299395715 58.19465299395715 58.19465299395715 58.19465299395715 58.19465299395715 58.19465299395715 58.19465299395715 58.163889397546235 58.13312580113532 58.13312580113532 58.1023622047244 58.1023622047244 58.071598608313494 58.04083501190259 58.04083501190259 58.010071415491666 58.04083501190259 58.010071415491666 58.010071415491666 58.010071415491666 57.97930781908075 57.97930781908075 57.97930781908075 57.97930781908075 57.97930781908075 57.97930781908075 57.97930781908075 57.97930781908075 57.97930781908075 57.97930781908075 57.97930781908075 57.97930781908075 57.97930781908075 57.97930781908075 57.97930781908075 57.97930781908075 57.97930781908075 57.97930781908075 57.97930781908075 57.97930781908075 57.97930781908075 57.97930781908075 57.97930781908075 57.97930781908075 57.97930781908075 57.94854422266984 57.97930781908075 57.97930781908075 57.97930781908075 57.97930781908075 57.97930781908075 57.94854422266984 57.97930781908075 57.97930781908075 57.97930781908075 57.97930781908075 57.97930781908075 57.94854422266984 57.97930781908075 57.97930781908075 57.97930781908075 57.97930781908075 57.97930781908075 57.97930781908075 57.97930781908075 57.97930781908075 57.94854422266984 57.97930781908075 57.97930781908075 57.97930781908075 57.97930781908075 57.97930781908075 57.97930781908075 57.97930781908075 57.94854422266984 57.97930781908075 57.97930781908075 57.97930781908075 57.97930781908075 57.94854422266984 57.97930781908075 57.97930781908075 57.94854422266984 57.97930781908075 57.97930781908075 57.97930781908075 57.97930781908075 57.97930781908075 57.97930781908075 57.94854422266984 57.97930781908075 57.97930781908075 57.94854422266984 57.97930781908075 57.94854422266984 57.94854422266984 57.97930781908075 57.97930781908075 57.97930781908075 57.97930781908075 57.97930781908075 57.97930781908075 57.97930781908075 57.97930781908075 57.94854422266984 57.97930781908075 57.94854422266984 57.97930781908075 57.94854422266984 57.94854422266984 57.97930781908075 57.94854422266984 57.97930781908075 57.94854422266984 57.97930781908075 57.94854422266984 57.94854422266984 57.94854422266984 57.917780626258924 57.917780626258924 57.917780626258924 57.917780626258924 57.88701702984801 57.88701702984801 57.88701702984801 57.88701702984801 57.88701702984801 57.88701702984801 57.88701702984801 57.82548983702618 57.79472624061527 57.79472624061527 57.763962644204355 57.70243545138253 57.67167185497162 57.6409082585607 57.61014466214979 57.57938106573887 57.54861746932796 57.48709027650613 57.4255630836843 57.36403589086248 57.302508698040654 57.179454312397 57.117927119575164 56.994872733931516 56.87181834828786 56.77952755905512 56.656473173411456 56.59494598058963 56.41036440212415 56.16425563083684 56.10272843801501 55.79509247390588 55.51822010620765 55.33363852774217 55.11829335286578 54.872184581578466 54.56454861746933 54.25691265336019 54.072331074894706 53.73393151437466 53.3955319538546 53.18018677897821 52.87255081486907 52.65720563999267 52.38033327229445 52.07269730818531 51.88811572971983 51.61124336202161 51.33437099432338 51.11902581944699 50.96520783739241 50.74986266251602 50.50375389122871 50.10382713788683 49.79619117377769 49.48855520966856 49.119392052737595 48.84251968503936 48.44259293169749 48.165720563999265 47.7965574070683 47.42739425013734 47.18128547885003 46.84288591832997 46.53524995422084 46.28914118293353 46.0122688152353 45.79692364035891 45.52005127266068 45.24317890496246 45.05859732649698 44.75096136238784 44.56637978392236 44.41256180186779 44.28950741622413 44.135689434169564 43.95110785570408 43.70499908441677 43.52041750595129 43.366599523896724 43.24354513825307 43.058963559787585 42.84361838491119 42.659036806445705 42.47445522798022 42.259110053103825 42.105292071049256 41.85918329976195 41.67460172129647 41.336202160776416 41.12085698590002 40.997802600256364 40.843984618201794 40.597875846914484 40.47482146127083 40.25947628639443 40.136421900750776 40.044131111518034 39.890313129463465 39.82878593664164 39.7364951474089 39.61344076176525 39.49038637612159 39.367331990477936 39.24427760483428 39.121223219190625 38.967405237136056 38.875114447903314 38.721296465848745 38.53671488738326 38.413660501739606 38.25984251968504 38.167551730452296 38.013733748397726 37.82915216993224 37.70609778428859 37.61380699505585 37.42922541659037 37.306171030946714 37.12158945248123 36.906244277604834 36.62937190990661 36.352499542208385 36.1679179637429 36.01409998168833 35.67570042116829 35.491118842702804 35.27577366782641 35.12195568577184 34.87584691448453 34.66050173960813 34.475920161142646 34.29133858267716 34.137520600622594 34.04522981138985 33.95293902215711 33.89141182933528 33.829884636513455 33.76835744369163 33.64530305804798 33.522248672404324 33.42995788317158 33.2453763047061 33.060794726240616 32.968503937007874 32.906976744186046 32.75315876213148 32.69163156930965 32.63010437648782 32.568577183665994 32.507049990844166 32.44552279802234 32.414759201611425 32.3532320087896 32.32246841237868 32.260941219556855 32.168650430324114 32.1378868339132 32.04559604468046 31.984068851858634 31.95330525544772 31.95330525544772 31.95330525544772 31.95330525544772 31.922541659036806 31.922541659036806 31.891778062625892 31.86101446621498 31.86101446621498 31.830250869804065 31.79948727339315 31.768723676982237 31.737960080571323 31.70719648416041 31.64566929133858 31.584142098516754 31.522614905694926 31.461087712873102 31.36879692364036 31.338033327229446 31.307269730818533 31.27650613440762 31.27650613440762 31.21497894158579 31.21497894158579 31.153451748763963 31.06116095953122 31.030397363120308 30.938106573887566 30.87657938106574 30.784288591832997 30.691997802600255 30.630470609778428 30.538179820545686 30.445889031312948 30.38436183849112 30.29207104925838 30.23054385643655 30.13825306720381 30.045962277971068 29.98443508514924 29.922907892327412 29.922907892327412 29.8921442959165 29.861380699505585 29.861380699505585 29.83061710309467 29.799853506683757 29.799853506683757 29.769089910272843 29.769089910272843 29.73832631386193 29.707562717451015 29.707562717451015 29.6767991210401 29.6767991210401 29.646035524629188 29.615271928218274 29.58450833180736 29.58450833180736 29.58450833180736 29.553744735396446 29.553744735396446 29.522981138985532 29.522981138985532 29.522981138985532 29.522981138985532 29.49221754257462 29.49221754257462 29.49221754257462 29.49221754257462 29.461453946163708 29.461453946163708 29.461453946163708 29.430690349752794 29.39992675334188 29.39992675334188 29.369163156930966 29.369163156930966 29.369163156930966 29.369163156930966 29.338399560520052 29.338399560520052 29.338399560520052 29.338399560520052 29.338399560520052 29.338399560520052 29.30763596410914 29.338399560520052 29.30763596410914 29.30763596410914 29.276872367698225 29.276872367698225 29.276872367698225 29.276872367698225 29.276872367698225 29.276872367698225 29.276872367698225 29.276872367698225 29.276872367698225 29.276872367698225 29.276872367698225 29.276872367698225 29.276872367698225 29.276872367698225 29.24610877128731 29.24610877128731 29.24610877128731 29.24610877128731 29.24610877128731 29.24610877128731 29.24610877128731 29.24610877128731 29.24610877128731 29.215345174876397 29.215345174876397 29.215345174876397 29.215345174876397 29.215345174876397 29.215345174876397 29.215345174876397 29.215345174876397 29.215345174876397 29.215345174876397 29.184581578465483 29.184581578465483 29.184581578465483 29.15381798205457 29.15381798205457 29.15381798205457 29.15381798205457 29.15381798205457 29.15381798205457 29.15381798205457 29.15381798205457 29.123054385643655 29.15381798205457 29.15381798205457 29.15381798205457 29.123054385643655 29.15381798205457 29.123054385643655 29.123054385643655 29.123054385643655 29.15381798205457 29.15381798205457 29.15381798205457 29.123054385643655 29.123054385643655 29.123054385643655 29.123054385643655 29.123054385643655 29.123054385643655 29.123054385643655 29.123054385643655 29.123054385643655 29.123054385643655 29.123054385643655 29.123054385643655 29.123054385643655 29.123054385643655 29.123054385643655 29.123054385643655 29.123054385643655 29.123054385643655 29.123054385643655 29.123054385643655 29.123054385643655 29.123054385643655 29.123054385643655 29.123054385643655 29.123054385643655 29.123054385643655 29.123054385643655 29.123054385643655 29.123054385643655 29.123054385643655 29.123054385643655 29.123054385643655 29.123054385643655 29.123054385643655 29.09229078923274 29.123054385643655 29.123054385643655 29.123054385643655 29.123054385643655 29.123054385643655 29.123054385643655 29.123054385643655 29.123054385643655 29.123054385643655 29.123054385643655 29.123054385643655 29.123054385643655 29.123054385643655 29.123054385643655 29.123054385643655 29.09229078923274 29.123054385643655 29.123054385643655 29.123054385643655 29.123054385643655 29.123054385643655 29.123054385643655 29.123054385643655 29.09229078923274 29.123054385643655 29.123054385643655 29.123054385643655 29.123054385643655 29.123054385643655 29.123054385643655 29.09229078923274 29.123054385643655 29.123054385643655 29.123054385643655 29.123054385643655 29.123054385643655 29.09229078923274 29.123054385643655 29.123054385643655 29.123054385643655 29.123054385643655 29.123054385643655 29.123054385643655 29.09229078923274 29.123054385643655 29.123054385643655 29.123054385643655 29.123054385643655 29.09229078923274 29.123054385643655 29.123054385643655 29.123054385643655 29.123054385643655 29.123054385643655 29.123054385643655 29.123054385643655 29.123054385643655 29.09229078923274 29.123054385643655 29.09229078923274 29.123054385643655 29.123054385643655 29.123054385643655 29.123054385643655 29.123054385643655 29.09229078923274 29.09229078923274 29.123054385643655 29.123054385643655 29.123054385643655 29.09229078923274 29.123054385643655 29.123054385643655 29.123054385643655 29.123054385643655 29.123054385643655 29.123054385643655 29.09229078923274 29.123054385643655 29.123054385643655 29.123054385643655 29.123054385643655 29.123054385643655 29.123054385643655 29.123054385643655 29.123054385643655 29.123054385643655 29.123054385643655 29.123054385643655 29.09229078923274 29.123054385643655 29.123054385643655 29.09229078923274 29.123054385643655 29.123054385643655 29.123054385643655 29.123054385643655 29.123054385643655 29.123054385643655 29.123054385643655 29.09229078923274 29.123054385643655 29.09229078923274 29.123054385643655 29.09229078923274 29.09229078923274 29.09229078923274 29.09229078923274 29.09229078923274 29.09229078923274 29.09229078923274 29.09229078923274 29.09229078923274 29.09229078923274 29.09229078923274 29.09229078923274 29.09229078923274 29.09229078923274 29.09229078923274 29.09229078923274 29.09229078923274 29.09229078923274 29.061527192821828 29.061527192821828 29.061527192821828 29.061527192821828 29.061527192821828 29.061527192821828 29.061527192821828 29.061527192821828 29.061527192821828 29.061527192821828 29.061527192821828 29.061527192821828 29.061527192821828 29.061527192821828 29.061527192821828 29.061527192821828 29.061527192821828 29.061527192821828 29.061527192821828 29.061527192821828 29.061527192821828 29.061527192821828 29.061527192821828 29.061527192821828 29.061527192821828 29.061527192821828 29.061527192821828 29.061527192821828 29.061527192821828 29.061527192821828 29.061527192821828 29.061527192821828 29.061527192821828 29.030763596410914 29.061527192821828 29.061527192821828 29.030763596410914 29.061527192821828 29.061527192821828 29.061527192821828 29.030763596410914 29.030763596410914 29.061527192821828 29.061527192821828 29.030763596410914 29.030763596410914 29.061527192821828 29.030763596410914 29.061527192821828 29.030763596410914 29.030763596410914 29.030763596410914 29.030763596410914 29.030763596410914 29.030763596410914 29.030763596410914 29.030763596410914 29.030763596410914 29.030763596410914 29.030763596410914 29.030763596410914 29.030763596410914 29.030763596410914 29.030763596410914 29.030763596410914 29.030763596410914 29.030763596410914 29.030763596410914 29.030763596410914 29.030763596410914 29.030763596410914 29.030763596410914 29.030763596410914 29.030763596410914 29.030763596410914 29.030763596410914 29.030763596410914 29.030763596410914 29.030763596410914 29.030763596410914 29.030763596410914 29.030763596410914 29.030763596410914 29.030763596410914 29.030763596410914 29.030763596410914 29.030763596410914 29.030763596410914 29.030763596410914 29.030763596410914 29.0 29.030763596410914 29.030763596410914 29.030763596410914 29.030763596410914 29.030763596410914 29.030763596410914 29.030763596410914 29.030763596410914 29.0 29.030763596410914 29.030763596410914 29.030763596410914 29.030763596410914 29.030763596410914 29.030763596410914 29.030763596410914 29.030763596410914 29.0 29.030763596410914 29.030763596410914 29.030763596410914 29.030763596410914 29.030763596410914 29.0 29.030763596410914 29.030763596410914 29.030763596410914 29.030763596410914 29.030763596410914 29.030763596410914 29.030763596410914 29.030763596410914 29.030763596410914 29.030763596410914 29.030763596410914 29.030763596410914 29.030763596410914 29.030763596410914 29.030763596410914 29.030763596410914 29.030763596410914 29.030763596410914 29.030763596410914 29.0 29.030763596410914 29.0 29.030763596410914 29.030763596410914 29.030763596410914 29.030763596410914 29.030763596410914 29.030763596410914 29.0 29.0 29.0 29.0 29.030763596410914 29.030763596410914 29.030763596410914 29.030763596410914 29.030763596410914 29.030763596410914 29.0 29.030763596410914 29.0 29.030763596410914 29.030763596410914 29.0 29.030763596410914 29.030763596410914 29.0 29.030763596410914 29.030763596410914 29.030763596410914 29.0 29.030763596410914 29.030763596410914 29.030763596410914 29.030763596410914 29.030763596410914 29.030763596410914 29.030763596410914 29.030763596410914 29.030763596410914 29.030763596410914 29.0 29.030763596410914 29.030763596410914 29.030763596410914 29.0 29.030763596410914 29.030763596410914 29.030763596410914 29.0 29.030763596410914 29.030763596410914 29.030763596410914 29.030763596410914 29.030763596410914 29.0 29.030763596410914 29.0 29.030763596410914 29.030763596410914 29.030763596410914 29.030763596410914 29.0 29.0 29.0 29.0 29.030763596410914 29.030763596410914 29.030763596410914 29.030763596410914 29.0 29.030763596410914 29.030763596410914 29.0 29.0 29.030763596410914 29.030763596410914 29.030763596410914 29.030763596410914 29.030763596410914 29.0 29.030763596410914 29.030763596410914 29.030763596410914 29.030763596410914 29.030763596410914 29.0 29.030763596410914 29.030763596410914 29.030763596410914 29.030763596410914 29.030763596410914 29.030763596410914 29.030763596410914 29.030763596410914 29.030763596410914 29.030763596410914 29.030763596410914 29.0 29.030763596410914 29.030763596410914 29.030763596410914 29.0 29.030763596410914 29.030763596410914 29.0 29.0 29.030763596410914 29.0 29.030763596410914 29.030763596410914 29.0 29.030763596410914 29.0 29.030763596410914 29.030763596410914 29.0 29.030763596410914 29.0 29.0 29.030763596410914 29.030763596410914 29.0 29.0 29.030763596410914 29.030763596410914 29.030763596410914 29.030763596410914 29.030763596410914 29.030763596410914 29.030763596410914 29.030763596410914 29.030763596410914 29.030763596410914 29.0 29.030763596410914 29.0 29.0 29.030763596410914 29.030763596410914 29.030763596410914 29.0 29.030763596410914 29.030763596410914 29.030763596410914 29.0 29.030763596410914 29.0 29.030763596410914 29.030763596410914 29.030763596410914 29.030763596410914 29.030763596410914 29.030763596410914 29.030763596410914 29.030763596410914 29.030763596410914 29.0 29.0 29.030763596410914 29.030763596410914 29.0 29.0 29.0 29.030763596410914 29.030763596410914 29.0 29.0 29.030763596410914 29.030763596410914 29.0 29.030763596410914 29.030763596410914 29.030763596410914 29.0 29.030763596410914 29.030763596410914 29.030763596410914 29.030763596410914 29.0 29.030763596410914 29.030763596410914 29.0 29.030763596410914 29.030763596410914 29.0 29.030763596410914 29.0 29.0 29.030763596410914 29.030763596410914 29.030763596410914 29.0 29.030763596410914 29.030763596410914 29.030763596410914 29.030763596410914 29.030763596410914 29.0 29.030763596410914 29.030763596410914 29.030763596410914 29.0 29.030763596410914 29.030763596410914 29.030763596410914 29.0 29.0 29.0 29.030763596410914 29.0 29.030763596410914 29.0 29.0 29.030763596410914 29.030763596410914 29.0 29.0 29.030763596410914 29.030763596410914 29.0 29.0 29.030763596410914 29.030763596410914 29.030763596410914 29.030763596410914 29.030763596410914 29.0 29.030763596410914 29.030763596410914 29.030763596410914 29.030763596410914 29.030763596410914 29.030763596410914 29.030763596410914 29.030763596410914 29.030763596410914 29.030763596410914 29.030763596410914 29.030763596410914 29.030763596410914 29.030763596410914 29.0 29.0 29.0 29.030763596410914 29.030763596410914 29.030763596410914 29.0 29.0 29.030763596410914 29.0 29.030763596410914 29.0 29.030763596410914 29.030763596410914 29.030763596410914 29.030763596410914 29.030763596410914 29.030763596410914 29.030763596410914 29.030763596410914 29.0 29.030763596410914 29.030763596410914 29.0 29.030763596410914 29.030763596410914 29.030763596410914 29.030763596410914 29.030763596410914 29.0 29.0 29.030763596410914 29.0 29.030763596410914 29.030763596410914 29.030763596410914 29.030763596410914 29.030763596410914 29.0 29.030763596410914 29.030763596410914 29.030763596410914 29.0 29.030763596410914 29.0 29.030763596410914 29.030763596410914 29.0 29.0 29.0 29.030763596410914 29.030763596410914 29.030763596410914 29.030763596410914 29.0 29.030763596410914 29.0 29.030763596410914 29.0 29.030763596410914 29.030763596410914 29.030763596410914 29.030763596410914 29.0 29.0 29.030763596410914 29.030763596410914 29.030763596410914 29.0 29.0 29.030763596410914 29.030763596410914 29.0 29.030763596410914 29.030763596410914 29.030763596410914 29.030763596410914 29.030763596410914 29.0 29.030763596410914 29.030763596410914 29.0 29.0 29.0 29.0 29.0 29.0 29.0 29.0 29.0 29.0 29.0 29.0 29.0 28.969236403589086 28.969236403589086 28.969236403589086 28.969236403589086 28.969236403589086 28.969236403589086 28.969236403589086 28.969236403589086 28.969236403589086 28.969236403589086 28.969236403589086 28.969236403589086 28.969236403589086 28.969236403589086 28.969236403589086 28.969236403589086 28.969236403589086 28.969236403589086 28.969236403589086 28.969236403589086 28.969236403589086 28.969236403589086 28.969236403589086 28.969236403589086 28.969236403589086 28.969236403589086 28.969236403589086 28.969236403589086 28.969236403589086 28.969236403589086 28.969236403589086 28.969236403589086 28.969236403589086 28.969236403589086 28.969236403589086 28.969236403589086 28.969236403589086 28.969236403589086 28.969236403589086 28.969236403589086 28.969236403589086 28.969236403589086 28.969236403589086 28.969236403589086 28.969236403589086 28.969236403589086 28.969236403589086 28.969236403589086 28.969236403589086 28.969236403589086 28.969236403589086 28.969236403589086 28.969236403589086 28.969236403589086 28.969236403589086 29.0 29.061527192821828 29.09229078923274 29.15381798205457 29.184581578465483 29.24610877128731 29.30763596410914 29.369163156930966 29.430690349752794 29.522981138985532 29.646035524629188 29.769089910272843 29.83061710309467 29.861380699505585 29.922907892327412 29.98443508514924 30.015198681560154 30.107489470792896 30.169016663614723 30.199780260025637 30.23054385643655 30.29207104925838 30.353598242080206 30.445889031312948 30.47665262772386 30.5689434169566 30.66123420618934 30.72276139901117 30.845815784654825 30.938106573887566 31.030397363120308 31.153451748763963 31.27650613440762 31.399560520051274 31.55337850210584 31.584142098516754 31.676432887749495 31.737960080571323 31.86101446621498 32.04559604468046 32.168650430324114 32.38399560520051 32.63010437648782 32.78392235854239 32.99926753341879 33.18384911188427 33.368430690349754 33.64530305804798 33.89141182933528 34.229811389855335 34.537447353964474 34.783556125251785 35.15271928218275 35.46035524629189 35.82951840322285 36.29097234938656 36.56784471708478 36.998535066837576 37.398461820179456 37.67533418787768 38.04449734480864 38.35213330891778 38.69053286943783 39.0596960263688 39.33656839406702 39.7364951474089 40.01336751510712 40.50558505768174 40.87474821461271 41.090093389489105 41.39772935359824 41.88994689617286 42.197582860282 42.505218824391136 42.75132759567845 43.12049075260941 43.48965390954038 43.7665262772386 44.10492583775865 44.474088994689616 44.72019776597693 45.089360922907886 45.3354696941952 45.70463285112616 46.043032411646216 46.38143197216627 46.71983153268632 47.1197582860282 47.39663065372642 47.95037538912287 48.22724775682109 48.62717451016297 48.96557407068302 49.21168284197033 49.427028016846734 49.85771836659953 50.10382713788683 50.41146310199597 50.65757187328328 50.96520783739241 51.30360739791247 51.51895257278886 51.88811572971983 52.22651529023988 52.56491485075993 52.87255081486907 53.14942318256729 53.67240432155283 54.0415674784838 54.16462186412745 54.5030214246475 54.81065738875664 55.026002563633035 55.425929316974916 55.61051089544039 55.85661966672771 56.0719648416041 56.225782823658676 56.348837209302324 56.59494598058963 56.748763962644205 56.93334554110969 57.056399926753336 57.240981505218826 57.456326680095216 57.61014466214979 57.763962644204355 57.917780626258924 58.1023622047244 58.317707379600805 58.47152536165537 58.809924922175426 59.05603369346274 59.2098516755173 59.332906061160955 59.45596044680461 59.579014832448266 59.70206921809192 59.82512360373558 59.91741439296832 60.00970518220106 60.040468778611974 60.07123237502289 60.07123237502289 60.07123237502289 60.07123237502289 60.07123237502289 60.07123237502289 60.07123237502289 60.07123237502289 60.07123237502289 60.07123237502289 60.07123237502289 60.07123237502289 60.07123237502289 60.07123237502289 60.07123237502289 60.07123237502289 60.07123237502289 60.07123237502289 60.1019959714338 60.132759567844715 60.16352316425563 60.19428676066654 60.19428676066654 60.19428676066654 60.22505035707745 60.19428676066654 60.19428676066654 60.19428676066654 60.22505035707745 60.19428676066654 60.22505035707745 60.19428676066654 60.19428676066654 60.22505035707745 60.19428676066654 60.19428676066654 60.22505035707745 60.19428676066654 60.19428676066654 60.19428676066654 60.19428676066654 60.19428676066654 60.19428676066654 60.19428676066654 60.19428676066654 60.19428676066654 60.19428676066654 60.19428676066654 60.19428676066654 60.19428676066654 60.19428676066654 60.19428676066654 60.19428676066654 60.19428676066654 60.19428676066654 60.19428676066654 60.19428676066654 60.19428676066654 60.19428676066654 60.19428676066654 60.19428676066654 60.19428676066654 60.19428676066654 60.19428676066654 60.19428676066654 60.19428676066654 60.19428676066654 60.19428676066654 60.19428676066654 60.19428676066654 60.19428676066654 60.19428676066654 60.19428676066654 60.19428676066654 60.19428676066654 60.19428676066654 60.19428676066654 60.19428676066654 60.16352316425563 60.19428676066654 60.19428676066654 60.19428676066654 60.19428676066654 60.19428676066654 60.16352316425563 60.16352316425563 60.16352316425563 60.16352316425563 60.16352316425563 60.16352316425563 60.16352316425563 60.16352316425563 60.16352316425563 60.16352316425563 60.16352316425563 60.132759567844715 60.16352316425563 60.16352316425563 60.132759567844715 60.16352316425563 60.16352316425563 60.16352316425563 60.132759567844715 60.16352316425563 60.132759567844715 60.16352316425563 60.16352316425563 60.16352316425563 60.132759567844715 60.16352316425563 60.132759567844715 60.16352316425563 60.132759567844715 60.16352316425563 60.132759567844715 60.16352316425563 60.16352316425563 60.132759567844715 60.16352316425563 60.16352316425563 60.16352316425563 60.16352316425563 60.132759567844715 60.132759567844715 60.132759567844715 60.132759567844715 60.132759567844715 60.1019959714338 60.132759567844715 60.132759567844715 60.1019959714338 60.132759567844715 60.132759567844715 60.132759567844715 60.132759567844715 60.132759567844715 60.132759567844715 60.132759567844715 60.132759567844715 60.132759567844715 60.132759567844715 60.132759567844715 60.1019959714338 60.1019959714338 60.1019959714338 60.1019959714338 60.1019959714338 60.1019959714338 60.07123237502289 60.07123237502289 60.07123237502289 60.040468778611974 60.040468778611974 60.040468778611974 60.040468778611974 60.040468778611974 60.00970518220106 60.00970518220106 60.00970518220106 60.00970518220106 60.00970518220106 60.00970518220106 60.00970518220106 60.00970518220106 60.00970518220106 60.00970518220106 59.978941585790146 59.978941585790146 59.978941585790146 59.978941585790146 59.978941585790146 59.978941585790146 59.978941585790146 59.978941585790146 59.94817798937923 59.94817798937923 59.94817798937923 59.94817798937923 59.91741439296832 59.91741439296832 59.91741439296832 59.886650796557404 59.886650796557404 59.85588720014648 59.82512360373558 59.79436000732467 59.79436000732467 59.76359641091375 59.732832814502835 59.70206921809192 59.67130562168101 59.64054202527009 59.64054202527009 59.64054202527009 59.64054202527009 59.64054202527009 59.64054202527009 59.64054202527009 59.64054202527009 59.64054202527009 59.64054202527009 59.64054202527009 59.64054202527009 59.64054202527009 59.64054202527009 59.64054202527009 59.64054202527009 59.60977842885918 59.64054202527009 59.64054202527009 59.64054202527009 59.64054202527009 59.60977842885918 59.60977842885918 59.64054202527009 59.64054202527009 59.60977842885918 59.64054202527009 59.579014832448266 59.579014832448266 59.54825123603735 59.51748763962644 59.48672404321553 59.45596044680461 59.45596044680461 59.45596044680461 59.425196850393704 59.425196850393704 59.425196850393704 59.39443325398278 59.39443325398278 59.39443325398278 59.363669657571876 59.39443325398278 59.39443325398278 59.39443325398278 59.39443325398278 59.39443325398278 59.39443325398278 59.363669657571876 59.39443325398278 59.39443325398278 59.39443325398278 59.39443325398278 59.39443325398278 59.39443325398278 59.39443325398278 59.39443325398278 59.39443325398278 59.39443325398278 59.39443325398278 59.39443325398278 59.39443325398278 59.39443325398278 59.39443325398278 59.39443325398278 59.39443325398278 59.39443325398278 59.39443325398278 59.39443325398278 59.39443325398278 59.39443325398278 59.39443325398278 59.39443325398278 59.39443325398278 59.39443325398278 59.39443325398278 59.39443325398278 59.39443325398278 59.39443325398278 59.39443325398278 59.425196850393704 59.39443325398278 59.425196850393704 59.425196850393704 59.425196850393704 59.39443325398278 59.425196850393704 59.425196850393704 59.425196850393704 59.39443325398278 59.39443325398278 59.39443325398278 59.425196850393704 59.39443325398278 59.39443325398278 59.39443325398278 59.39443325398278 59.39443325398278 59.39443325398278 59.39443325398278 59.39443325398278 59.39443325398278 59.39443325398278 59.39443325398278 59.39443325398278 59.39443325398278 59.39443325398278 59.39443325398278 59.39443325398278 59.39443325398278 59.39443325398278 59.39443325398278 59.39443325398278 59.39443325398278 59.39443325398278 59.39443325398278 59.363669657571876 59.363669657571876 59.363669657571876 59.363669657571876 59.363669657571876 59.363669657571876 59.363669657571876 59.363669657571876 59.363669657571876 59.363669657571876 59.363669657571876 59.39443325398278 59.363669657571876 59.39443325398278 59.39443325398278 59.363669657571876 59.363669657571876 59.39443325398278 59.363669657571876 59.363669657571876 59.363669657571876 59.39443325398278 59.39443325398278 59.39443325398278 59.363669657571876 59.363669657571876 59.363669657571876 59.363669657571876 59.363669657571876 59.39443325398278 59.363669657571876 59.363669657571876 59.39443325398278 59.39443325398278 59.39443325398278 59.39443325398278 59.39443325398278 59.39443325398278 59.39443325398278 59.39443325398278 59.39443325398278 59.363669657571876 59.39443325398278 59.39443325398278 59.39443325398278 59.39443325398278 59.39443325398278 59.39443325398278 59.39443325398278 59.39443325398278 59.39443325398278 59.39443325398278 59.39443325398278 59.363669657571876 59.363669657571876 59.363669657571876 59.363669657571876 59.332906061160955 59.30214246475004 59.27137886833913 59.2098516755173 59.17908807910639 59.117560886284565 59.086797289873644 59.05603369346274 58.99450650064091 58.99450650064091 58.96374290422999 58.96374290422999 58.96374290422999 58.93297930781908 58.90221571140816 58.87145211499725 58.84068851858633 58.809924922175426 58.779161325764505 58.7483977293536 58.71763413294268 58.65610694012086 58.62534334370994 58.62534334370994 58.59457974729903 58.563816150888115 58.563816150888115 58.533052554477194 58.533052554477194 58.50228895806629 58.50228895806629 58.50228895806629 58.533052554477194 58.50228895806629 58.50228895806629 58.50228895806629 58.50228895806629 58.44076176524446 58.40999816883354 58.28694378318989 58.1023622047244 57.97930781908075 57.763962644204355 57.6409082585607 57.456326680095216 57.210217908807905 56.994872733931516 56.77952755905512 56.62570957700055 56.441127998535066 56.25654642006958 56.10272843801501 55.91814685954953 55.70280168467313 55.57974729902948 55.33363852774217 55.179820545687605 54.9644753708112 54.7183665995239 54.47225782823658 54.31843984618202 54.072331074894706 53.88774949642922 53.64164072514191 53.45705914667643 53.118659586156376 52.87255081486907 52.65720563999267 52.47262406152719 52.0419337117744 51.88811572971983 51.54971616919978 51.27284380150155 50.903680644570585 50.50375389122871 50.22688152353049 49.85771836659953 49.45779161325764 49.1501556491485 48.81175608862846 48.59641091375206 48.25801135323201 47.95037538912287 47.61197582860282 47.39663065372642 47.15052188243911 46.93517670756272 46.56601355063175 46.350668375755355 46.104559604468044 45.70463285112616 45.48928767624977 45.30470609778429 44.90477934444241 44.6586705731551 44.41256180186779 44.19721662699139 43.92034425929317 43.67423548800586 43.48965390954038 43.274308734663975 43.028199963376665 42.84361838491119 42.62827321003479 42.47445522798022 42.16681926387108 41.92071049258377 41.82841970335103 41.58231093206372 41.42849295000916 41.21314777513276 40.87474821461271 40.72093023255814 40.47482146127083 40.290239882805345 40.136421900750776 39.982603918696206 39.76725874381981 39.55191356894342 39.33656839406702 39.18275041201245 38.93664164072514 38.69053286943783 38.475187694561434 38.321369712506865 38.19831532686321 38.013733748397726 37.798388573521336 37.67533418787768 37.42922541659037 37.24464383812489 37.12158945248123 36.906244277604834 36.752426295550265 36.598608313495696 36.3832631386193 36.26020875297564 36.044863578099246 35.82951840322285 35.64493682475737 35.429591649880976 35.27577366782641 35.09119208936092 34.84508331807361 34.72202893242996 34.50668375755356 34.26057498626625 34.075993407800766 33.79912104010255 33.67606665445889 33.58377586522615 33.460721479582496 33.33766709393884 33.214612708295185 33.060794726240616 33.0300311298297 32.93774034059696 32.84544955136422 32.814685954953305 32.72239516572056 32.69163156930965 32.63010437648782 32.568577183665994 32.568577183665994 32.507049990844166 32.47628639443325 32.414759201611425 32.32246841237868 32.260941219556855 32.1378868339132 32.07635964109137 31.984068851858634 31.891778062625892 31.830250869804065 31.830250869804065 31.79948727339315 31.79948727339315 31.768723676982237 31.737960080571323 31.70719648416041 31.64566929133858 31.64566929133858 31.614905694927668 31.584142098516754 31.55337850210584 31.491851309284012 31.491851309284012 31.461087712873102 31.399560520051274 31.36879692364036 31.307269730818533 31.21497894158579 31.184215345174877 31.091924555942136 31.030397363120308 30.96887017029848 30.907342977476652 30.845815784654825 30.753524995422083 30.66123420618934 30.599707013367514 30.507416224134772 30.47665262772386 30.38436183849112 30.322834645669293 30.261307452847465 30.199780260025637 30.107489470792896 30.045962277971068 29.953671488738326 29.8921442959165 29.861380699505585 29.83061710309467 29.83061710309467 29.83061710309467 29.83061710309467 29.799853506683757 29.769089910272843 29.769089910272843 29.707562717451015 29.646035524629188 29.615271928218274 29.615271928218274 29.58450833180736 29.58450833180736 29.553744735396446 29.553744735396446 29.522981138985532 29.522981138985532 29.49221754257462 29.49221754257462 29.461453946163708 29.430690349752794 29.430690349752794 29.39992675334188 29.369163156930966 29.338399560520052 29.30763596410914 29.30763596410914 29.276872367698225 29.276872367698225 29.276872367698225 29.276872367698225 29.276872367698225 29.276872367698225 29.276872367698225 29.24610877128731 29.24610877128731 29.24610877128731 29.24610877128731 29.24610877128731 29.24610877128731 29.24610877128731 29.24610877128731 29.24610877128731 29.276872367698225 29.24610877128731 29.24610877128731 29.215345174876397 29.24610877128731 29.215345174876397 29.215345174876397 29.184581578465483 29.215345174876397 29.184581578465483 29.15381798205457 29.15381798205457 29.123054385643655 29.123054385643655 29.123054385643655 29.09229078923274 29.09229078923274 29.09229078923274 29.09229078923274 29.09229078923274 29.09229078923274 29.09229078923274 29.09229078923274 29.09229078923274 29.09229078923274 29.09229078923274 29.061527192821828 29.09229078923274 29.061527192821828 29.061527192821828 29.09229078923274 29.061527192821828 29.061527192821828 29.061527192821828 29.061527192821828 29.061527192821828 29.061527192821828 29.061527192821828 29.061527192821828 29.061527192821828 29.061527192821828 29.061527192821828 29.061527192821828 29.061527192821828 29.061527192821828 29.061527192821828 29.061527192821828 29.061527192821828 29.061527192821828 29.061527192821828 29.061527192821828 29.061527192821828 29.061527192821828 29.061527192821828 29.030763596410914 29.061527192821828 29.030763596410914 29.030763596410914 29.030763596410914 29.030763596410914 29.030763596410914 29.030763596410914 29.030763596410914 29.030763596410914 29.030763596410914 29.030763596410914 29.030763596410914 29.030763596410914 29.030763596410914 29.030763596410914 29.030763596410914 29.030763596410914 29.030763596410914 29.030763596410914 29.030763596410914 29.030763596410914 29.030763596410914 29.030763596410914 29.030763596410914 29.030763596410914 29.030763596410914 29.030763596410914 29.030763596410914 29.030763596410914 29.030763596410914 29.030763596410914 29.030763596410914 29.030763596410914 29.030763596410914 29.030763596410914 29.030763596410914 29.030763596410914 29.030763596410914 29.030763596410914 29.030763596410914 29.030763596410914 29.030763596410914 29.030763596410914 29.030763596410914 29.030763596410914 29.030763596410914 29.061527192821828 29.030763596410914 29.030763596410914 29.030763596410914 29.030763596410914 29.030763596410914 29.030763596410914 29.030763596410914 29.030763596410914 29.030763596410914 29.030763596410914 29.030763596410914 29.030763596410914 29.030763596410914 29.030763596410914 29.030763596410914 29.030763596410914 29.030763596410914 29.030763596410914 29.030763596410914 29.030763596410914 29.030763596410914 29.030763596410914 29.030763596410914 29.030763596410914 29.030763596410914 29.030763596410914 29.030763596410914 29.030763596410914 29.030763596410914 29.030763596410914 29.030763596410914 29.061527192821828 29.030763596410914 29.030763596410914 29.030763596410914 29.030763596410914 29.030763596410914 29.030763596410914 29.030763596410914 29.030763596410914 29.030763596410914 29.030763596410914 29.030763596410914 29.030763596410914 29.030763596410914 29.030763596410914 29.030763596410914 29.030763596410914 29.030763596410914 29.030763596410914 29.030763596410914 29.0 29.0 29.030763596410914 29.0 29.030763596410914 29.030763596410914 29.0 29.0 29.030763596410914 29.0 29.030763596410914 29.030763596410914 29.0 29.030763596410914 29.0 29.0 29.0 29.030763596410914 29.030763596410914 29.030763596410914 29.030763596410914 29.0 29.0 29.0 29.0 29.0 29.0 29.0 29.0 29.030763596410914 29.0 29.0 29.0 29.0 29.0 29.0 29.0 29.0 29.0 29.030763596410914 29.0 29.0 29.0 29.0 29.030763596410914 29.0 29.0 29.0 29.0 29.0 29.0 29.0 29.0 29.0 29.0 29.0 29.0 29.0 29.0 29.0 29.0 29.0 29.0 29.030763596410914 29.0 29.0 29.0 29.0 29.0 29.0 29.0 29.0 29.0 29.0 29.0 29.0 29.0 29.0 29.030763596410914 29.0 29.0 29.0 29.0 29.030763596410914 29.0 29.0 29.0 29.0 29.0 29.0 29.0 29.0 29.030763596410914 29.0 29.0 29.0 29.0 29.0 29.0 29.0 29.0 29.0 29.0 29.0 29.0 29.0 29.0 29.0 29.0 29.0 29.0 29.0 29.0 29.0 29.0 29.0 29.0 29.0 29.0 29.0 29.0 29.0 29.0 29.0 29.0 29.0 29.0 29.0 29.0 29.0 29.0 29.0 29.0 29.0 29.0 29.0 29.0 29.0 29.0 29.0 29.0 29.0 29.0 29.0 29.0 29.0 29.0 29.0 29.0 29.0 29.0 29.0 29.0 29.0 29.0 29.0 29.0 29.0 29.0 29.0 29.0 29.0 29.0 29.0 29.0 29.0 29.0 29.0 29.0 29.0 29.0 29.0 29.0 29.0 29.0 29.0 29.0 29.0 29.0 29.0 29.0 29.0 29.0 29.0 29.0 29.0 29.0 29.0 29.0 29.0 29.0 29.0 29.0 29.0 29.0 29.0 29.0 29.0 29.0 29.0 29.0 29.0 29.0 29.0 29.0 29.030763596410914 29.0 29.030763596410914 29.0 29.0 29.0 29.0 29.0 29.0 29.0 29.0 29.0 29.0 29.0 29.0 29.0 29.0 29.0 29.0 29.0 29.0 29.0 29.0 29.0 29.0 29.0 29.0 29.0 29.0 29.0 29.0 29.0 29.0 29.0 29.0 29.0 29.0 29.030763596410914 29.0 29.0 29.0 29.0 29.0 29.0 29.0 29.0 29.0 29.0 29.0 29.0 29.0 29.0 29.0 29.0 29.0 29.0 29.0 29.0 29.0 29.0 29.0 29.0 29.0 29.0 29.0 29.0 29.0 29.0 29.0 29.0 29.0 29.0 29.0 29.0 29.0 29.0 29.0 29.0 29.0 29.0 29.0 29.0 29.0 29.0 29.0 29.0 29.0 29.0 29.0 29.0 29.0 29.0 29.0 29.0 29.0 29.0 29.0 29.0 29.0 29.0 29.0 29.0 29.0 29.0 29.0 29.0 29.0 29.0 29.0 29.0 29.0 29.0 29.0 29.0 29.0 29.0 29.0 29.0 29.0 29.0 29.0 29.0 29.0 29.0 29.0 29.0 29.0 29.0 29.0 29.0 29.0 29.0 29.0 29.0 29.0 29.0 29.0 29.0 29.0 29.0 29.0 29.0 29.0 29.0 29.0 29.0 29.0 29.0 29.0 29.0 29.0 29.0 29.0 29.0 29.0 29.0 29.0 29.0 29.0 29.0 29.0 29.0 29.0 29.0 29.0 29.0 29.0 29.0 29.0 29.0 29.0 29.0 29.0 29.0 29.0 29.0 29.0 29.0 29.0 29.0 29.0 29.0 29.0 29.0 29.0 29.0 29.0 29.0 29.0 29.0 29.0 29.0 29.0 29.0 29.0 29.0 29.0 29.0 29.0 29.0 29.0 29.0 29.0 29.0 29.0 29.0 29.0 29.0 29.0 29.0 29.0 29.0 29.0 29.0 29.0 29.0 29.0 29.0 29.0 29.0 29.0 29.0 29.0 29.0 29.0 29.0 29.0 29.0 29.0 29.0 29.0 29.0 29.0 29.0 29.0 29.0 29.0 29.0 29.0 29.0 29.0 29.0 29.0 29.0 29.0 29.0 29.0 29.0 29.0 29.0 29.0 29.0 29.0 29.0 29.0 29.0 29.0 29.0 29.0 29.0 29.0 29.0 29.030763596410914 29.0 29.0 29.0 29.0 29.0 29.0 29.0 29.0 29.0 29.0 29.0 29.0 29.0 29.0 29.0 29.0 29.0 29.0 29.0 29.0 29.0 29.0 29.0 29.0 29.0 29.0 29.0 29.0 29.0 29.0 29.0 29.0 29.0 29.0 29.0 29.0 29.030763596410914 29.0 29.0 29.0 29.0 29.0 29.0 29.0 29.0 29.0 29.0 29.0 29.0 29.0 29.0 29.0 29.0 29.0 29.0 29.0 29.0 29.0 29.0 29.0 29.0 29.0 29.0 29.0 29.0 29.0 29.0 29.0 29.0 29.0 29.0 29.0 29.0 29.0 29.0 29.0 29.0 29.0 29.0 29.0 29.0 29.0 29.0 29.0 29.0 29.0 29.0 29.0 29.0 29.0 29.0 29.0 29.0 29.0 29.0 29.0 29.0 29.0 29.0 29.0 29.0 29.0 29.0 29.0 29.0 29.0 29.0 29.0 29.0 29.0 29.0 29.0 29.0 29.0 29.0 29.0 29.0 29.0 29.0 29.0 29.0 29.0 29.0 29.0 29.0 29.0 29.030763596410914 29.030763596410914 29.061527192821828 29.184581578465483 29.276872367698225 29.39992675334188 29.522981138985532 29.615271928218274 29.73832631386193 29.83061710309467 30.07672587438198 30.199780260025637 30.261307452847465 30.353598242080206 30.47665262772386 30.5689434169566 30.66123420618934 30.784288591832997 30.907342977476652 31.030397363120308 31.12268815235305 31.307269730818533 31.430324116462188 31.522614905694926 31.64566929133858 31.737960080571323 31.86101446621498 32.1378868339132 32.32246841237868 32.53781358725508 32.69163156930965 32.968503937007874 33.27613990111701 33.368430690349754 33.55301226881524 33.860648232924376 34.16828419703351 34.475920161142646 34.72202893242996 35.24501007141549 35.61417322834646 35.89104559604468 36.1679179637429 36.56784471708478 36.84471708478301 37.36769822376854 37.61380699505585 37.98297015198681 38.29060611609595 38.53671488738326 38.75206006225966 39.18275041201245 39.39809558688884 39.70573155099798 39.921076725874386 40.1979490935726 40.47482146127083 40.78245742537997 41.12085698590002 41.36696575718733 41.64383812488555 41.951474088994686 42.16681926387108 42.53598242080205 43.028199963376665 43.33583592748581 43.5511811023622 43.981871452114994 44.25874381981322 44.627906976744185 45.02783373008606 45.427760483427946 45.82768723676982 46.104559604468044 46.350668375755355 46.84288591832997 47.08899468961728 47.45815784654825 47.70426661783556 48.011902581944696 48.319538546053835 48.53488372093023 48.81175608862846 49.027101263504846 49.334737227613985 49.673136788134045 49.888481963010435 50.22688152353049 50.534517487639626 50.842153451748764 51.05749862662516 51.27284380150155 51.58047976561069 52.0419337117744 52.257278886650795 52.56491485075993 52.903314411279986 53.14942318256729 53.3955319538546 53.826222303607395 54.0415674784838 54.379967039003844 54.626075810291155 54.99523896722212 55.33363852774217 55.57974729902948 55.91814685954953 56.13349203442593 56.47189159494598 56.81029115546603 57.02563633034242 57.48709027650613 57.73319904779344 57.94854422266984 58.40999816883354 58.68687053653177 58.90221571140816 59.30214246475004 59.51748763962644 59.91741439296832 60.28657754989928 60.53268632118659 60.901849478117555 61.14795824940487 61.45559421351401 61.76323017762314 61.947811756088626 62.22468412378685 62.47079289507416 62.68613806995056 62.77842885918329 62.870719648416035 62.99377403405969 63.055301226881525 63.08606482329243 63.08606482329243 63.11682841970335 63.11682841970335 63.11682841970335 63.14759201611426 63.17835561252517 63.239882805347 63.27064640175792 63.36293719099066 63.424464383812484 63.516755173045226 63.63980955868888 63.73210034792162 63.824391137154365 63.94744552279802 64.00897271561985 64.1012635048526 64.16279069767441 64.19355429408533 64.22431789049625 64.22431789049625 64.22431789049625 64.22431789049625 64.22431789049625 64.25508148690716 64.22431789049625 64.25508148690716 64.22431789049625 64.22431789049625 64.22431789049625 64.22431789049625 64.22431789049625 64.22431789049625 64.22431789049625 64.22431789049625 64.22431789049625 64.22431789049625 64.22431789049625 64.22431789049625 64.22431789049625 64.22431789049625 64.22431789049625 64.22431789049625 64.22431789049625 64.22431789049625 64.22431789049625 64.22431789049625 64.22431789049625 64.22431789049625 64.25508148690716 64.22431789049625 64.22431789049625 64.22431789049625 64.22431789049625 64.22431789049625 64.22431789049625 64.22431789049625 64.22431789049625 64.22431789049625 64.22431789049625 64.22431789049625 64.22431789049625 64.22431789049625 64.22431789049625 64.22431789049625 64.22431789049625 64.22431789049625 64.22431789049625 64.22431789049625 64.22431789049625 64.22431789049625 64.22431789049625 64.22431789049625 64.22431789049625 64.22431789049625 64.22431789049625 64.22431789049625 64.22431789049625 64.22431789049625 64.22431789049625 64.22431789049625 64.22431789049625 64.22431789049625 64.22431789049625 64.22431789049625 64.22431789049625 64.22431789049625 64.22431789049625 64.22431789049625 64.22431789049625 64.22431789049625 64.22431789049625 64.22431789049625 64.22431789049625 64.22431789049625 64.22431789049625 64.22431789049625 64.22431789049625 64.22431789049625 64.22431789049625 64.22431789049625 64.22431789049625 64.22431789049625 64.22431789049625 64.22431789049625 64.22431789049625 64.22431789049625 64.22431789049625 64.22431789049625 64.22431789049625 64.22431789049625 64.22431789049625 64.22431789049625 64.19355429408533 64.19355429408533 64.19355429408533 64.19355429408533 64.19355429408533 64.16279069767441 64.19355429408533 64.16279069767441 64.16279069767441 64.16279069767441 64.1320271012635 64.16279069767441 64.16279069767441 64.1320271012635 64.1320271012635 64.16279069767441 64.1320271012635 64.1320271012635 64.1320271012635 64.1320271012635 64.1320271012635 64.1320271012635 64.1320271012635 64.1320271012635 64.1320271012635 64.1320271012635 64.1320271012635 64.1320271012635 64.1320271012635 64.1320271012635 64.1320271012635 64.1320271012635 64.1012635048526 64.1012635048526 64.07049990844168 64.07049990844168 64.03973631203075 64.03973631203075 64.00897271561985 64.00897271561985 64.00897271561985 63.978209119208934 63.978209119208934 63.978209119208934 63.94744552279802 63.94744552279802 63.94744552279802 63.94744552279802 63.94744552279802 63.94744552279802 63.94744552279802 63.94744552279802 63.94744552279802 63.94744552279802 63.916681926387106 63.94744552279802 63.94744552279802 63.916681926387106 63.916681926387106 63.94744552279802 63.94744552279802 63.94744552279802 63.916681926387106 63.916681926387106 63.916681926387106 63.916681926387106 63.916681926387106 63.916681926387106 63.916681926387106 63.916681926387106 63.916681926387106 63.916681926387106 63.916681926387106 63.916681926387106 63.88591832997619 63.916681926387106 63.916681926387106 63.916681926387106 63.916681926387106 63.88591832997619 63.88591832997619 63.85515473356528 63.85515473356528 63.85515473356528 63.85515473356528 63.85515473356528 63.85515473356528 63.85515473356528 63.85515473356528 63.85515473356528 63.85515473356528 63.85515473356528 63.85515473356528 63.85515473356528 63.85515473356528 63.824391137154365 63.824391137154365 63.824391137154365 63.824391137154365 63.824391137154365 63.79362754074345 63.79362754074345 63.79362754074345 63.79362754074345 63.76286394433254 63.73210034792162 63.73210034792162 63.73210034792162 63.70133675151071 63.70133675151071 63.70133675151071 63.670573155099795 63.670573155099795 63.670573155099795 63.670573155099795 63.63980955868888 63.63980955868888 63.63980955868888 63.63980955868888 63.63980955868888 63.63980955868888 63.63980955868888 63.63980955868888 63.63980955868888 63.63980955868888 63.63980955868888 63.63980955868888 63.63980955868888 63.63980955868888 63.63980955868888 63.63980955868888 63.60904596227797 63.578282365867054 63.578282365867054 63.516755173045226 63.516755173045226 63.48599157663431 63.424464383812484 63.39370078740157 63.33217359457974 63.30140999816883 63.239882805347 63.20911920893609 63.20911920893609 63.20911920893609 63.17835561252517 63.17835561252517 63.17835561252517 63.17835561252517 63.17835561252517 63.17835561252517 63.14759201611426 63.14759201611426 63.11682841970335 63.11682841970335 63.055301226881525 63.055301226881525 63.024537630470604 62.96301043764878 62.93224684123786 62.901483244826956 62.870719648416035 62.870719648416035 62.870719648416035 62.870719648416035 62.870719648416035 62.870719648416035 62.870719648416035 62.870719648416035 62.870719648416035 62.870719648416035 62.901483244826956 62.870719648416035 62.870719648416035 62.870719648416035 62.901483244826956 62.901483244826956 62.870719648416035 62.901483244826956 62.901483244826956 62.901483244826956 62.901483244826956 62.901483244826956 62.901483244826956 62.901483244826956 62.901483244826956 62.901483244826956 62.901483244826956 62.901483244826956 62.901483244826956 62.93224684123786 62.93224684123786 62.93224684123786 62.93224684123786 62.93224684123786 62.93224684123786 62.93224684123786 62.93224684123786 62.96301043764878 62.96301043764878 62.96301043764878 62.96301043764878 62.99377403405969 62.99377403405969 62.99377403405969 62.99377403405969 63.024537630470604 62.99377403405969 62.99377403405969 62.99377403405969 62.99377403405969 62.99377403405969 62.99377403405969 62.99377403405969 63.024537630470604 62.99377403405969 62.99377403405969 62.99377403405969 62.99377403405969 62.99377403405969 62.99377403405969 62.99377403405969 62.99377403405969 62.99377403405969 62.99377403405969 62.99377403405969 62.99377403405969 62.99377403405969 62.99377403405969 62.99377403405969 62.96301043764878 62.96301043764878 62.96301043764878 62.96301043764878 62.96301043764878 62.93224684123786 62.93224684123786 62.901483244826956 62.870719648416035 62.870719648416035 62.83995605200513 62.83995605200513 62.80919245559421 62.77842885918329 62.74766526277239 62.716901666361466 62.68613806995056 62.65537447353964 62.62461087712873 62.59384728071782 62.5630836843069 62.5630836843069 62.5630836843069 62.5630836843069 62.5630836843069 62.5630836843069 62.59384728071782 62.5630836843069 62.5630836843069 62.53232008789599 62.50155649148507 62.50155649148507 62.47079289507416 62.44002929866325 62.37850210584142 62.347738509430506 62.28621131660868 62.22468412378685 62.13239333455411 62.07086614173228 62.009338948910454 61.947811756088626 61.8862845632668 61.79399377403406 61.73246658121223 61.64017579197949 61.609412195568574 61.45559421351401 61.36330342428126 61.17872184581578 60.994140267350296 60.84032228529573 60.62497711041934 60.440395531953854 60.28657754989928 60.07123237502289 59.91741439296832 59.64054202527009 59.2098516755173 59.117560886284565 58.779161325764505 58.47152536165537 58.163889397546235 57.88701702984801 57.517853872917044 57.179454312397 56.841054751876946 56.59494598058963 56.348837209302324 56.10272843801501 55.91814685954953 55.45669291338582 55.24134773850943 54.90294817798937 54.53378502105841 54.2876762497711 54.072331074894706 53.580113532320084 53.33400476103277 52.99560520051273 52.74949642922542 52.411096868705364 52.0419337117744 51.67277055484343 51.42666178355613 51.05749862662516 50.78062625892693 50.4729902948178 50.22688152353049 49.76542757736678 49.427028016846734 49.18091924555942 48.93481047427211 48.719465299395715 48.38106573887566 47.98113898553378 47.765793810657385 47.45815784654825 47.18128547885003 46.965940303973625 46.78135872550815 46.504486357809924 46.2276139901117 46.0122688152353 45.82768723676982 45.58157846548251 45.30470609778429 45.089360922907886 44.781724958798755 44.59714338033327 44.35103460904596 44.074162241347736 43.88958066288225 43.64347189159494 43.305072331074896 43.15125434902033 42.905145577733016 42.75132759567845 42.566746017212964 42.38216443874748 42.259110053103825 42.07452847463834 41.85918329976195 41.705365317707376 41.490020142830986 41.36696575718733 41.15162058231093 40.936275407434536 40.78245742537997 40.536348654092656 40.290239882805345 40.136421900750776 39.921076725874386 39.76725874381981 39.49038637612159 39.24427760483428 39.09045962277971 38.75206006225966 38.59824208020509 38.321369712506865 38.10602453763047 37.9522065555759 37.767624977110415 37.552279802234025 37.398461820179456 37.21388024171397 36.998535066837576 36.84471708478301 36.62937190990661 36.47555392785204 36.22944515656473 36.01409998168833 35.79875480681194 35.55264603552463 35.27577366782641 35.029664896539096 34.90661051089544 34.75279252884087 34.56821095037539 34.41439296832082 34.29133858267716 34.137520600622594 34.075993407800766 33.983702618568024 33.89141182933528 33.860648232924376 33.79912104010255 33.7068302508698 33.64530305804798 33.55301226881524 33.49148507599341 33.39919428676067 33.27613990111701 33.18384911188427 33.15308551547336 33.060794726240616 33.0300311298297 32.93774034059696 32.906976744186046 32.814685954953305 32.72239516572056 32.660867972898735 32.63010437648782 32.53781358725508 32.507049990844166 32.414759201611425 32.3532320087896 32.29170481596777 32.19941402673503 32.168650430324114 32.07635964109137 31.984068851858634 31.95330525544772 31.86101446621498 31.79948727339315 31.70719648416041 31.676432887749495 31.64566929133858 31.64566929133858 31.64566929133858 31.614905694927668 31.584142098516754 31.55337850210584 31.491851309284012 31.399560520051274 31.307269730818533 31.27650613440762 31.21497894158579 31.153451748763963 31.091924555942136 31.030397363120308 30.96887017029848 30.907342977476652 30.87657938106574 30.87657938106574 30.845815784654825 30.784288591832997 30.72276139901117 30.691997802600255 30.599707013367514 30.538179820545686 30.445889031312948 30.353598242080206 30.29207104925838 30.169016663614723 30.015198681560154 29.8921442959165 29.8921442959165 29.861380699505585 29.861380699505585 29.861380699505585 29.861380699505585 29.83061710309467 29.83061710309467 29.83061710309467 29.769089910272843 29.769089910272843 29.73832631386193 29.73832631386193 29.707562717451015 29.707562717451015 29.6767991210401 29.6767991210401 29.6767991210401 29.646035524629188 29.646035524629188 29.615271928218274 29.58450833180736 29.58450833180736 29.58450833180736 29.58450833180736 29.553744735396446 29.522981138985532 29.522981138985532 29.49221754257462 29.49221754257462 29.461453946163708 29.461453946163708 29.461453946163708 29.430690349752794 29.430690349752794 29.430690349752794 29.430690349752794 29.430690349752794 29.39992675334188 29.39992675334188 29.39992675334188 29.39992675334188 29.39992675334188 29.39992675334188 29.39992675334188 29.39992675334188 29.369163156930966 29.369163156930966 29.369163156930966 29.338399560520052 29.338399560520052 29.338399560520052 29.338399560520052 29.338399560520052 29.338399560520052 29.30763596410914 29.30763596410914 29.30763596410914 29.30763596410914 29.30763596410914 29.30763596410914 29.30763596410914 29.276872367698225 29.276872367698225 29.276872367698225 29.276872367698225 29.276872367698225 29.276872367698225 29.276872367698225 29.276872367698225 29.276872367698225 29.276872367698225 29.276872367698225 29.276872367698225 29.276872367698225 29.276872367698225 29.24610877128731 29.24610877128731 29.24610877128731 29.24610877128731 29.24610877128731 29.24610877128731 29.24610877128731 29.24610877128731 29.215345174876397 29.215345174876397 29.215345174876397 29.215345174876397 29.184581578465483 29.184581578465483 29.215345174876397 29.184581578465483 29.215345174876397 29.184581578465483 29.184581578465483 29.184581578465483 29.184581578465483 29.184581578465483 29.184581578465483 29.184581578465483 29.184581578465483 29.184581578465483 29.184581578465483 29.184581578465483 29.184581578465483 29.184581578465483 29.184581578465483 29.184581578465483 29.184581578465483 29.184581578465483 29.184581578465483 29.184581578465483 29.184581578465483 29.184581578465483 29.184581578465483 29.184581578465483 29.184581578465483 29.184581578465483 29.184581578465483 29.184581578465483 29.184581578465483 29.184581578465483 29.184581578465483 29.184581578465483 29.184581578465483 29.184581578465483 29.184581578465483 29.184581578465483 29.184581578465483 29.184581578465483 29.184581578465483 29.184581578465483 29.184581578465483 29.184581578465483 29.184581578465483 29.184581578465483 29.184581578465483 29.184581578465483 29.184581578465483 29.184581578465483 29.184581578465483 29.184581578465483 29.184581578465483 29.184581578465483 29.184581578465483 29.184581578465483 29.184581578465483 29.184581578465483 29.184581578465483 29.184581578465483 29.184581578465483 29.184581578465483 29.184581578465483 29.184581578465483 29.184581578465483 29.184581578465483 29.184581578465483 29.184581578465483 29.184581578465483 29.184581578465483 29.184581578465483 29.184581578465483 29.184581578465483 29.184581578465483 29.184581578465483 29.184581578465483 29.184581578465483 29.184581578465483 29.184581578465483 29.184581578465483 29.184581578465483 29.184581578465483 29.184581578465483 29.184581578465483 29.184581578465483 29.184581578465483 29.184581578465483 29.184581578465483 29.184581578465483 29.184581578465483 29.184581578465483 29.184581578465483 29.184581578465483 29.184581578465483 29.184581578465483 29.184581578465483 29.184581578465483 29.184581578465483 29.184581578465483 29.184581578465483 29.184581578465483 29.184581578465483 29.184581578465483 29.184581578465483 29.184581578465483 29.184581578465483 29.184581578465483 29.184581578465483 29.184581578465483 29.184581578465483 29.184581578465483 29.184581578465483 29.184581578465483 29.184581578465483 29.184581578465483 29.184581578465483 29.184581578465483 29.184581578465483 29.184581578465483 29.184581578465483 29.184581578465483 29.184581578465483 29.184581578465483 29.184581578465483 29.184581578465483 29.184581578465483 29.184581578465483 29.184581578465483 29.184581578465483 29.184581578465483 29.184581578465483 29.184581578465483 29.184581578465483 29.184581578465483 29.184581578465483 29.184581578465483 29.184581578465483 29.184581578465483 29.184581578465483 29.184581578465483 29.184581578465483 29.184581578465483 29.184581578465483 29.184581578465483 29.184581578465483 29.184581578465483 29.184581578465483 29.184581578465483 29.184581578465483 29.184581578465483 29.184581578465483 29.184581578465483 29.184581578465483 29.184581578465483 29.184581578465483 29.184581578465483 29.184581578465483 29.184581578465483 29.184581578465483 29.184581578465483 29.184581578465483 29.184581578465483 29.184581578465483 29.184581578465483 29.184581578465483 29.184581578465483 29.184581578465483 29.184581578465483 29.184581578465483 29.184581578465483 29.184581578465483 29.184581578465483 29.184581578465483 29.184581578465483 29.184581578465483 29.184581578465483 29.184581578465483 29.184581578465483 29.184581578465483 29.184581578465483 29.184581578465483 29.184581578465483 29.184581578465483 29.184581578465483 29.184581578465483 29.184581578465483 29.184581578465483 29.184581578465483 29.184581578465483 29.184581578465483 29.184581578465483 29.184581578465483 29.184581578465483 29.184581578465483 29.184581578465483 29.184581578465483 29.184581578465483 29.184581578465483 29.184581578465483 29.184581578465483 29.184581578465483 29.184581578465483 29.184581578465483 29.184581578465483 29.184581578465483 29.184581578465483 29.184581578465483 29.184581578465483 29.184581578465483 29.184581578465483 29.184581578465483 29.184581578465483 29.184581578465483 29.184581578465483 29.184581578465483 29.184581578465483 29.184581578465483 29.184581578465483 29.184581578465483 29.184581578465483 29.184581578465483 29.184581578465483 29.184581578465483 29.184581578465483 29.184581578465483 29.184581578465483 29.184581578465483 29.184581578465483 29.184581578465483 29.184581578465483 29.184581578465483 29.184581578465483 29.184581578465483 29.184581578465483 29.184581578465483 29.184581578465483 29.184581578465483 29.184581578465483 29.184581578465483 29.184581578465483 29.184581578465483 29.184581578465483 29.184581578465483 29.184581578465483 29.184581578465483 29.184581578465483 29.184581578465483 29.184581578465483 29.184581578465483 29.184581578465483 29.184581578465483 29.184581578465483 29.184581578465483 29.184581578465483 29.184581578465483 29.184581578465483 29.184581578465483 29.184581578465483 29.184581578465483 29.184581578465483 29.184581578465483 29.184581578465483 29.184581578465483 29.184581578465483 29.184581578465483 29.184581578465483 29.184581578465483 29.184581578465483 29.184581578465483 29.184581578465483 29.184581578465483 29.184581578465483 29.184581578465483 29.184581578465483 29.184581578465483 29.184581578465483 29.184581578465483 29.184581578465483 29.184581578465483 29.184581578465483 29.184581578465483 29.184581578465483 29.184581578465483 29.184581578465483 29.184581578465483 29.184581578465483 29.184581578465483 29.184581578465483 29.184581578465483 29.184581578465483 29.184581578465483 29.184581578465483 29.184581578465483 29.184581578465483 29.184581578465483 29.184581578465483 29.184581578465483 29.184581578465483 29.184581578465483 29.184581578465483 29.184581578465483 29.184581578465483 29.184581578465483 29.184581578465483 29.184581578465483 29.184581578465483 29.184581578465483 29.184581578465483 29.184581578465483 29.184581578465483 29.184581578465483 29.184581578465483 29.184581578465483 29.184581578465483 29.184581578465483 29.184581578465483 29.184581578465483 29.184581578465483 29.184581578465483 29.184581578465483 29.184581578465483 29.184581578465483 29.184581578465483 29.184581578465483 29.184581578465483 29.184581578465483 29.184581578465483 29.184581578465483 29.184581578465483 29.184581578465483 29.184581578465483 29.184581578465483 29.184581578465483 29.184581578465483 29.184581578465483 29.184581578465483 29.184581578465483 29.184581578465483 29.184581578465483 29.184581578465483 29.184581578465483 29.184581578465483 29.184581578465483 29.184581578465483 29.184581578465483 29.184581578465483 29.184581578465483 29.184581578465483 29.184581578465483 29.184581578465483 29.184581578465483 29.184581578465483 29.184581578465483 29.184581578465483 29.184581578465483 29.184581578465483 29.184581578465483 29.184581578465483 29.184581578465483 29.184581578465483 29.184581578465483 29.184581578465483 29.184581578465483 29.184581578465483 29.184581578465483 29.184581578465483 29.184581578465483 29.184581578465483 29.184581578465483 29.184581578465483 29.184581578465483 29.184581578465483 29.184581578465483 29.184581578465483 29.184581578465483 29.184581578465483 29.184581578465483 29.184581578465483 29.184581578465483 29.184581578465483 29.184581578465483 29.184581578465483 29.184581578465483 29.184581578465483 29.184581578465483 29.184581578465483 29.184581578465483 29.184581578465483 29.184581578465483 29.184581578465483 29.184581578465483 29.184581578465483 29.184581578465483 29.184581578465483 29.184581578465483 29.184581578465483 29.184581578465483 29.184581578465483 29.184581578465483 29.184581578465483 29.184581578465483 29.184581578465483 29.184581578465483 29.184581578465483 29.184581578465483 29.184581578465483 29.184581578465483 29.184581578465483 29.184581578465483 29.184581578465483 29.184581578465483 29.184581578465483 29.184581578465483 29.184581578465483 29.184581578465483 29.184581578465483 29.184581578465483 29.184581578465483 29.184581578465483 29.184581578465483 29.184581578465483 29.184581578465483 29.184581578465483 29.184581578465483 29.184581578465483 29.184581578465483 29.184581578465483 29.184581578465483 29.184581578465483 29.184581578465483 29.184581578465483 29.184581578465483 29.184581578465483 29.184581578465483 29.184581578465483 29.184581578465483 29.184581578465483 29.184581578465483 29.184581578465483 29.184581578465483 29.184581578465483 29.184581578465483 29.184581578465483 29.184581578465483 29.184581578465483 29.184581578465483 29.184581578465483 29.184581578465483 29.184581578465483 29.184581578465483 29.184581578465483 29.184581578465483 29.184581578465483 29.184581578465483 29.184581578465483 29.184581578465483 29.184581578465483 29.184581578465483 29.184581578465483 29.184581578465483 29.184581578465483 29.184581578465483 29.184581578465483 29.184581578465483 29.184581578465483 29.184581578465483 29.184581578465483 29.184581578465483 29.184581578465483 29.184581578465483 29.184581578465483 29.184581578465483 29.184581578465483 29.184581578465483 29.184581578465483 29.184581578465483 29.184581578465483 29.184581578465483 29.184581578465483 29.184581578465483 29.184581578465483 29.184581578465483 29.184581578465483 29.184581578465483 29.184581578465483 29.184581578465483 29.184581578465483 29.184581578465483 29.184581578465483 29.184581578465483 29.184581578465483 29.184581578465483 29.184581578465483 29.184581578465483 29.184581578465483 29.184581578465483 29.184581578465483 29.184581578465483 29.184581578465483 29.184581578465483 29.184581578465483 29.184581578465483 29.184581578465483 29.184581578465483 29.184581578465483 29.184581578465483 29.184581578465483 29.184581578465483 29.184581578465483 29.184581578465483 29.15381798205457 29.15381798205457 29.15381798205457 29.15381798205457 29.15381798205457 29.15381798205457 29.123054385643655 29.15381798205457 29.123054385643655 29.123054385643655 29.123054385643655 29.123054385643655 29.123054385643655 29.123054385643655 29.123054385643655 29.123054385643655 29.09229078923274 29.09229078923274 29.123054385643655 29.09229078923274 29.09229078923274 29.09229078923274 29.09229078923274 29.09229078923274 29.09229078923274 29.09229078923274 29.09229078923274 29.09229078923274 29.123054385643655 29.09229078923274 29.123054385643655 29.09229078923274 29.123054385643655 29.09229078923274 29.09229078923274 29.09229078923274 29.09229078923274 29.09229078923274 29.09229078923274 29.09229078923274 29.09229078923274 29.09229078923274 29.09229078923274 29.09229078923274 29.09229078923274 29.123054385643655 29.09229078923274 29.09229078923274 29.09229078923274 29.09229078923274 29.09229078923274 29.09229078923274 29.09229078923274 29.09229078923274 29.09229078923274 29.09229078923274 29.09229078923274 29.09229078923274 29.09229078923274 29.09229078923274 29.09229078923274 29.09229078923274 29.09229078923274 29.09229078923274 29.09229078923274 29.09229078923274 29.09229078923274 29.09229078923274 29.09229078923274 29.09229078923274 29.09229078923274 29.09229078923274 29.09229078923274 29.09229078923274 29.09229078923274 29.09229078923274 29.09229078923274 29.09229078923274 29.09229078923274 29.09229078923274 29.09229078923274 29.09229078923274 29.09229078923274 29.09229078923274 29.09229078923274 29.09229078923274 29.09229078923274 29.09229078923274 29.09229078923274 29.09229078923274 29.09229078923274 29.09229078923274 29.09229078923274 29.09229078923274 29.09229078923274 29.09229078923274 29.09229078923274 29.09229078923274 29.09229078923274 29.09229078923274 29.09229078923274 29.09229078923274 29.09229078923274 29.09229078923274 29.09229078923274 29.09229078923274 29.09229078923274 29.09229078923274 29.09229078923274 29.09229078923274 29.09229078923274 29.09229078923274 29.09229078923274 29.09229078923274 29.09229078923274 29.09229078923274 29.09229078923274 29.09229078923274 29.09229078923274 29.09229078923274 29.09229078923274 29.09229078923274 29.09229078923274 29.09229078923274 29.09229078923274 29.09229078923274 29.09229078923274 29.09229078923274 29.09229078923274 29.09229078923274 29.09229078923274 29.09229078923274 29.09229078923274 29.09229078923274 29.09229078923274 29.09229078923274 29.09229078923274 29.09229078923274 29.09229078923274 29.09229078923274 29.09229078923274 29.09229078923274 29.09229078923274 29.09229078923274 29.09229078923274 29.09229078923274 29.09229078923274 29.09229078923274 29.09229078923274 29.09229078923274 29.09229078923274 29.09229078923274 29.09229078923274 29.09229078923274 29.09229078923274 29.09229078923274 29.09229078923274 29.09229078923274 29.09229078923274 29.09229078923274 29.123054385643655 29.09229078923274 29.09229078923274 29.09229078923274 29.09229078923274 29.09229078923274 29.09229078923274 29.123054385643655 29.09229078923274 29.09229078923274 29.09229078923274 29.09229078923274 29.09229078923274 29.09229078923274 29.123054385643655 29.09229078923274 29.09229078923274 29.123054385643655 29.123054385643655 29.123054385643655 29.123054385643655 29.123054385643655 29.09229078923274 29.123054385643655 29.123054385643655 29.123054385643655 29.123054385643655 29.123054385643655 29.123054385643655 29.15381798205457 29.15381798205457 29.215345174876397 29.24610877128731 29.276872367698225 29.369163156930966 29.39992675334188 29.49221754257462 29.522981138985532 29.58450833180736 29.646035524629188 29.769089910272843 29.83061710309467 29.8921442959165 30.045962277971068 30.107489470792896 30.169016663614723 30.169016663614723 30.199780260025637 30.23054385643655 30.261307452847465 30.29207104925838 30.353598242080206 30.38436183849112 30.47665262772386 30.5689434169566 30.66123420618934 30.753524995422083 30.845815784654825 30.999633766709394 31.153451748763963 31.27650613440762 31.430324116462188 31.584142098516754 31.830250869804065 32.07635964109137 32.3532320087896 32.53781358725508 32.84544955136422 33.09155832265153 33.30690349752793 33.522248672404324 33.73759384728072 34.04522981138985 34.19904779344442 34.35286577549899 34.66050173960813 34.8143197216627 34.99890130012818 35.183482878593665 35.429591649880976 35.706464017579194 35.9218091924556 36.29097234938656 36.53708112067387 36.87548068119392 37.24464383812489 37.4907526094122 38.013733748397726 38.38289690532869 38.567478483794176 38.93664164072514 39.18275041201245 39.70573155099798 40.07489470792895 40.32100347921626 40.597875846914484 40.90551181102362 41.090093389489105 41.27467496795458 41.55154733565281 41.85918329976195 42.197582860282 42.44369163156931 42.75132759567845 43.18201794543124 43.39736312030763 43.73576268082768 43.95110785570408 44.16645303058048 44.474088994689616 44.68943416956601 45.089360922907886 45.396996887017025 45.61234206189343 45.88921442959165 46.07379600805713 46.28914118293353 46.596777147042665 46.78135872550815 47.02746749679545 47.24281267167186 47.42739425013734 47.64273942501373 47.85808459989013 48.011902581944696 48.25801135323201 48.411829335286576 48.62717451016297 48.84251968503936 49.027101263504846 49.30397363120308 49.45779161325764 49.642373191723124 49.85771836659953 50.042299945065004 50.41146310199597 50.65757187328328 50.87291704815968 51.149789415857896 51.3651345907343 51.61124336202161 51.88811572971983 52.0419337117744 52.288042483061716 52.47262406152719 52.718732832814496 52.9340780076909 53.14942318256729 53.364768357443694 53.610877128731005 53.76469511078557 54.01080388207288 54.19538546053836 54.41073063541476 54.68760300311298 54.872184581578466 55.026002563633035 55.21058414209851 55.425929316974916 55.61051089544039 55.70280168467313 55.948910455960444 56.16425563083684 56.28731001648049 56.47189159494598 56.68723676982238 56.81029115546603 57.02563633034242 57.14869071598608 57.33327229445156 57.48709027650613 57.61014466214979 57.73319904779344 57.88701702984801 58.010071415491666 58.13312580113532 58.22541659036806 58.34847097601172 58.47152536165537 58.62534334370994 58.68687053653177 58.84068851858633 58.99450650064091 59.14832448269547 59.24061527192821 59.363669657571876 59.51748763962644 59.60977842885918 59.67130562168101 59.76359641091375 59.82512360373558 59.886650796557404 59.91741439296832 59.978941585790146 60.07123237502289 60.07123237502289 60.1019959714338 60.132759567844715 60.132759567844715 60.132759567844715 60.132759567844715 60.16352316425563 60.22505035707745 60.22505035707745 60.22505035707745 60.28657754989928 60.28657754989928 60.3173411463102 60.3173411463102 60.34810474272111 60.378868339132026 60.40963193554294 60.47115912836477 60.53268632118659 60.56344991759751 60.62497711041934 60.655740706830244 60.686504303241165 60.74803149606299 60.74803149606299 60.778795092473906 60.778795092473906 60.84032228529573 60.87108588170665 60.901849478117555 60.96337667093938 61.02490386376122 61.086431056583045 61.11719465299395 61.14795824940487 61.20948544222669 61.27101263504852 61.27101263504852 61.30177623145944 61.30177623145944 61.33253982787035 61.33253982787035 61.33253982787035 61.33253982787035 61.33253982787035 61.33253982787035 61.33253982787035 61.33253982787035 61.33253982787035 61.33253982787035 61.33253982787035 61.33253982787035 61.33253982787035 61.33253982787035 61.33253982787035 61.33253982787035 61.33253982787035 61.33253982787035 61.33253982787035 61.33253982787035 61.33253982787035 61.36330342428126 61.39406702069218 61.39406702069218 61.42483061710309 61.42483061710309 61.42483061710309 61.42483061710309 61.42483061710309 61.45559421351401 61.45559421351401 61.42483061710309 61.42483061710309 61.42483061710309 61.42483061710309 61.42483061710309 61.42483061710309 61.42483061710309 61.42483061710309 61.42483061710309 61.42483061710309 61.42483061710309 61.42483061710309 61.42483061710309 61.42483061710309 61.42483061710309 61.42483061710309 61.42483061710309 61.42483061710309 61.42483061710309 61.42483061710309 61.42483061710309 61.42483061710309 61.42483061710309 61.42483061710309 61.42483061710309 61.42483061710309 61.42483061710309 61.42483061710309 61.42483061710309 61.42483061710309 61.42483061710309 61.42483061710309 61.42483061710309 61.42483061710309 61.42483061710309 61.42483061710309 61.42483061710309 61.42483061710309 61.42483061710309 61.42483061710309 61.42483061710309 61.42483061710309 61.42483061710309 61.42483061710309 61.42483061710309 61.42483061710309 61.42483061710309 61.42483061710309 61.42483061710309 61.42483061710309 61.39406702069218 61.39406702069218 61.39406702069218 61.39406702069218 61.39406702069218 61.39406702069218 61.39406702069218 61.39406702069218 61.39406702069218 61.39406702069218 61.39406702069218 61.36330342428126 61.39406702069218 61.39406702069218 61.39406702069218 61.39406702069218 61.39406702069218 61.39406702069218 61.39406702069218 61.39406702069218 61.39406702069218 61.39406702069218 61.39406702069218 61.39406702069218 61.39406702069218 61.39406702069218 61.39406702069218 61.39406702069218 61.39406702069218 61.39406702069218 61.39406702069218 61.39406702069218 61.39406702069218 61.39406702069218 61.39406702069218 61.36330342428126 61.39406702069218 61.39406702069218 61.39406702069218 61.39406702069218 61.39406702069218 61.39406702069218 61.39406702069218 61.39406702069218 61.39406702069218 61.36330342428126 61.39406702069218 61.39406702069218 61.36330342428126 61.39406702069218 61.39406702069218 61.39406702069218 61.39406702069218 61.36330342428126 61.39406702069218 61.39406702069218 61.39406702069218 61.36330342428126 61.36330342428126 61.36330342428126 61.36330342428126 61.36330342428126 61.33253982787035 61.33253982787035 61.33253982787035 61.33253982787035 61.33253982787035 61.33253982787035 61.33253982787035 61.33253982787035 61.33253982787035 61.36330342428126 61.33253982787035 61.33253982787035 61.33253982787035 61.33253982787035 61.33253982787035 61.33253982787035 61.33253982787035 61.33253982787035 61.33253982787035 61.33253982787035 61.33253982787035 61.33253982787035 61.33253982787035 61.33253982787035 61.33253982787035 61.33253982787035 61.33253982787035 61.33253982787035 61.33253982787035 61.33253982787035 61.33253982787035 61.33253982787035 61.33253982787035 61.33253982787035 61.33253982787035 61.33253982787035 61.33253982787035 61.33253982787035 61.33253982787035 61.33253982787035 61.33253982787035 61.33253982787035 61.33253982787035 61.33253982787035 61.33253982787035 61.33253982787035 61.33253982787035 61.33253982787035 61.33253982787035 61.33253982787035 61.33253982787035 61.33253982787035 61.33253982787035 61.33253982787035 61.33253982787035 61.33253982787035 61.33253982787035 61.33253982787035 61.33253982787035 61.33253982787035 61.33253982787035 61.33253982787035 61.33253982787035 61.33253982787035 61.33253982787035 61.30177623145944 61.30177623145944 61.33253982787035 61.30177623145944 61.33253982787035 61.30177623145944 61.30177623145944 61.30177623145944 61.33253982787035 61.33253982787035 61.30177623145944 61.30177623145944 61.27101263504852 61.27101263504852 61.240249038637614 61.240249038637614 61.20948544222669 61.17872184581578 61.17872184581578 61.14795824940487 61.14795824940487 61.14795824940487 61.14795824940487 61.11719465299395 61.11719465299395 61.11719465299395 61.11719465299395 61.11719465299395 61.086431056583045 61.086431056583045 61.055667460172124 61.055667460172124 61.055667460172124 61.055667460172124 61.055667460172124 61.055667460172124 61.02490386376122 61.02490386376122 61.02490386376122 60.994140267350296 60.994140267350296 60.994140267350296 60.994140267350296 60.994140267350296 60.994140267350296 60.994140267350296 60.96337667093938 60.994140267350296 60.96337667093938 60.96337667093938 60.96337667093938 60.96337667093938 60.994140267350296 60.96337667093938 60.96337667093938 60.96337667093938 60.96337667093938 60.96337667093938 60.994140267350296 60.96337667093938 60.96337667093938 60.96337667093938 60.96337667093938 60.96337667093938 60.96337667093938 60.96337667093938 60.96337667093938 60.96337667093938 60.96337667093938 60.96337667093938 60.96337667093938 60.96337667093938 60.96337667093938 60.96337667093938 60.96337667093938 60.96337667093938 60.96337667093938 60.994140267350296 60.994140267350296 60.96337667093938 60.96337667093938 60.96337667093938 60.96337667093938 60.994140267350296 60.96337667093938 60.932613074528476 60.932613074528476 60.901849478117555 60.87108588170665 60.87108588170665 60.778795092473906 60.71726789965207 60.655740706830244 60.56344991759751 60.440395531953854 60.40963193554294 60.3173411463102 60.28657754989928 60.19428676066654 60.132759567844715 60.040468778611974 59.886650796557404 59.79436000732467 59.732832814502835 59.60977842885918 59.48672404321553 59.425196850393704 59.30214246475004 59.24061527192821 59.05603369346274 58.93297930781908 58.7483977293536 58.533052554477194 58.37923457242263 58.13312580113532 57.94854422266984 57.67167185497162 57.4255630836843 57.210217908807905 56.90258194469877 56.56418238417872 56.31807361289141 55.97967405237136 55.70280168467313 55.36440212415309 54.81065738875664 54.56454861746933 54.2876762497711 54.0415674784838 53.48782274308734 53.08789598974546 52.811023622047244 52.38033327229445 51.949642922541656 51.67277055484343 51.211316608679724 50.87291704815968 50.4729902948178 49.888481963010435 49.61160959531221 49.30397363120308 49.027101263504846 48.81175608862846 48.44259293169749 48.19648416041018 47.85808459989013 47.550448635780995 47.18128547885003 46.87364951474089 46.504486357809924 46.28914118293353 45.950741622413474 45.70463285112616 45.36623329060612 45.02783373008606 44.81248855520967 44.50485259110053 44.25874381981322 44.074162241347736 43.828053470060425 43.612708295184035 43.45889031312946 43.24354513825307 43.0897271561985 42.905145577733016 42.59750961362388 42.47445522798022 42.28987364951474 42.16681926387108 41.92071049258377 41.67460172129647 41.36696575718733 41.05932979307819 40.72093023255814 40.50558505768174 40.16718549716169 39.921076725874386 39.55191356894342 39.21351400842337 38.99816883354697 38.65976927302692 38.413660501739606 38.25984251968504 38.04449734480864 37.98297015198681 37.921442959164985 37.82915216993224 37.767624977110415 37.70609778428859 37.64457059146676 37.521516205823104 37.42922541659037 37.36769822376854 37.306171030946714 37.21388024171397 37.12158945248123 36.96777147042666 36.906244277604834 36.752426295550265 36.598608313495696 36.47555392785204 36.352499542208385 36.22944515656473 36.106390770921074 35.9218091924556 35.82951840322285 35.64493682475737 35.491118842702804 35.30653726423732 35.183482878593665 34.99890130012818 34.84508331807361 34.629738143197216 34.475920161142646 34.32210217908808 34.16828419703351 34.10675700421168 34.04522981138985 33.95293902215711 33.860648232924376 33.76835744369163 33.7068302508698 33.614539461637065 33.55301226881524 33.49148507599341 33.39919428676067 33.33766709393884 33.27613990111701 33.214612708295185 33.18384911188427 33.12232191906244 33.0300311298297 32.99926753341879 32.93774034059696 32.87621314777513 32.814685954953305 32.75315876213148 32.660867972898735 32.63010437648782 32.568577183665994 32.507049990844166 32.44552279802234 32.38399560520051 32.29170481596777 32.23017762314594 32.168650430324114 32.07635964109137 31.984068851858634 31.891778062625892 31.79948727339315 31.768723676982237 31.676432887749495 31.64566929133858 31.584142098516754 31.55337850210584 31.491851309284012 31.461087712873102 31.430324116462188 31.36879692364036 31.338033327229446 31.27650613440762 31.184215345174877 31.153451748763963 31.12268815235305 31.091924555942136 31.06116095953122 31.06116095953122 30.999633766709394 30.938106573887566 30.907342977476652 30.87657938106574 30.81505218824391 30.753524995422083 30.630470609778428 30.5689434169566 30.507416224134772 30.415125434902034 30.322834645669293 30.23054385643655 30.107489470792896 