29.0 29.0 29.0 29.0 29.0 29.0 29.0 29.0 29.0 29.0 29.0 29.0 29.0 29.0 29.0 29.0 29.0 29.0 29.0 29.0 29.0 28.969236403589086 29.0 29.0 29.0 29.0 29.0 29.0 29.0 29.0 28.969236403589086 29.0 29.0 29.0 29.0 29.0 28.969236403589086 29.0 29.0 29.0 29.0 29.0 28.969236403589086 29.0 29.0 29.0 29.0 29.0 29.0 29.0 29.0 29.0 29.0 29.0 29.0 29.0 29.0 28.969236403589086 29.0 28.969236403589086 29.0 29.0 29.0 29.0 29.0 29.0 29.0 29.0 29.0 29.0 29.0 29.0 29.0 29.0 29.0 29.0 29.0 29.0 29.0 29.0 29.0 29.0 29.0 29.0 29.0 29.0 29.0 28.969236403589086 29.0 29.0 29.0 29.0 29.0 29.0 29.0 29.0 28.969236403589086 29.0 29.0 29.0 29.0 29.0 29.0 29.0 29.0 29.0 29.0 29.0 29.0 29.0 29.0 29.0 29.0 29.0 29.0 29.0 29.0 29.0 29.0 29.0 28.969236403589086 29.0 29.0 29.0 29.0 29.0 29.0 28.969236403589086 29.0 29.0 29.0 29.0 29.0 29.0 29.0 29.0 29.0 29.0 29.0 29.0 28.969236403589086 28.969236403589086 29.0 29.0 29.0 29.0 29.0 28.969236403589086 28.969236403589086 29.0 29.0 29.0 29.0 29.0 29.0 29.0 29.0 29.0 28.969236403589086 29.0 29.0 29.0 29.0 29.0 29.0 29.0 29.0 29.0 29.0 29.0 29.0 29.0 29.0 29.0 29.0 29.0 29.0 29.0 29.0 29.0 29.0 29.0 29.0 29.0 29.0 28.969236403589086 29.0 29.0 29.0 29.0 29.0 28.969236403589086 29.0 29.0 29.0 29.0 29.0 29.0 29.0 29.0 29.0 29.0 29.0 29.0 29.0 29.0 29.0 29.0 29.0 29.0 29.0 28.969236403589086 29.0 29.0 29.0 28.969236403589086 29.0 29.0 29.0 29.0 29.0 29.0 28.969236403589086 29.0 29.0 29.0 29.0 29.0 29.0 29.0 29.0 29.0 29.0 29.0 29.0 29.0 29.0 29.0 29.0 29.0 28.969236403589086 28.969236403589086 29.0 28.969236403589086 29.0 28.969236403589086 29.0 29.0 29.0 29.0 29.0 29.0 29.0 28.969236403589086 29.0 29.0 29.0 28.969236403589086 29.0 29.0 29.0 29.0 29.0 29.0 29.0 28.969236403589086 29.0 29.0 29.0 29.0 29.0 29.0 29.0 29.0 29.0 29.0 29.0 29.0 29.0 29.0 29.0 29.0 29.0 29.0 29.0 29.0 29.0 29.0 28.969236403589086 29.0 29.0 29.0 29.0 29.0 29.0 28.969236403589086 29.0 29.0 29.0 29.0 29.0 29.0 29.0 29.0 29.0 29.0 29.0 29.0 29.0 29.0 28.969236403589086 29.0 29.0 29.0 29.0 29.0 29.0 29.0 29.0 28.969236403589086 29.0 29.0 29.0 29.0 29.0 29.0 29.0 29.0 28.969236403589086 29.0 29.0 28.969236403589086 29.0 28.969236403589086 28.969236403589086 29.0 29.0 29.0 29.0 29.0 29.0 29.0 29.0 29.0 29.0 29.0 29.0 29.0 29.0 29.0 29.0 29.0 28.969236403589086 29.0 29.0 28.969236403589086 29.0 29.0 29.0 29.0 29.0 29.0 29.0 29.0 29.0 29.0 29.0 29.0 29.0 29.0 29.0 29.0 28.969236403589086 29.0 29.0 29.0 28.969236403589086 29.0 29.0 29.0 29.0 29.0 29.0 29.0 28.969236403589086 29.0 28.969236403589086 29.0 29.0 29.0 29.0 28.969236403589086 29.0 29.0 29.0 29.0 29.0 29.0 29.0 29.0 29.0 29.0 29.0 29.0 29.0 29.0 29.0 29.0 29.0 29.0 29.0 28.969236403589086 29.0 29.0 29.0 29.0 28.969236403589086 29.0 29.0 29.0 29.0 29.0 29.0 29.0 29.0 29.0 29.0 29.0 29.0 29.0 29.0 29.0 29.0 29.0 29.0 29.0 29.0 29.0 29.0 28.969236403589086 29.0 29.0 28.969236403589086 29.0 28.969236403589086 29.0 29.0 29.0 29.0 29.0 29.0 28.969236403589086 29.0 28.969236403589086 29.0 29.0 29.0 29.0 29.0 29.0 29.0 29.0 29.0 29.0 29.0 29.0 29.0 29.0 29.0 29.0 28.969236403589086 28.969236403589086 29.0 29.0 29.0 29.0 29.0 29.0 29.0 29.0 29.0 29.0 29.0 29.0 29.0 29.0 29.0 29.0 29.0 29.0 29.0 29.0 29.0 29.0 29.0 29.0 29.0 29.0 29.0 29.0 29.0 29.0 29.0 29.0 29.0 29.0 28.969236403589086 29.0 29.0 28.969236403589086 29.0 29.0 29.0 29.0 28.969236403589086 29.0 29.0 29.0 29.0 28.969236403589086 29.0 29.0 29.0 28.969236403589086 29.0 29.0 29.0 29.0 29.0 29.0 29.0 29.0 29.0 29.0 29.0 29.0 29.0 29.0 29.0 29.0 28.969236403589086 29.0 29.0 29.0 29.0 29.0 29.0 29.0 29.0 29.0 29.0 29.0 29.0 29.0 29.0 29.0 29.0 29.0 29.0 29.0 29.0 29.0 29.0 29.0 29.0 29.0 29.0 29.0 29.0 29.0 28.969236403589086 29.0 29.0 29.0 29.0 29.0 29.0 29.0 29.0 29.0 29.0 29.0 29.0 29.0 29.0 29.0 29.0 29.030763596410914 29.061527192821828 29.09229078923274 29.123054385643655 29.123054385643655 29.15381798205457 29.184581578465483 29.24610877128731 29.276872367698225 29.30763596410914 29.338399560520052 29.369163156930966 29.39992675334188 29.461453946163708 29.49221754257462 29.615271928218274 29.6767991210401 29.799853506683757 29.922907892327412 30.015198681560154 30.07672587438198 30.169016663614723 30.29207104925838 30.445889031312948 30.5689434169566 30.72276139901117 30.907342977476652 31.091924555942136 31.307269730818533 31.522614905694926 31.737960080571323 32.014832448269544 32.260941219556855 32.568577183665994 32.84544955136422 33.18384911188427 33.460721479582496 33.73759384728072 34.04522981138985 34.383629371909905 34.75279252884087 35.183482878593665 35.61417322834646 36.044863578099246 36.47555392785204 36.906244277604834 37.33693462735763 37.767624977110415 38.19831532686321 38.629005676616 39.028932429957884 39.45962277971067 39.890313129463465 40.32100347921626 40.78245742537997 41.243911371543675 41.73612891411829 42.22834645669291 42.75132759567845 43.274308734663975 43.79728987364952 44.32027101263505 44.874015748031496 45.427760483427946 45.98150521882439 46.504486357809924 47.05823109320637 47.550448635780995 48.073429774766524 48.565647317341146 49.08862845632668 49.55008240249039 50.07306354147592 50.534517487639626 51.02673503021424 51.488188976377955 51.949642922541656 52.411096868705364 52.84178721845816 53.27247756821095 53.70316791796374 54.13385826771653 54.53378502105841 54.933711774400294 55.33363852774217 55.73356528108405 56.16425563083684 56.53341878776781 56.93334554110969 57.302508698040654 57.67167185497162 58.04083501190259 58.34847097601172 58.65610694012086 58.99450650064091 59.332906061160955 59.64054202527009 60.00970518220106 60.3173411463102 60.655740706830244 60.994140267350296 61.33253982787035 61.6709393883904 61.97857535249954 62.255447720197765 62.5630836843069 62.901483244826956 63.14759201611426 63.39370078740157 63.70133675151071 63.978209119208934 64.40889946896172 64.77806262589269 65.02417139718 65.33180736128914 65.48562534334371 65.85478850027468 66.1316608679729 66.28547885002746 66.53158762131477 66.74693279619117 66.90075077824574 67.08533235671122 67.2391503387658 67.45449551364219 67.66984068851858 67.85442226698407 68.1620582310932 68.40816700238051 68.56198498443507 68.74656656290057 68.99267533418788 69.17725691265336 69.57718366599524 69.79252884087163 70.10016480498078 70.50009155832265 70.6231459439663 71.02307269730818 71.14612708295184 71.45376304706097 71.79216260758102 71.88445339681377 72.06903497527925 72.19208936092289 72.37667093938839 72.71507049990844 72.83812488555209 73.02270646401757 73.17652444607214 73.33034242812671 73.5149240065922 73.7610327778795 74.00714154916682 74.22248672404322 74.40706830250869 74.56088628456325 74.80699505585056 75.02234023072697 75.26844900201428 75.42226698406884 75.63761215894525 75.88372093023256 76.03753891228712 76.25288408716352 76.46822926203993 76.62204724409449 76.80662882255997 76.92968320820361 77.11426478666911 77.26808276872367 77.32960996154551 77.36037355795642 77.42190075077824 77.45266434718914 77.51419154001098 77.5449551364219 77.66800952206555 77.7910639077092 77.88335469694195 77.97564548617468 78.12946346822926 78.22175425746201 78.34480864310567 78.4370994323384 78.56015381798206 78.71397180003662 78.83702618568027 78.99084416773485 79.14466214978941 79.26771653543307 79.45229811389855 79.60611609595313 79.75993407800769 79.94451565647316 80.12909723493865 80.2213880241714 80.37520600622597 80.4674967954587 80.55978758469143 80.62131477751328 80.68284197033509 80.74436916315693 80.80589635597875 80.80589635597875 80.80589635597875 80.80589635597875 80.80589635597875 80.80589635597875 80.80589635597875 80.80589635597875 80.80589635597875 80.77513275956784 80.74436916315693 80.71360556674601 80.68284197033509 80.68284197033509 80.68284197033509 80.68284197033509 80.68284197033509 80.68284197033509 80.65207837392418 80.65207837392418 80.62131477751328 80.62131477751328 80.55978758469143 80.55978758469143 80.52902398828053 80.49826039186962 80.49826039186962 80.4367331990478 80.37520600622597 80.34444240981506 80.31367881340414 80.31367881340414 80.31367881340414 80.31367881340414 80.31367881340414 80.31367881340414 80.31367881340414 80.28291521699322 80.31367881340414 80.31367881340414 80.31367881340414 80.31367881340414 80.31367881340414 80.31367881340414 80.31367881340414 80.31367881340414 80.31367881340414 80.31367881340414 80.31367881340414 80.31367881340414 80.31367881340414 80.28291521699322 80.31367881340414 80.25215162058231 80.25215162058231 80.2213880241714 80.19062442776048 80.15986083134956 80.12909723493865 80.12909723493865 80.12909723493865 80.09833363852775 80.06757004211681 80.0368064457059 79.97527925288409 79.97527925288409 79.94451565647316 79.91375206006225 79.88298846365134 79.85222486724042 79.85222486724042 79.82146127082952 79.82146127082952 79.82146127082952 79.82146127082952 79.7906976744186 79.82146127082952 79.7906976744186 79.7906976744186 79.75993407800769 79.69840688518586 79.69840688518586 79.66764328877494 79.66764328877494 79.63687969236403 79.63687969236403 79.63687969236403 79.60611609595313 79.60611609595313 79.5753524995422 79.5753524995422 79.5753524995422 79.5753524995422 79.5753524995422 79.5753524995422 79.5753524995422 79.54458890313128 79.54458890313128 79.51382530672038 79.48306171030947 79.45229811389855 79.42153451748763 79.39077092107672 79.39077092107672 79.36000732466582 79.29848013184399 79.29848013184399 79.26771653543307 79.26771653543307 79.26771653543307 79.26771653543307 79.26771653543307 79.26771653543307 79.26771653543307 79.26771653543307 79.26771653543307 79.26771653543307 79.26771653543307 79.26771653543307 79.26771653543307 79.26771653543307 79.20618934261125 79.14466214978941 79.0831349569676 79.02160776414576 78.96008057132393 78.8985533785021 78.83702618568027 78.74473539644754 78.68320820362571 78.68320820362571 78.65244460721479 78.65244460721479 78.65244460721479 78.65244460721479 78.62168101080388 78.56015381798206 78.56015381798206 78.52939022157113 78.52939022157113 78.49862662516023 78.46786302874932 78.40633583592748 78.40633583592748 78.37557223951657 78.40633583592748 78.40633583592748 78.40633583592748 78.40633583592748 78.40633583592748 78.40633583592748 78.40633583592748 78.40633583592748 78.40633583592748 78.40633583592748 78.37557223951657 78.37557223951657 78.34480864310567 78.34480864310567 78.34480864310567 78.34480864310567 78.31404504669473 78.31404504669473 78.31404504669473 78.28328145028382 78.28328145028382 78.25251785387292 78.25251785387292 78.22175425746201 78.19099066105107 78.19099066105107 78.16022706464017 78.16022706464017 78.16022706464017 78.09869987181834 78.12946346822926 78.09869987181834 78.09869987181834 78.09869987181834 78.09869987181834 78.09869987181834 78.09869987181834 78.09869987181834 78.09869987181834 78.09869987181834 78.09869987181834 78.06793627540742 78.06793627540742 78.06793627540742 78.03717267899651 78.06793627540742 78.06793627540742 78.06793627540742 78.09869987181834 78.06793627540742 78.06793627540742 78.06793627540742 78.06793627540742 78.03717267899651 78.0064090825856 77.91411829335286 77.88335469694195 77.82182750412012 77.72953671488739 77.69877311847647 77.69877311847647 77.60648232924373 77.57571873283281 77.57571873283281 77.57571873283281 77.57571873283281 77.57571873283281 77.57571873283281 77.57571873283281 77.57571873283281 77.57571873283281 77.57571873283281 77.57571873283281 77.57571873283281 77.57571873283281 77.57571873283281 77.57571873283281 77.57571873283281 77.60648232924373 77.57571873283281 77.57571873283281 77.57571873283281 77.57571873283281 77.57571873283281 77.57571873283281 77.5449551364219 77.5449551364219 77.5449551364219 77.5449551364219 77.5449551364219 77.51419154001098 77.5449551364219 77.5449551364219 77.5449551364219 77.5449551364219 77.5449551364219 77.5449551364219 77.5449551364219 77.51419154001098 77.5449551364219 77.5449551364219 77.5449551364219 77.5449551364219 77.5449551364219 77.5449551364219 77.5449551364219 77.5449551364219 77.5449551364219 77.48342794360008 77.48342794360008 77.48342794360008 77.45266434718914 77.45266434718914 77.45266434718914 77.45266434718914 77.45266434718914 77.45266434718914 77.45266434718914 77.45266434718914 77.45266434718914 77.45266434718914 77.45266434718914 77.45266434718914 77.45266434718914 77.45266434718914 77.45266434718914 77.45266434718914 77.45266434718914 77.42190075077824 77.45266434718914 77.45266434718914 77.42190075077824 77.42190075077824 77.39113715436733 77.39113715436733 77.36037355795642 77.32960996154551 77.32960996154551 77.29884636513458 77.26808276872367 77.20655557590185 77.17579197949092 77.11426478666911 77.05273759384727 77.05273759384727 76.92968320820361 76.8989196117927 76.80662882255997 76.71433803332724 76.71433803332724 76.6528108405054 76.62204724409449 76.56052005127265 76.49899285845083 76.37593847280718 76.31441127998534 76.16059329793077 76.03753891228712 75.9760117194653 75.94524812305438 75.88372093023256 75.729902948178 75.57608496612343 75.3299761948361 74.99157663431606 74.77623145943966 74.43783189891961 74.06866874198865 73.79179637429041 73.29957883171579 73.02270646401757 72.71507049990844 72.16132576451199 71.82292620399194 71.54605383629371 70.96154550448635 70.59238234755539 70.16169199780259 69.79252884087163 69.2695477018861 68.74656656290057 68.43893059879143 67.97747665262773 67.48525911005311 67.17762314594395 66.71616919978025 66.3470060428493 65.76249771104193 65.30104376487822 65.0549349935909 64.65500824024903 64.19355429408533 63.88591832997619 63.239882805347 62.901483244826956 62.47079289507416 62.009338948910454 61.73246658121223 61.39406702069218 60.80955868888482 60.440395531953854 60.1019959714338 59.79436000732467 59.332906061160955 58.90221571140816 58.44076176524446 58.13312580113532 57.6409082585607 57.302508698040654 56.81029115546603 56.47189159494598 55.82585607031679 55.30287493133125 54.933711774400294 54.56454861746933 54.072331074894706 53.70316791796374 53.14942318256729 52.62644204358176 52.103460904596226 51.58047976561069 51.211316608679724 50.688335469694195 50.50375389122871 49.79619117377769 49.21168284197033 48.81175608862846 48.25801135323201 47.67350302142465 47.27357626808276 46.442959164988096 46.043032411646216 45.61234206189343 45.12012451931881 44.68943416956601 44.135689434169564 43.45889031312946 42.905145577733016 42.566746017212964 42.38216443874748 41.88994689617286 41.243911371543675 40.997802600256364 40.444057864859914 40.01336751510712 39.7364951474089 39.24427760483428 38.99816883354697 38.53671488738326 38.04449734480864 37.70609778428859 37.18311664530306 36.66013550631752 36.22944515656473 35.706464017579194 35.30653726423732 34.84508331807361 34.44515656473173 34.19904779344442 33.922175425746204 33.73759384728072 33.64530305804798 33.522248672404324 33.49148507599341 33.39919428676067 33.27613990111701 33.15308551547336 32.99926753341879 32.84544955136422 32.75315876213148 32.59934078007691 32.507049990844166 32.3532320087896 32.23017762314594 32.1378868339132 32.07635964109137 31.984068851858634 31.95330525544772 31.891778062625892 31.86101446621498 31.79948727339315 31.768723676982237 31.70719648416041 31.614905694927668 31.584142098516754 31.491851309284012 31.399560520051274 31.36879692364036 31.307269730818533 31.21497894158579 31.153451748763963 31.06116095953122 31.030397363120308 30.938106573887566 30.845815784654825 30.753524995422083 30.66123420618934 30.538179820545686 30.47665262772386 30.415125434902034 30.353598242080206 30.261307452847465 30.169016663614723 30.107489470792896 30.045962277971068 29.98443508514924 29.953671488738326 29.861380699505585 29.799853506683757 29.73832631386193 29.707562717451015 29.6767991210401 29.6767991210401 29.646035524629188 29.646035524629188 29.615271928218274 29.615271928218274 29.58450833180736 29.553744735396446 29.553744735396446 29.522981138985532 29.49221754257462 29.49221754257462 29.461453946163708 29.430690349752794 29.430690349752794 29.430690349752794 29.39992675334188 29.39992675334188 29.39992675334188 29.39992675334188 29.39992675334188 29.39992675334188 29.369163156930966 29.369163156930966 29.369163156930966 29.369163156930966 29.369163156930966 29.338399560520052 29.369163156930966 29.338399560520052 29.338399560520052 29.338399560520052 29.338399560520052 29.30763596410914 29.30763596410914 29.30763596410914 29.276872367698225 29.276872367698225 29.276872367698225 29.276872367698225 29.24610877128731 29.24610877128731 29.215345174876397 29.215345174876397 29.215345174876397 29.215345174876397 29.184581578465483 29.15381798205457 29.123054385643655 29.061527192821828 29.09229078923274 29.061527192821828 29.030763596410914 29.030763596410914 29.030763596410914 29.0 29.0 29.0 29.0 29.0 28.969236403589086 29.0 28.969236403589086 28.969236403589086 28.969236403589086 28.969236403589086 28.969236403589086 28.969236403589086 28.969236403589086 28.969236403589086 28.969236403589086 28.969236403589086 28.938472807178172 28.969236403589086 28.938472807178172 28.938472807178172 28.938472807178172 28.938472807178172 28.938472807178172 28.938472807178172 28.938472807178172 28.938472807178172 28.938472807178172 28.938472807178172 28.938472807178172 28.938472807178172 28.938472807178172 28.938472807178172 28.938472807178172 28.938472807178172 28.938472807178172 28.938472807178172 28.938472807178172 28.938472807178172 28.938472807178172 28.938472807178172 28.938472807178172 28.90770921076726 28.938472807178172 28.90770921076726 28.938472807178172 28.90770921076726 28.938472807178172 28.90770921076726 28.90770921076726 28.90770921076726 28.90770921076726 28.90770921076726 28.90770921076726 28.90770921076726 28.90770921076726 28.90770921076726 28.938472807178172 28.90770921076726 28.90770921076726 28.90770921076726 28.90770921076726 28.876945614356345 28.90770921076726 28.876945614356345 28.876945614356345 28.876945614356345 28.876945614356345 28.876945614356345 28.876945614356345 28.876945614356345 28.84618201794543 28.876945614356345 28.876945614356345 28.876945614356345 28.876945614356345 28.876945614356345 28.876945614356345 28.876945614356345 28.84618201794543 28.84618201794543 28.84618201794543 28.84618201794543 28.84618201794543 28.84618201794543 28.84618201794543 28.84618201794543 28.84618201794543 28.84618201794543 28.84618201794543 28.84618201794543 28.84618201794543 28.84618201794543 28.84618201794543 28.84618201794543 28.84618201794543 28.84618201794543 28.84618201794543 28.84618201794543 28.84618201794543 28.84618201794543 28.84618201794543 28.84618201794543 28.84618201794543 28.84618201794543 28.84618201794543 28.84618201794543 28.84618201794543 28.84618201794543 28.84618201794543 28.815418421534517 28.84618201794543 28.815418421534517 28.815418421534517 28.84618201794543 28.84618201794543 28.815418421534517 28.815418421534517 28.815418421534517 28.84618201794543 28.815418421534517 28.815418421534517 28.815418421534517 28.815418421534517 28.815418421534517 28.815418421534517 28.815418421534517 28.815418421534517 28.815418421534517 28.815418421534517 28.815418421534517 28.815418421534517 28.815418421534517 28.815418421534517 28.815418421534517 28.815418421534517 28.815418421534517 28.815418421534517 28.815418421534517 28.815418421534517 28.815418421534517 28.815418421534517 28.815418421534517 28.815418421534517 28.815418421534517 28.815418421534517 28.815418421534517 28.815418421534517 28.815418421534517 28.815418421534517 28.815418421534517 28.815418421534517 28.815418421534517 28.815418421534517 28.815418421534517 28.815418421534517 28.815418421534517 28.815418421534517 28.815418421534517 28.815418421534517 28.815418421534517 28.815418421534517 28.815418421534517 28.815418421534517 28.815418421534517 28.815418421534517 28.815418421534517 28.815418421534517 28.815418421534517 28.815418421534517 28.815418421534517 28.815418421534517 28.815418421534517 28.815418421534517 28.815418421534517 28.815418421534517 28.815418421534517 28.815418421534517 28.815418421534517 28.815418421534517 28.815418421534517 28.815418421534517 28.815418421534517 28.815418421534517 28.815418421534517 28.815418421534517 28.815418421534517 28.815418421534517 28.815418421534517 28.815418421534517 28.815418421534517 28.815418421534517 28.815418421534517 28.815418421534517 28.815418421534517 28.815418421534517 28.815418421534517 28.815418421534517 28.815418421534517 28.815418421534517 28.815418421534517 28.815418421534517 28.815418421534517 28.815418421534517 28.815418421534517 28.815418421534517 28.815418421534517 28.815418421534517 28.815418421534517 28.815418421534517 28.815418421534517 28.815418421534517 28.815418421534517 28.815418421534517 28.815418421534517 28.815418421534517 28.815418421534517 28.815418421534517 28.815418421534517 28.815418421534517 28.815418421534517 28.815418421534517 28.815418421534517 28.815418421534517 28.815418421534517 28.815418421534517 28.815418421534517 28.815418421534517 28.815418421534517 28.815418421534517 28.815418421534517 28.815418421534517 28.815418421534517 28.815418421534517 28.815418421534517 28.815418421534517 28.815418421534517 28.815418421534517 28.815418421534517 28.815418421534517 28.815418421534517 28.815418421534517 28.815418421534517 28.815418421534517 28.815418421534517 28.815418421534517 28.815418421534517 28.815418421534517 28.815418421534517 28.815418421534517 28.815418421534517 28.815418421534517 28.815418421534517 28.815418421534517 28.815418421534517 28.815418421534517 28.815418421534517 28.815418421534517 28.815418421534517 28.815418421534517 28.815418421534517 28.815418421534517 28.815418421534517 28.815418421534517 28.815418421534517 28.815418421534517 28.815418421534517 28.815418421534517 28.815418421534517 28.815418421534517 28.815418421534517 28.815418421534517 28.815418421534517 28.815418421534517 28.815418421534517 28.815418421534517 28.815418421534517 28.815418421534517 28.815418421534517 28.815418421534517 28.815418421534517 28.815418421534517 28.815418421534517 28.815418421534517 28.815418421534517 28.815418421534517 28.815418421534517 28.815418421534517 28.815418421534517 28.815418421534517 28.815418421534517 28.815418421534517 28.815418421534517 28.815418421534517 28.815418421534517 28.815418421534517 28.815418421534517 28.815418421534517 28.815418421534517 28.815418421534517 28.815418421534517 28.815418421534517 28.815418421534517 28.815418421534517 28.815418421534517 28.815418421534517 28.815418421534517 28.815418421534517 28.815418421534517 28.815418421534517 28.815418421534517 28.815418421534517 28.815418421534517 28.815418421534517 28.815418421534517 28.815418421534517 28.815418421534517 28.815418421534517 28.815418421534517 28.815418421534517 28.815418421534517 28.815418421534517 28.815418421534517 28.815418421534517 28.815418421534517 28.815418421534517 28.815418421534517 28.815418421534517 28.815418421534517 28.815418421534517 28.815418421534517 28.815418421534517 28.815418421534517 28.815418421534517 28.784654825123603 28.815418421534517 28.815418421534517 28.815418421534517 28.815418421534517 28.815418421534517 28.815418421534517 28.815418421534517 28.815418421534517 28.815418421534517 28.815418421534517 28.815418421534517 28.815418421534517 28.815418421534517 28.815418421534517 28.815418421534517 28.815418421534517 28.815418421534517 28.815418421534517 28.815418421534517 28.815418421534517 28.815418421534517 28.815418421534517 28.815418421534517 28.815418421534517 28.815418421534517 28.815418421534517 28.815418421534517 28.815418421534517 28.815418421534517 28.815418421534517 28.815418421534517 28.815418421534517 28.815418421534517 28.815418421534517 28.815418421534517 28.815418421534517 28.815418421534517 28.815418421534517 28.815418421534517 28.815418421534517 28.815418421534517 28.815418421534517 28.815418421534517 28.815418421534517 28.815418421534517 28.815418421534517 28.815418421534517 28.815418421534517 28.815418421534517 28.784654825123603 28.815418421534517 28.815418421534517 28.815418421534517 28.815418421534517 28.815418421534517 28.815418421534517 28.815418421534517 28.815418421534517 28.784654825123603 28.815418421534517 28.815418421534517 28.815418421534517 28.815418421534517 28.815418421534517 28.815418421534517 28.815418421534517 28.815418421534517 28.815418421534517 28.815418421534517 28.784654825123603 28.815418421534517 28.815418421534517 28.815418421534517 28.815418421534517 28.815418421534517 28.815418421534517 28.784654825123603 28.815418421534517 28.815418421534517 28.815418421534517 28.815418421534517 28.815418421534517 28.815418421534517 28.815418421534517 28.815418421534517 28.784654825123603 28.815418421534517 28.815418421534517 28.784654825123603 28.784654825123603 28.815418421534517 28.815418421534517 28.784654825123603 28.815418421534517 28.784654825123603 28.784654825123603 28.784654825123603 28.815418421534517 28.815418421534517 28.815418421534517 28.784654825123603 28.815418421534517 28.815418421534517 28.815418421534517 28.815418421534517 28.815418421534517 28.815418421534517 28.784654825123603 28.815418421534517 28.815418421534517 28.815418421534517 28.815418421534517 28.815418421534517 28.815418421534517 28.815418421534517 28.784654825123603 28.815418421534517 28.815418421534517 28.815418421534517 28.815418421534517 28.815418421534517 28.815418421534517 28.815418421534517 28.815418421534517 28.815418421534517 28.815418421534517 28.815418421534517 28.784654825123603 28.815418421534517 28.815418421534517 28.815418421534517 28.815418421534517 28.815418421534517 28.815418421534517 28.815418421534517 28.815418421534517 28.815418421534517 28.815418421534517 28.815418421534517 28.784654825123603 28.815418421534517 28.815418421534517 28.815418421534517 28.815418421534517 28.784654825123603 28.815418421534517 28.815418421534517 28.815418421534517 28.815418421534517 28.815418421534517 28.784654825123603 28.815418421534517 28.815418421534517 28.784654825123603 28.815418421534517 28.815418421534517 28.815418421534517 28.815418421534517 28.815418421534517 28.784654825123603 28.815418421534517 28.815418421534517 28.815418421534517 28.815418421534517 28.815418421534517 28.784654825123603 28.784654825123603 28.815418421534517 28.815418421534517 28.784654825123603 28.784654825123603 28.815418421534517 28.815418421534517 28.784654825123603 28.784654825123603 28.784654825123603 28.815418421534517 28.815418421534517 28.784654825123603 28.815418421534517 28.784654825123603 28.815418421534517 28.815418421534517 28.815418421534517 28.784654825123603 28.784654825123603 28.815418421534517 28.815418421534517 28.815418421534517 28.784654825123603 28.815418421534517 28.815418421534517 28.815418421534517 28.784654825123603 28.815418421534517 28.815418421534517 28.784654825123603 28.784654825123603 28.815418421534517 28.784654825123603 28.815418421534517 28.815418421534517 28.784654825123603 28.815418421534517 28.784654825123603 28.815418421534517 28.815418421534517 28.784654825123603 28.784654825123603 28.815418421534517 28.784654825123603 28.815418421534517 28.784654825123603 28.784654825123603 28.815418421534517 28.815418421534517 28.784654825123603 28.815418421534517 28.815418421534517 28.815418421534517 28.815418421534517 28.784654825123603 28.784654825123603 28.784654825123603 28.815418421534517 28.784654825123603 28.815418421534517 28.784654825123603 28.815418421534517 28.784654825123603 28.815418421534517 28.815418421534517 28.815418421534517 28.784654825123603 28.784654825123603 28.815418421534517 28.815418421534517 28.815418421534517 28.815418421534517 28.784654825123603 28.784654825123603 28.784654825123603 28.815418421534517 28.815418421534517 28.784654825123603 28.815418421534517 28.815418421534517 28.784654825123603 28.784654825123603 28.815418421534517 28.784654825123603 28.784654825123603 28.815418421534517 28.784654825123603 28.815418421534517 28.784654825123603 28.784654825123603 28.815418421534517 28.784654825123603 28.784654825123603 28.815418421534517 28.784654825123603 28.784654825123603 28.784654825123603 28.815418421534517 28.784654825123603 28.815418421534517 28.815418421534517 28.815418421534517 28.784654825123603 28.784654825123603 28.784654825123603 28.815418421534517 28.784654825123603 28.784654825123603 28.784654825123603 28.784654825123603 28.784654825123603 28.784654825123603 28.784654825123603 28.784654825123603 28.815418421534517 28.784654825123603 28.784654825123603 28.784654825123603 28.815418421534517 28.784654825123603 28.784654825123603 28.815418421534517 28.784654825123603 28.784654825123603 28.815418421534517 28.784654825123603 28.784654825123603 28.784654825123603 28.815418421534517 28.784654825123603 28.784654825123603 28.815418421534517 28.784654825123603 28.784654825123603 28.784654825123603 28.784654825123603 28.784654825123603 28.784654825123603 28.784654825123603 28.784654825123603 28.784654825123603 28.784654825123603 28.784654825123603 28.784654825123603 28.784654825123603 28.784654825123603 28.815418421534517 28.784654825123603 28.784654825123603 28.784654825123603 28.784654825123603 28.815418421534517 28.784654825123603 28.784654825123603 28.784654825123603 28.784654825123603 28.784654825123603 28.784654825123603 28.815418421534517 28.784654825123603 28.784654825123603 28.784654825123603 28.784654825123603 28.784654825123603 28.784654825123603 28.815418421534517 28.784654825123603 28.784654825123603 28.815418421534517 28.784654825123603 28.784654825123603 28.784654825123603 28.784654825123603 28.815418421534517 28.815418421534517 28.784654825123603 28.784654825123603 28.784654825123603 28.784654825123603 28.784654825123603 28.784654825123603 28.815418421534517 28.815418421534517 28.784654825123603 28.784654825123603 28.784654825123603 28.784654825123603 28.784654825123603 28.784654825123603 28.784654825123603 28.784654825123603 28.784654825123603 28.815418421534517 28.784654825123603 28.815418421534517 28.784654825123603 28.784654825123603 28.784654825123603 28.784654825123603 28.784654825123603 28.784654825123603 28.784654825123603 28.784654825123603 28.784654825123603 28.784654825123603 28.784654825123603 28.784654825123603 28.784654825123603 28.784654825123603 28.784654825123603 28.784654825123603 28.815418421534517 28.784654825123603 28.784654825123603 28.784654825123603 28.784654825123603 28.784654825123603 28.784654825123603 28.784654825123603 28.784654825123603 28.784654825123603 28.784654825123603 28.784654825123603 28.784654825123603 28.784654825123603 28.784654825123603 28.784654825123603 28.815418421534517 28.784654825123603 28.784654825123603 28.784654825123603 28.784654825123603 28.784654825123603 28.784654825123603 28.784654825123603 28.784654825123603 28.784654825123603 28.784654825123603 28.815418421534517 28.784654825123603 28.784654825123603 28.784654825123603 28.784654825123603 28.784654825123603 28.784654825123603 28.784654825123603 28.784654825123603 28.784654825123603 28.784654825123603 28.784654825123603 28.815418421534517 28.784654825123603 28.784654825123603 28.784654825123603 28.784654825123603 28.784654825123603 28.784654825123603 28.784654825123603 28.784654825123603 28.784654825123603 28.784654825123603 28.784654825123603 28.784654825123603 28.784654825123603 28.784654825123603 28.784654825123603 28.784654825123603 28.784654825123603 28.784654825123603 28.784654825123603 28.784654825123603 28.815418421534517 28.784654825123603 28.784654825123603 28.815418421534517 28.815418421534517 28.815418421534517 28.815418421534517 28.815418421534517 28.815418421534517 28.815418421534517 28.84618201794543 28.84618201794543 28.84618201794543 28.84618201794543 28.84618201794543 28.84618201794543 28.876945614356345 28.876945614356345 28.90770921076726 28.90770921076726 28.938472807178172 28.938472807178172 28.938472807178172 28.938472807178172 28.969236403589086 28.969236403589086 29.0 29.0 29.030763596410914 29.030763596410914 29.061527192821828 29.09229078923274 29.09229078923274 29.123054385643655 29.15381798205457 29.215345174876397 29.276872367698225 29.30763596410914 29.338399560520052 29.369163156930966 29.39992675334188 29.430690349752794 29.461453946163708 29.49221754257462 29.553744735396446 29.646035524629188 29.707562717451015 29.73832631386193 29.799853506683757 29.861380699505585 29.8921442959165 30.015198681560154 30.13825306720381 30.199780260025637 30.261307452847465 30.29207104925838 30.353598242080206 30.38436183849112 30.445889031312948 30.538179820545686 30.599707013367514 30.66123420618934 30.784288591832997 30.87657938106574 30.96887017029848 31.06116095953122 31.12268815235305 31.245742537996705 31.338033327229446 31.430324116462188 31.584142098516754 31.70719648416041 31.891778062625892 32.107123237502286 32.32246841237868 32.507049990844166 32.69163156930965 32.906976744186046 33.12232191906244 33.214612708295185 33.39919428676067 33.522248672404324 33.58377586522615 33.7068302508698 33.79912104010255 33.89141182933528 34.075993407800766 34.10675700421168 34.26057498626625 34.35286577549899 34.41439296832082 34.56821095037539 34.69126533601904 34.8143197216627 34.99890130012818 35.09119208936092 35.30653726423732 35.491118842702804 35.706464017579194 35.89104559604468 36.01409998168833 36.198681560153815 36.47555392785204 36.66013550631752 36.93700787401575 37.36769822376854 37.58304339864493 37.89067936275407 38.167551730452296 38.35213330891778 38.75206006225966 38.93664164072514 39.428859183299764 39.79802234023072 40.044131111518034 40.413294268449 40.690166636147225 40.997802600256364 41.36696575718733 41.58231093206372 41.92071049258377 42.13605566746017 42.47445522798022 42.93590917414393 43.15125434902033 43.366599523896724 43.70499908441677 43.95110785570408 44.25874381981322 44.535616187511444 44.935542940853324 45.30470609778429 45.5508148690716 45.79692364035891 46.28914118293353 46.62754074345358 46.965940303973625 47.212049075260936 47.5812122321919 48.011902581944696 48.165720563999265 48.411829335286576 48.719465299395715 48.93481047427211 49.18091924555942 49.39626442043581 49.70390038454495 49.980772752243176 50.22688152353049 50.56528108405054 50.903680644570585 51.18055301226882 51.703534151254345 52.011170115363484 52.47262406152719 52.99560520051273 53.364768357443694 53.70316791796374 54.34920344259293 54.841420985167545 55.24134773850943 55.57974729902948 56.13349203442593 56.656473173411456 57.056399926753336 57.54861746932796 58.04083501190259 58.40999816883354 58.96374290422999 59.51748763962644 60.00970518220106 60.56344991759751 60.778795092473906 61.17872184581578 61.57864859915766 61.8862845632668 62.44002929866325 62.77842885918329 63.239882805347 63.63980955868888 63.94744552279802 64.34737227613991 64.62424464383813 64.99340780076909 65.39333455411096 65.63944332539828 66.00860648232924 66.3470060428493 66.68540560336935 67.08533235671122 67.42373191723127 67.73136788134042 68.00824024903864 68.31587621314777 68.90038454495513 69.33107489470792 69.57718366599524 69.97711041933712 70.10016480498078 70.4078007690899 70.68467313678812 70.96154550448635 71.2999450650064 71.45376304706097 71.57681743270463 71.82292620399194 71.9459805896356 72.22285295733383 72.49972532503205 72.65354330708661 72.86888848196301 73.11499725325032 73.33034242812671 73.79179637429041 74.13019593481047 74.43783189891961 74.77623145943966 75.05310382713789 75.63761215894525 76.03753891228712 76.37593847280718 76.77586522614905 76.96044680461453 77.29884636513458 77.82182750412012 77.97564548617468 78.46786302874932 78.74473539644754 78.96008057132393 79.20618934261125 79.39077092107672 79.5753524995422 79.7906976744186 79.91375206006225 80.06757004211681 80.2213880241714 80.37520600622597 80.52902398828053 80.71360556674601 80.83665995238968 80.95971433803334 81.05200512726607 81.17505951290971 81.23658670573155 81.26735030214246 81.29811389855337 81.29811389855337 81.29811389855337 81.32887749496429 81.29811389855337 81.29811389855337 81.29811389855337 81.29811389855337 81.29811389855337 81.26735030214246 81.26735030214246 81.23658670573155 81.20582310932063 81.17505951290971 81.1442959164988 81.1135323200879 81.08276872367698 81.08276872367698 81.05200512726607 80.99047793444424 80.99047793444424 80.95971433803334 80.95971433803334 80.95971433803334 80.95971433803334 80.9289507416224 80.8981871452115 80.86742354880059 80.80589635597875 80.77513275956784 80.74436916315693 80.71360556674601 80.68284197033509 80.68284197033509 80.62131477751328 80.59055118110236 80.55978758469143 80.52902398828053 80.52902398828053 80.52902398828053 80.49826039186962 80.4674967954587 80.49826039186962 80.49826039186962 80.4674967954587 80.4367331990478 80.4367331990478 80.4367331990478 80.4367331990478 80.4367331990478 80.4367331990478 80.40596960263687 80.40596960263687 80.37520600622597 80.37520600622597 80.31367881340414 80.25215162058231 80.25215162058231 80.12909723493865 80.09833363852775 80.0368064457059 80.006042849295 79.97527925288409 79.94451565647316 79.94451565647316 79.94451565647316 79.97527925288409 79.94451565647316 79.97527925288409 79.94451565647316 79.97527925288409 79.97527925288409 79.97527925288409 79.97527925288409 79.97527925288409 79.97527925288409 79.97527925288409 79.97527925288409 79.97527925288409 79.97527925288409 79.97527925288409 79.94451565647316 79.97527925288409 79.97527925288409 79.94451565647316 79.91375206006225 79.88298846365134 79.85222486724042 79.82146127082952 79.82146127082952 79.82146127082952 79.82146127082952 79.82146127082952 79.82146127082952 79.82146127082952 79.82146127082952 79.82146127082952 79.82146127082952 79.82146127082952 79.82146127082952 79.82146127082952 79.82146127082952 79.82146127082952 79.82146127082952 79.82146127082952 79.82146127082952 79.82146127082952 79.82146127082952 79.82146127082952 79.82146127082952 79.82146127082952 79.82146127082952 79.7906976744186 79.7906976744186 79.75993407800769 79.7906976744186 79.7906976744186 79.75993407800769 79.75993407800769 79.75993407800769 79.75993407800769 79.75993407800769 79.75993407800769 79.75993407800769 79.72917048159677 79.69840688518586 79.69840688518586 79.66764328877494 79.66764328877494 79.63687969236403 79.63687969236403 79.63687969236403 79.60611609595313 79.60611609595313 79.5753524995422 79.5753524995422 79.5753524995422 79.5753524995422 79.5753524995422 79.5753524995422 79.5753524995422 79.5753524995422 79.5753524995422 79.5753524995422 79.5753524995422 79.5753524995422 79.5753524995422 79.5753524995422 79.5753524995422 79.5753524995422 79.5753524995422 79.5753524995422 79.5753524995422 79.5753524995422 79.5753524995422 79.5753524995422 79.5753524995422 79.5753524995422 79.5753524995422 79.5753524995422 79.5753524995422 79.5753524995422 79.5753524995422 79.5753524995422 79.5753524995422 79.5753524995422 79.60611609595313 79.60611609595313 79.5753524995422 79.60611609595313 79.60611609595313 79.60611609595313 79.5753524995422 79.60611609595313 79.60611609595313 79.60611609595313 79.5753524995422 79.60611609595313 79.60611609595313 79.60611609595313 79.60611609595313 79.63687969236403 79.63687969236403 79.63687969236403 79.63687969236403 79.63687969236403 79.63687969236403 79.63687969236403 79.63687969236403 79.63687969236403 79.63687969236403 79.60611609595313 79.60611609595313 79.51382530672038 79.42153451748763 79.36000732466582 79.26771653543307 79.23695293902216 79.14466214978941 79.0831349569676 79.02160776414576 78.92931697491301 78.8985533785021 78.8677897820912 78.83702618568027 78.83702618568027 78.80626258926935 78.77549899285845 78.77549899285845 78.77549899285845 78.77549899285845 78.77549899285845 78.77549899285845 78.77549899285845 78.77549899285845 78.77549899285845 78.77549899285845 78.80626258926935 78.80626258926935 78.80626258926935 78.80626258926935 78.80626258926935 78.80626258926935 78.80626258926935 78.80626258926935 78.80626258926935 78.80626258926935 78.80626258926935 78.80626258926935 78.80626258926935 78.80626258926935 78.80626258926935 78.80626258926935 78.80626258926935 78.80626258926935 78.80626258926935 78.80626258926935 78.80626258926935 78.80626258926935 78.83702618568027 78.83702618568027 78.83702618568027 78.8677897820912 78.8985533785021 78.92931697491301 78.92931697491301 78.96008057132393 78.99084416773485 79.02160776414576 79.05237136055666 79.05237136055666 79.0831349569676 79.0831349569676 79.0831349569676 79.0831349569676 79.0831349569676 79.0831349569676 79.0831349569676 79.0831349569676 79.0831349569676 79.0831349569676 79.0831349569676 79.0831349569676 79.0831349569676 79.0831349569676 79.0831349569676 79.05237136055666 79.0831349569676 79.0831349569676 79.05237136055666 79.05237136055666 79.02160776414576 78.99084416773485 78.92931697491301 78.8677897820912 78.74473539644754 78.65244460721479 78.56015381798206 78.46786302874932 78.28328145028382 78.19099066105107 78.03717267899651 77.91411829335286 77.7603003112983 77.57571873283281 77.51419154001098 77.29884636513458 77.11426478666911 76.99121040102546 76.80662882255997 76.68357443691632 76.46822926203993 76.2221204907526 76.06830250869804 75.91448452664346 75.729902948178 75.57608496612343 75.29921259842519 75.11463101995972 74.8377586522615 74.56088628456325 74.34554110968686 74.13019593481047 73.94561435634498 73.66874198864676 73.36110602453763 73.11499725325032 72.80736128914117 72.43819813221022 72.16132576451199 71.79216260758102 71.4845266434719 71.08459989013001 70.65390954037721 70.377037172679 69.79252884087163 69.54642006958431 69.23878410547519 68.68503937007873 68.46969419520234 68.1620582310932 67.63907709210767 67.2391503387658 66.99304156747849 66.56235121772569 66.40853323567111 66.10089727156199 65.88555209668559 65.57791613257645 65.30104376487822 65.0549349935909 64.80882622230361 64.53195385460538 64.1320271012635 64.03973631203075 63.88591832997619 63.54751876945614 63.239882805347 63.024537630470604 62.62461087712873 62.28621131660868 61.97857535249954 61.64017579197949 61.45559421351401 61.14795824940487 60.62497711041934 60.34810474272111 59.91741439296832 59.51748763962644 59.24061527192821 58.87145211499725 58.47152536165537 58.25618018677898 57.8562534334371 57.67167185497162 57.4255630836843 57.14869071598608 56.93334554110969 56.68723676982238 56.53341878776781 56.37960080571324 56.13349203442593 56.01043764878227 55.73356528108405 55.61051089544039 55.425929316974916 55.27211133492034 55.149056949276684 55.026002563633035 54.81065738875664 54.7183665995239 54.59531221388024 54.5030214246475 54.379967039003844 54.226149056949275 54.10309467130563 53.94927668925105 53.73393151437466 53.580113532320084 53.364768357443694 53.24171397180004 53.026368796923634 52.718732832814496 52.56491485075993 52.411096868705364 52.19575169382897 52.011170115363484 51.76506134407617 51.54971616919978 50.934444240981506 50.688335469694195 50.442226698406884 50.19611792711957 49.888481963010435 49.642373191723124 49.24244643838125 48.96557407068302 48.565647317341146 48.165720563999265 47.91961179271196 47.519685039370074 47.15052188243911 46.81212232191906 46.47372276139901 46.043032411646216 45.79692364035891 45.45852407983885 45.181651712140635 44.874015748031496 44.56637978392236 44.35103460904596 43.981871452114994 43.79728987364952 43.5511811023622 43.24354513825307 43.058963559787585 42.8743819813221 42.566746017212964 42.412928035158394 42.197582860282 42.04376487822743 41.797656106940124 41.55154733565281 41.36696575718733 41.12085698590002 40.96703900384545 40.72093023255814 40.444057864859914 40.290239882805345 39.95184032228529 39.70573155099798 39.61344076176525 39.39809558688884 39.21351400842337 38.93664164072514 38.44442409815052 38.22907892327412 38.04449734480864 37.767624977110415 37.58304339864493 37.306171030946714 37.12158945248123 36.906244277604834 36.66013550631752 36.444790331441126 36.198681560153815 35.952572788866505 35.706464017579194 35.491118842702804 35.27577366782641 35.15271928218275 34.87584691448453 34.783556125251785 34.475920161142646 34.26057498626625 34.01446621497894 33.860648232924376 33.76835744369163 33.64530305804798 33.49148507599341 33.39919428676067 33.27613990111701 33.15308551547336 33.0300311298297 32.906976744186046 32.814685954953305 32.660867972898735 32.53781358725508 32.44552279802234 32.29170481596777 32.168650430324114 32.04559604468046 31.984068851858634 31.922541659036806 31.891778062625892 31.830250869804065 31.768723676982237 31.64566929133858 31.491851309284012 31.430324116462188 31.307269730818533 31.245742537996705 31.184215345174877 31.091924555942136 31.06116095953122 30.96887017029848 30.87657938106574 30.72276139901117 30.630470609778428 30.5689434169566 30.415125434902034 30.261307452847465 30.169016663614723 30.015198681560154 29.8921442959165 29.769089910272843 29.58450833180736 29.49221754257462 29.430690349752794 29.338399560520052 29.338399560520052 29.338399560520052 29.338399560520052 29.338399560520052 29.338399560520052 29.30763596410914 29.30763596410914 29.276872367698225 29.24610877128731 29.215345174876397 29.215345174876397 29.184581578465483 29.184581578465483 29.15381798205457 29.15381798205457 29.123054385643655 29.123054385643655 29.123054385643655 29.09229078923274 29.061527192821828 29.061527192821828 29.061527192821828 29.030763596410914 29.0 29.0 29.0 28.969236403589086 28.969236403589086 28.938472807178172 28.938472807178172 28.90770921076726 28.90770921076726 28.90770921076726 28.90770921076726 28.90770921076726 28.876945614356345 28.876945614356345 28.876945614356345 28.876945614356345 28.876945614356345 28.84618201794543 28.84618201794543 28.84618201794543 28.84618201794543 28.84618201794543 28.84618201794543 28.84618201794543 28.815418421534517 28.84618201794543 28.815418421534517 28.815418421534517 28.84618201794543 28.815418421534517 28.815418421534517 28.84618201794543 28.815418421534517 28.815418421534517 28.815418421534517 28.815418421534517 28.84618201794543 28.815418421534517 28.815418421534517 28.815418421534517 28.815418421534517 28.815418421534517 28.815418421534517 28.815418421534517 28.815418421534517 28.815418421534517 28.784654825123603 28.815418421534517 28.815418421534517 28.784654825123603 28.784654825123603 28.784654825123603 28.784654825123603 28.784654825123603 28.784654825123603 28.784654825123603 28.784654825123603 28.784654825123603 28.784654825123603 28.784654825123603 28.784654825123603 28.784654825123603 28.784654825123603 28.784654825123603 28.784654825123603 28.784654825123603 28.784654825123603 28.75389122871269 28.75389122871269 28.75389122871269 28.784654825123603 28.75389122871269 28.784654825123603 28.784654825123603 28.784654825123603 28.75389122871269 28.75389122871269 28.75389122871269 28.75389122871269 28.75389122871269 28.75389122871269 28.75389122871269 28.784654825123603 28.75389122871269 28.75389122871269 28.75389122871269 28.75389122871269 28.75389122871269 28.75389122871269 28.75389122871269 28.75389122871269 28.75389122871269 28.75389122871269 28.75389122871269 28.75389122871269 28.75389122871269 28.75389122871269 28.75389122871269 28.75389122871269 28.75389122871269 28.75389122871269 28.75389122871269 28.75389122871269 28.723127632301775 28.723127632301775 28.723127632301775 28.723127632301775 28.723127632301775 28.723127632301775 28.723127632301775 28.723127632301775 28.723127632301775 28.723127632301775 28.723127632301775 28.723127632301775 28.723127632301775 28.723127632301775 28.723127632301775 28.723127632301775 28.69236403589086 28.723127632301775 28.723127632301775 28.69236403589086 28.723127632301775 28.69236403589086 28.69236403589086 28.69236403589086 28.69236403589086 28.69236403589086 28.69236403589086 28.69236403589086 28.69236403589086 28.69236403589086 28.69236403589086 28.69236403589086 28.69236403589086 28.69236403589086 28.69236403589086 28.69236403589086 28.69236403589086 28.69236403589086 28.69236403589086 28.69236403589086 28.69236403589086 28.69236403589086 28.69236403589086 28.69236403589086 28.69236403589086 28.69236403589086 28.69236403589086 28.69236403589086 28.69236403589086 28.69236403589086 28.69236403589086 28.69236403589086 28.661600439479948 28.69236403589086 28.69236403589086 28.661600439479948 28.69236403589086 28.69236403589086 28.69236403589086 28.69236403589086 28.69236403589086 28.69236403589086 28.69236403589086 28.69236403589086 28.69236403589086 28.69236403589086 28.69236403589086 28.69236403589086 28.69236403589086 28.69236403589086 28.69236403589086 28.69236403589086 28.69236403589086 28.69236403589086 28.661600439479948 28.69236403589086 28.661600439479948 28.69236403589086 28.69236403589086 28.661600439479948 28.69236403589086 28.661600439479948 28.69236403589086 28.69236403589086 28.69236403589086 28.69236403589086 28.69236403589086 28.661600439479948 28.69236403589086 28.69236403589086 28.69236403589086 28.661600439479948 28.69236403589086 28.69236403589086 28.69236403589086 28.661600439479948 28.69236403589086 28.69236403589086 28.661600439479948 28.69236403589086 28.69236403589086 28.661600439479948 28.69236403589086 28.661600439479948 28.661600439479948 28.69236403589086 28.661600439479948 28.69236403589086 28.661600439479948 28.69236403589086 28.661600439479948 28.661600439479948 28.69236403589086 28.69236403589086 28.661600439479948 28.69236403589086 28.69236403589086 28.661600439479948 28.661600439479948 28.69236403589086 28.69236403589086 28.69236403589086 28.69236403589086 28.69236403589086 28.69236403589086 28.661600439479948 28.661600439479948 28.69236403589086 28.69236403589086 28.69236403589086 28.69236403589086 28.661600439479948 28.69236403589086 28.69236403589086 28.69236403589086 28.661600439479948 28.69236403589086 28.69236403589086 28.69236403589086 28.69236403589086 28.69236403589086 28.661600439479948 28.661600439479948 28.661600439479948 28.69236403589086 28.661600439479948 28.69236403589086 28.69236403589086 28.69236403589086 28.661600439479948 28.69236403589086 28.661600439479948 28.661600439479948 28.69236403589086 28.661600439479948 28.69236403589086 28.661600439479948 28.69236403589086 28.661600439479948 28.661600439479948 28.661600439479948 28.661600439479948 28.69236403589086 28.661600439479948 28.661600439479948 28.69236403589086 28.69236403589086 28.661600439479948 28.69236403589086 28.661600439479948 28.661600439479948 28.69236403589086 28.69236403589086 28.69236403589086 28.69236403589086 28.661600439479948 28.69236403589086 28.69236403589086 28.661600439479948 28.661600439479948 28.69236403589086 28.69236403589086 28.661600439479948 28.661600439479948 28.661600439479948 28.69236403589086 28.69236403589086 28.661600439479948 28.661600439479948 28.661600439479948 28.69236403589086 28.661600439479948 28.661600439479948 28.661600439479948 28.69236403589086 28.661600439479948 28.661600439479948 28.661600439479948 28.661600439479948 28.69236403589086 28.69236403589086 28.69236403589086 28.69236403589086 28.661600439479948 28.661600439479948 28.69236403589086 28.69236403589086 28.661600439479948 28.661600439479948 28.661600439479948 28.661600439479948 28.661600439479948 28.661600439479948 28.661600439479948 28.661600439479948 28.661600439479948 28.661600439479948 28.661600439479948 28.661600439479948 28.661600439479948 28.661600439479948 28.661600439479948 28.661600439479948 28.661600439479948 28.661600439479948 28.69236403589086 28.661600439479948 28.661600439479948 28.661600439479948 28.69236403589086 28.661600439479948 28.661600439479948 28.661600439479948 28.661600439479948 28.661600439479948 28.661600439479948 28.69236403589086 28.661600439479948 28.661600439479948 28.661600439479948 28.661600439479948 28.661600439479948 28.661600439479948 28.69236403589086 28.661600439479948 28.661600439479948 28.661600439479948 28.661600439479948 28.661600439479948 28.661600439479948 28.69236403589086 28.661600439479948 28.661600439479948 28.661600439479948 28.661600439479948 28.661600439479948 28.661600439479948 28.661600439479948 28.661600439479948 28.661600439479948 28.661600439479948 28.661600439479948 28.661600439479948 28.661600439479948 28.661600439479948 28.661600439479948 28.661600439479948 28.661600439479948 28.661600439479948 28.661600439479948 28.661600439479948 28.661600439479948 28.661600439479948 28.661600439479948 28.661600439479948 28.661600439479948 28.661600439479948 28.661600439479948 28.69236403589086 28.661600439479948 28.661600439479948 28.661600439479948 28.661600439479948 28.661600439479948 28.661600439479948 28.661600439479948 28.661600439479948 28.661600439479948 28.661600439479948 28.661600439479948 28.661600439479948 28.661600439479948 28.661600439479948 28.661600439479948 28.661600439479948 28.661600439479948 28.661600439479948 28.661600439479948 28.661600439479948 28.661600439479948 28.661600439479948 28.661600439479948 28.661600439479948 28.661600439479948 28.661600439479948 28.661600439479948 28.661600439479948 28.661600439479948 28.661600439479948 28.661600439479948 28.661600439479948 28.661600439479948 28.661600439479948 28.661600439479948 28.661600439479948 28.661600439479948 28.661600439479948 28.661600439479948 28.661600439479948 28.661600439479948 28.661600439479948 28.661600439479948 28.661600439479948 28.661600439479948 28.661600439479948 28.661600439479948 28.661600439479948 28.661600439479948 28.661600439479948 28.661600439479948 28.661600439479948 28.661600439479948 28.661600439479948 28.661600439479948 28.661600439479948 28.661600439479948 28.630836843069034 28.661600439479948 28.661600439479948 28.661600439479948 28.661600439479948 28.661600439479948 28.661600439479948 28.661600439479948 28.661600439479948 28.661600439479948 28.661600439479948 28.661600439479948 28.661600439479948 28.661600439479948 28.661600439479948 28.661600439479948 28.661600439479948 28.661600439479948 28.661600439479948 28.661600439479948 28.661600439479948 28.661600439479948 28.661600439479948 28.661600439479948 28.661600439479948 28.661600439479948 28.661600439479948 28.661600439479948 28.661600439479948 28.661600439479948 28.661600439479948 28.661600439479948 28.661600439479948 28.661600439479948 28.661600439479948 28.661600439479948 28.661600439479948 28.661600439479948 28.661600439479948 28.661600439479948 28.661600439479948 28.661600439479948 28.661600439479948 28.661600439479948 28.661600439479948 28.661600439479948 28.661600439479948 28.661600439479948 28.661600439479948 28.661600439479948 28.661600439479948 28.661600439479948 28.661600439479948 28.661600439479948 28.661600439479948 28.661600439479948 28.661600439479948 28.661600439479948 28.661600439479948 28.661600439479948 28.661600439479948 28.661600439479948 28.661600439479948 28.661600439479948 28.661600439479948 28.630836843069034 28.661600439479948 28.630836843069034 28.661600439479948 28.661600439479948 28.661600439479948 28.661600439479948 28.661600439479948 28.661600439479948 28.661600439479948 28.630836843069034 28.661600439479948 28.661600439479948 28.661600439479948 28.661600439479948 28.661600439479948 28.661600439479948 28.661600439479948 28.661600439479948 28.661600439479948 28.661600439479948 28.661600439479948 28.661600439479948 28.661600439479948 28.661600439479948 28.661600439479948 28.661600439479948 28.630836843069034 28.630836843069034 28.630836843069034 28.630836843069034 28.630836843069034 28.630836843069034 28.630836843069034 28.661600439479948 28.630836843069034 28.630836843069034 28.630836843069034 28.630836843069034 28.630836843069034 28.630836843069034 28.630836843069034 28.630836843069034 28.630836843069034 28.630836843069034 28.630836843069034 28.630836843069034 28.630836843069034 28.630836843069034 28.630836843069034 28.630836843069034 28.630836843069034 28.630836843069034 28.630836843069034 28.630836843069034 28.630836843069034 28.630836843069034 28.630836843069034 28.630836843069034 28.630836843069034 28.630836843069034 28.630836843069034 28.630836843069034 28.630836843069034 28.630836843069034 28.630836843069034 28.630836843069034 28.630836843069034 28.630836843069034 28.630836843069034 28.630836843069034 28.630836843069034 28.630836843069034 28.630836843069034 28.630836843069034 28.630836843069034 28.630836843069034 28.630836843069034 28.630836843069034 28.630836843069034 28.630836843069034 28.630836843069034 28.630836843069034 28.630836843069034 28.630836843069034 28.630836843069034 28.630836843069034 28.630836843069034 28.630836843069034 28.630836843069034 28.630836843069034 28.630836843069034 28.630836843069034 28.630836843069034 28.630836843069034 28.630836843069034 28.630836843069034 28.630836843069034 28.630836843069034 28.630836843069034 28.630836843069034 28.630836843069034 28.630836843069034 28.630836843069034 28.630836843069034 28.630836843069034 28.630836843069034 28.630836843069034 28.630836843069034 28.630836843069034 28.630836843069034 28.630836843069034 28.630836843069034 28.630836843069034 28.630836843069034 28.630836843069034 28.630836843069034 28.630836843069034 28.630836843069034 28.630836843069034 28.630836843069034 28.630836843069034 28.630836843069034 28.630836843069034 28.630836843069034 28.630836843069034 28.630836843069034 28.630836843069034 28.630836843069034 28.630836843069034 28.630836843069034 28.630836843069034 28.630836843069034 28.630836843069034 28.630836843069034 28.630836843069034 28.630836843069034 28.630836843069034 28.630836843069034 28.630836843069034 28.630836843069034 28.630836843069034 28.630836843069034 28.630836843069034 28.630836843069034 28.630836843069034 28.630836843069034 28.630836843069034 28.630836843069034 28.630836843069034 28.630836843069034 28.630836843069034 28.630836843069034 28.630836843069034 28.630836843069034 28.630836843069034 28.630836843069034 28.630836843069034 28.630836843069034 28.630836843069034 28.630836843069034 28.630836843069034 28.630836843069034 28.630836843069034 28.630836843069034 28.630836843069034 28.630836843069034 28.630836843069034 28.630836843069034 28.630836843069034 28.60007324665812 28.630836843069034 28.630836843069034 28.630836843069034 28.630836843069034 28.630836843069034 28.630836843069034 28.630836843069034 28.630836843069034 28.630836843069034 28.60007324665812 28.630836843069034 28.60007324665812 28.630836843069034 28.630836843069034 28.630836843069034 28.60007324665812 28.630836843069034 28.60007324665812 28.60007324665812 28.60007324665812 28.630836843069034 28.630836843069034 28.630836843069034 28.630836843069034 28.60007324665812 28.60007324665812 28.60007324665812 28.60007324665812 28.630836843069034 28.60007324665812 28.630836843069034 28.60007324665812 28.60007324665812 28.630836843069034 28.60007324665812 28.60007324665812 28.630836843069034 28.60007324665812 28.60007324665812 28.60007324665812 28.630836843069034 28.60007324665812 28.60007324665812 28.60007324665812 28.60007324665812 28.60007324665812 28.60007324665812 28.60007324665812 28.60007324665812 28.630836843069034 28.60007324665812 28.60007324665812 28.60007324665812 28.630836843069034 28.60007324665812 28.60007324665812 28.630836843069034 28.60007324665812 28.630836843069034 28.630836843069034 28.630836843069034 28.630836843069034 28.60007324665812 28.630836843069034 28.630836843069034 28.630836843069034 28.630836843069034 28.60007324665812 28.60007324665812 28.630836843069034 28.630836843069034 28.630836843069034 28.630836843069034 28.630836843069034 28.630836843069034 28.630836843069034 28.630836843069034 28.630836843069034 28.630836843069034 28.661600439479948 28.661600439479948 28.661600439479948 28.661600439479948 28.69236403589086 28.661600439479948 28.69236403589086 28.69236403589086 28.69236403589086 28.69236403589086 28.69236403589086 28.723127632301775 28.723127632301775 28.723127632301775 28.75389122871269 28.75389122871269 28.784654825123603 28.784654825123603 28.815418421534517 28.815418421534517 28.815418421534517 28.815418421534517 28.84618201794543 28.876945614356345 28.90770921076726 28.90770921076726 28.90770921076726 28.90770921076726 28.938472807178172 28.938472807178172 28.969236403589086 28.969236403589086 28.969236403589086 29.0 29.030763596410914 29.09229078923274 29.123054385643655 29.15381798205457 29.184581578465483 29.215345174876397 29.215345174876397 29.24610877128731 29.276872367698225 29.30763596410914 29.369163156930966 29.369163156930966 29.49221754257462 29.49221754257462 29.553744735396446 29.646035524629188 29.6767991210401 29.73832631386193 29.861380699505585 29.953671488738326 30.07672587438198 30.199780260025637 30.261307452847465 30.415125434902034 30.507416224134772 30.599707013367514 30.753524995422083 30.845815784654825 30.938106573887566 31.030397363120308 31.12268815235305 31.245742537996705 31.307269730818533 31.430324116462188 31.491851309284012 31.584142098516754 31.676432887749495 31.737960080571323 31.86101446621498 32.014832448269544 32.107123237502286 32.260941219556855 32.44552279802234 32.568577183665994 32.72239516572056 32.906976744186046 33.09155832265153 33.42995788317158 33.614539461637065 33.829884636513455 34.10675700421168 34.32210217908808 34.66050173960813 34.87584691448453 35.337300860648234 35.67570042116829 35.98333638527742 36.26020875297564 36.62937190990661 36.906244277604834 37.4907526094122 37.798388573521336 38.22907892327412 38.629005676616 38.90587804431423 39.275041201245195 39.674967954587075 39.921076725874386 40.290239882805345 40.597875846914484 40.936275407434536 41.15162058231093 41.58231093206372 41.85918329976195 42.412928035158394 42.75132759567845 43.058963559787585 43.39736312030763 43.85881706647134 44.32027101263505 44.474088994689616 44.72019776597693 44.96630653726424 45.27394250137337 45.58157846548251 45.79692364035891 46.07379600805713 46.28914118293353 46.47372276139901 46.68906793627541 46.84288591832997 47.02746749679545 47.27357626808276 47.45815784654825 47.67350302142465 47.88884819630104 48.13495696758835 48.35030214246475 48.411829335286576 48.65793810657389 49.027101263504846 49.24244643838125 49.55008240249039 49.91924555942135 50.34993590917414 50.74986266251602 50.96520783739241 51.33437099432338 51.91887932613075 52.257278886650795 52.811023622047244 53.118659586156376 53.518586339498256 53.79545870719648 54.10309467130563 54.53378502105841 54.9644753708112 55.27211133492034 55.67203808826222 56.0719648416041 56.37960080571324 56.81029115546603 57.14869071598608 57.517853872917044 57.917780626258924 58.19465299395715 58.71763413294268 58.99450650064091 59.39443325398278 59.79436000732467 59.978941585790146 60.40963193554294 60.778795092473906 61.02490386376122 61.36330342428126 61.701702984801315 61.91704815967771 62.347738509430506 62.47079289507416 62.80919245559421 63.11682841970335 63.39370078740157 63.63980955868888 64.07049990844168 64.25508148690716 64.50119025819447 64.71653543307087 65.0549349935909 65.42409815052187 65.67020692180918 66.1316608679729 66.37776963926021 66.71616919978025 67.02380516388939 67.2699139351767 67.45449551364219 67.85442226698407 68.03900384544954 68.31587621314777 68.50045779161326 68.8080937557224 69.20802050906427 69.45412928035158 69.66947445522797 70.00787401574803 70.28474638344625 70.56161875114448 70.90001831166452 71.20765427577366 71.5152902398828 71.76139901117011 71.9459805896356 72.28438015015564 72.53048892144295 72.93041567478483 73.11499725325032 73.33034242812671 73.57645119941402 73.7302691814686 73.85332356711226 74.13019593481047 74.22248672404322 74.37630470609778 74.46859549533052 74.6224134773851 74.71470426661784 74.80699505585056 74.96081303790514 75.0838674235488 75.23768540560337 75.45303058047976 75.60684856253434 75.82219373741073 76.12982970151987 76.31441127998534 76.49899285845083 76.71433803332724 76.99121040102546 77.17579197949092 77.42190075077824 77.60648232924373 77.7910639077092 77.91411829335286 78.03717267899651 78.19099066105107 78.28328145028382 78.28328145028382 78.28328145028382 78.31404504669473 78.31404504669473 78.31404504669473 78.31404504669473 78.28328145028382 78.28328145028382 78.28328145028382 78.28328145028382 78.28328145028382 78.28328145028382 78.25251785387292 78.25251785387292 78.28328145028382 78.25251785387292 78.25251785387292 78.25251785387292 78.25251785387292 78.25251785387292 78.28328145028382 78.28328145028382 78.25251785387292 78.25251785387292 78.25251785387292 78.25251785387292 78.25251785387292 78.25251785387292 78.25251785387292 78.25251785387292 78.22175425746201 78.22175425746201 78.22175425746201 78.25251785387292 78.22175425746201 78.22175425746201 78.16022706464017 78.06793627540742 77.97564548617468 77.88335469694195 77.7910639077092 77.60648232924373 77.48342794360008 77.36037355795642 77.23731917231275 77.14502838308002 77.08350119025819 76.99121040102546 76.92968320820361 76.8989196117927 76.8681560153818 76.8681560153818 76.8989196117927 76.8681560153818 76.8681560153818 76.8681560153818 76.8681560153818 76.8989196117927 76.8989196117927 76.8681560153818 76.8681560153818 76.8681560153818 76.8989196117927 76.8989196117927 76.8681560153818 76.8681560153818 76.8989196117927 76.8681560153818 76.8681560153818 76.8681560153818 76.8681560153818 76.8989196117927 76.8989196117927 76.8681560153818 76.8681560153818 76.8989196117927 76.8989196117927 76.8681560153818 76.8681560153818 76.8681560153818 76.8989196117927 76.8681560153818 76.8681560153818 76.8681560153818 76.8681560153818 76.8681560153818 76.83739241897088 76.83739241897088 76.80662882255997 76.83739241897088 76.83739241897088 76.80662882255997 76.77586522614905 76.74510162973814 76.71433803332724 76.68357443691632 76.62204724409449 76.62204724409449 76.56052005127265 76.52975645486174 76.49899285845083 76.46822926203993 76.43746566562899 76.40670206921808 76.37593847280718 76.34517487639626 76.31441127998534 76.28364768357443 76.28364768357443 76.25288408716352 76.25288408716352 76.25288408716352 76.25288408716352 76.25288408716352 76.25288408716352 76.28364768357443 76.25288408716352 76.25288408716352 76.25288408716352 76.25288408716352 76.25288408716352 76.28364768357443 76.28364768357443 76.28364768357443 76.28364768357443 76.28364768357443 76.31441127998534 76.31441127998534 76.31441127998534 76.37593847280718 76.37593847280718 76.40670206921808 76.43746566562899 76.43746566562899 76.43746566562899 76.43746566562899 76.40670206921808 76.43746566562899 76.40670206921808 76.40670206921808 76.40670206921808 76.40670206921808 76.40670206921808 76.40670206921808 76.40670206921808 76.40670206921808 76.40670206921808 76.40670206921808 76.40670206921808 76.46822926203993 76.46822926203993 76.49899285845083 76.49899285845083 76.49899285845083 76.49899285845083 76.49899285845083 76.49899285845083 76.46822926203993 76.49899285845083 76.49899285845083 76.49899285845083 76.49899285845083 76.49899285845083 76.49899285845083 76.46822926203993 76.46822926203993 76.46822926203993 76.46822926203993 76.46822926203993 76.46822926203993 76.46822926203993 76.46822926203993 76.46822926203993 76.46822926203993 76.46822926203993 76.49899285845083 76.49899285845083 76.46822926203993 76.49899285845083 76.49899285845083 76.49899285845083 76.49899285845083 76.49899285845083 76.49899285845083 76.49899285845083 76.49899285845083 76.49899285845083 76.49899285845083 76.49899285845083 76.49899285845083 76.49899285845083 76.49899285845083 76.49899285845083 76.49899285845083 76.49899285845083 76.49899285845083 76.49899285845083 76.49899285845083 76.49899285845083 76.49899285845083 76.49899285845083 76.49899285845083 76.49899285845083 76.49899285845083 76.49899285845083 76.49899285845083 76.49899285845083 76.56052005127265 76.56052005127265 76.56052005127265 76.56052005127265 76.56052005127265 76.56052005127265 76.56052005127265 76.56052005127265 76.56052005127265 76.56052005127265 76.56052005127265 76.56052005127265 76.56052005127265 76.56052005127265 76.56052005127265 76.56052005127265 76.56052005127265 76.56052005127265 76.56052005127265 76.56052005127265 76.52975645486174 76.56052005127265 76.59128364768358 76.62204724409449 76.62204724409449 76.62204724409449 76.62204724409449 76.62204724409449 76.62204724409449 76.62204724409449 76.59128364768358 76.59128364768358 76.59128364768358 76.56052005127265 76.56052005127265 76.59128364768358 76.56052005127265 76.56052005127265 76.56052005127265 76.56052005127265 76.56052005127265 76.56052005127265 76.56052005127265 76.56052005127265 76.56052005127265 76.56052005127265 76.56052005127265 76.56052005127265 76.56052005127265 76.56052005127265 76.56052005127265 76.56052005127265 76.56052005127265 76.56052005127265 76.56052005127265 76.49899285845083 76.43746566562899 76.37593847280718 76.31441127998534 76.25288408716352 76.1913568943417 76.06830250869804 75.94524812305438 75.82219373741073 75.66837575535615 75.57608496612343 75.42226698406884 75.29921259842519 75.14539461637062 75.02234023072697 74.89928584508331 74.71470426661784 74.53012268815235 74.37630470609778 74.16095953122138 74.03790514557772 73.88408716352316 73.66874198864676 73.5456876030031 73.33034242812671 73.23805163889398 73.0842336568394 72.86888848196301 72.68430690349753 72.49972532503205 72.19208936092289 72.03827137886833 71.76139901117011 71.57681743270463 71.5152902398828 71.33070866141732 71.17689067936274 70.90001831166452 70.59238234755539 70.46932796191174 70.34627357626809 70.16169199780259 70.03863761215894 69.70023805163889 69.4848928767625 69.33107489470792 68.99267533418788 68.68503937007873 68.43893059879143 68.22358542391504 67.85442226698407 67.57754989928584 67.39296832082036 67.14685954953305 66.90075077824574 66.71616919978025 66.50082402490386 66.3470060428493 66.10089727156199 65.88555209668559 65.73173411463102 65.51638893975462 65.30104376487822 65.17798937923456 64.99340780076909 64.83958981871451 64.65500824024903 64.43966306537264 64.25508148690716 64.03973631203075 63.76286394433254 63.60904596227797 63.20911920893609 63.11682841970335 62.83995605200513 62.65537447353964 62.409265702252334 62.19392052737594 61.82475737044497 61.64017579197949 61.36330342428126 61.14795824940487 60.80955868888482 60.53268632118659 60.3173411463102 60.040468778611974 59.732832814502835 59.51748763962644 59.2098516755173 58.93297930781908 58.65610694012086 58.40999816883354 58.22541659036806 58.071598608313494 57.763962644204355 57.48709027650613 57.210217908807905 57.056399926753336 56.77952755905512 56.53341878776781 56.348837209302324 56.10272843801501 55.82585607031679 55.67203808826222 55.395165720563995 55.21058414209851 54.933711774400294 54.56454861746933 54.379967039003844 54.13385826771653 54.0415674784838 53.76469511078557 53.48782274308734 53.33400476103277 53.026368796923634 52.811023622047244 52.65720563999267 52.44186046511628 52.38033327229445 52.16498809741805 51.98040651895257 51.79582494048709 51.61124336202161 51.42666178355613 51.33437099432338 51.18055301226882 51.08826222303607 50.903680644570585 50.74986266251602 50.62680827687237 50.4729902948178 50.288408716352315 50.19611792711957 49.980772752243176 49.95000915583226 49.82695477018861 49.70390038454495 49.61160959531221 49.48855520966856 49.334737227613985 49.21168284197033 49.08862845632668 49.05786485991577 48.9040468778612 48.719465299395715 48.59641091375206 48.44259293169749 48.25801135323201 48.104193371177445 47.91961179271196 47.765793810657385 47.61197582860282 47.42739425013734 47.304339864493684 47.1197582860282 46.904413111151804 46.78135872550815 46.596777147042665 46.41219556857718 46.25837758652261 46.07379600805713 45.98150521882439 45.735396447537084 45.643105658304336 45.48928767624977 45.3354696941952 45.24317890496246 45.12012451931881 44.935542940853324 44.874015748031496 44.75096136238784 44.6586705731551 44.535616187511444 44.41256180186779 44.32027101263505 44.19721662699139 44.04339864493682 43.95110785570408 43.79728987364952 43.73576268082768 43.5511811023622 43.45889031312946 43.33583592748581 43.18201794543124 42.99743636696576 42.8743819813221 42.62827321003479 42.47445522798022 42.35140084233657 42.197582860282 42.07452847463834 41.92071049258377 41.7668925105292 41.64383812488555 41.459256546420065 41.3054385643655 41.090093389489105 40.81322102179088 40.65940303973631 40.536348654092656 40.35176707562717 40.22871268998352 40.01336751510712 39.890313129463465 39.674967954587075 39.5211499725325 39.39809558688884 39.275041201245195 39.121223219190625 39.028932429957884 38.81358725508149 38.69053286943783 38.53671488738326 38.38289690532869 38.25984251968504 38.13678813404138 37.921442959164985 37.798388573521336 37.64457059146676 37.552279802234025 37.42922541659037 37.18311664530306 37.12158945248123 37.02929866324849 36.84471708478301 36.72166269913935 36.47555392785204 36.29097234938656 36.01409998168833 35.76799121040103 35.61417322834646 35.36806445705915 35.21424647500458 35.029664896539096 34.72202893242996 34.537447353964474 34.19904779344442 34.075993407800766 33.89141182933528 33.7068302508698 33.55301226881524 33.42995788317158 33.33766709393884 33.27613990111701 33.18384911188427 33.12232191906244 33.09155832265153 32.968503937007874 32.93774034059696 32.84544955136422 32.78392235854239 32.69163156930965 32.63010437648782 32.53781358725508 32.44552279802234 32.3532320087896 32.260941219556855 32.19941402673503 32.07635964109137 32.04559604468046 31.984068851858634 31.922541659036806 31.86101446621498 31.768723676982237 31.70719648416041 31.64566929133858 31.55337850210584 31.522614905694926 31.430324116462188 31.338033327229446 31.307269730818533 31.21497894158579 31.184215345174877 31.12268815235305 31.030397363120308 30.999633766709394 30.938106573887566 30.907342977476652 30.87657938106574 30.81505218824391 30.784288591832997 30.753524995422083 30.72276139901117 30.66123420618934 30.630470609778428 30.5689434169566 30.507416224134772 30.47665262772386 30.415125434902034 30.322834645669293 30.261307452847465 30.199780260025637 30.13825306720381 30.015198681560154 29.922907892327412 29.83061710309467 29.769089910272843 29.707562717451015 29.646035524629188 29.58450833180736 29.522981138985532 29.522981138985532 29.49221754257462 29.49221754257462 29.461453946163708 29.461453946163708 29.39992675334188 29.39992675334188 29.369163156930966 29.369163156930966 29.30763596410914 29.276872367698225 29.24610877128731 29.215345174876397 29.215345174876397 29.184581578465483 29.184581578465483 29.15381798205457 29.15381798205457 29.123054385643655 29.123054385643655 29.09229078923274 29.09229078923274 29.061527192821828 29.061527192821828 29.030763596410914 29.030763596410914 29.030763596410914 29.030763596410914 29.0 29.0 29.030763596410914 29.0 29.0 29.0 29.0 28.969236403589086 28.969236403589086 28.969236403589086 28.938472807178172 28.938472807178172 28.90770921076726 28.938472807178172 28.90770921076726 28.90770921076726 28.876945614356345 28.90770921076726 28.90770921076726 28.876945614356345 28.876945614356345 28.876945614356345 28.876945614356345 28.876945614356345 28.876945614356345 28.876945614356345 28.876945614356345 28.876945614356345 28.876945614356345 28.876945614356345 28.876945614356345 28.876945614356345 28.876945614356345 28.876945614356345 28.876945614356345 28.84618201794543 28.876945614356345 28.876945614356345 28.876945614356345 28.876945614356345 28.876945614356345 28.84618201794543 28.84618201794543 28.84618201794543 28.84618201794543 28.84618201794543 28.84618201794543 28.84618201794543 28.84618201794543 28.84618201794543 28.84618201794543 28.84618201794543 28.84618201794543 28.84618201794543 28.84618201794543 28.84618201794543 28.815418421534517 28.815418421534517 28.815418421534517 28.815418421534517 28.784654825123603 28.784654825123603 28.784654825123603 28.784654825123603 28.75389122871269 28.75389122871269 28.75389122871269 28.75389122871269 28.75389122871269 28.75389122871269 28.75389122871269 28.75389122871269 28.75389122871269 28.75389122871269 28.75389122871269 28.75389122871269 28.75389122871269 28.75389122871269 28.75389122871269 28.75389122871269 28.75389122871269 28.75389122871269 28.75389122871269 28.723127632301775 28.723127632301775 28.723127632301775 28.723127632301775 28.723127632301775 28.723127632301775 28.723127632301775 28.723127632301775 28.723127632301775 28.723127632301775 28.723127632301775 28.723127632301775 28.723127632301775 28.723127632301775 28.723127632301775 28.723127632301775 28.723127632301775 28.723127632301775 28.69236403589086 28.723127632301775 28.723127632301775 28.69236403589086 28.723127632301775 28.723127632301775 28.69236403589086 28.723127632301775 28.723127632301775 28.69236403589086 28.69236403589086 28.723127632301775 28.69236403589086 28.69236403589086 28.69236403589086 28.723127632301775 28.69236403589086 28.69236403589086 28.69236403589086 28.69236403589086 28.69236403589086 28.69236403589086 28.69236403589086 28.69236403589086 28.69236403589086 28.69236403589086 28.69236403589086 28.69236403589086 28.69236403589086 28.69236403589086 28.69236403589086 28.69236403589086 28.69236403589086 28.69236403589086 28.69236403589086 28.661600439479948 28.69236403589086 28.69236403589086 28.69236403589086 28.661600439479948 28.69236403589086 28.69236403589086 28.661600439479948 28.69236403589086 28.69236403589086 28.661600439479948 28.661600439479948 28.69236403589086 28.661600439479948 28.661600439479948 28.661600439479948 28.661600439479948 28.661600439479948 28.661600439479948 28.661600439479948 28.661600439479948 28.661600439479948 28.661600439479948 28.661600439479948 28.661600439479948 28.661600439479948 28.661600439479948 28.661600439479948 28.661600439479948 28.661600439479948 28.661600439479948 28.661600439479948 28.661600439479948 28.661600439479948 28.661600439479948 28.661600439479948 28.661600439479948 28.661600439479948 28.661600439479948 28.630836843069034 28.661600439479948 28.661600439479948 28.661600439479948 28.661600439479948 28.661600439479948 28.661600439479948 28.661600439479948 28.630836843069034 28.661600439479948 28.661600439479948 28.661600439479948 28.661600439479948 28.630836843069034 28.661600439479948 28.661600439479948 28.661600439479948 28.661600439479948 28.661600439479948 28.661600439479948 28.661600439479948 28.661600439479948 28.661600439479948 28.661600439479948 28.630836843069034 28.661600439479948 28.630836843069034 28.661600439479948 28.661600439479948 28.630836843069034 28.630836843069034 28.630836843069034 28.661600439479948 28.661600439479948 28.661600439479948 28.661600439479948 28.661600439479948 28.630836843069034 28.630836843069034 28.630836843069034 28.630836843069034 28.630836843069034 28.630836843069034 28.661600439479948 28.630836843069034 28.661600439479948 28.630836843069034 28.630836843069034 28.661600439479948 28.630836843069034 28.630836843069034 28.630836843069034 28.630836843069034 28.630836843069034 28.630836843069034 28.630836843069034 28.630836843069034 28.630836843069034 28.630836843069034 28.630836843069034 28.630836843069034 28.630836843069034 28.630836843069034 28.661600439479948 28.630836843069034 28.630836843069034 28.630836843069034 28.630836843069034 28.630836843069034 28.630836843069034 28.630836843069034 28.630836843069034 28.630836843069034 28.630836843069034 28.630836843069034 28.630836843069034 28.630836843069034 28.630836843069034 28.630836843069034 28.630836843069034 28.630836843069034 28.630836843069034 28.630836843069034 28.630836843069034 28.630836843069034 28.630836843069034 28.630836843069034 28.60007324665812 28.630836843069034 28.630836843069034 28.630836843069034 28.630836843069034 28.630836843069034 28.630836843069034 28.630836843069034 28.630836843069034 28.630836843069034 28.630836843069034 28.630836843069034 28.60007324665812 28.630836843069034 28.60007324665812 28.60007324665812 28.60007324665812 28.60007324665812 28.60007324665812 28.630836843069034 28.60007324665812 28.60007324665812 28.60007324665812 28.60007324665812 28.60007324665812 28.60007324665812 28.60007324665812 28.60007324665812 28.60007324665812 28.60007324665812 28.60007324665812 28.60007324665812 28.60007324665812 28.60007324665812 28.60007324665812 28.60007324665812 28.60007324665812 28.60007324665812 28.60007324665812 28.60007324665812 28.569309650247206 28.60007324665812 28.60007324665812 28.60007324665812 28.60007324665812 28.60007324665812 28.60007324665812 28.60007324665812 28.60007324665812 28.60007324665812 28.60007324665812 28.60007324665812 28.60007324665812 28.60007324665812 28.60007324665812 28.60007324665812 28.60007324665812 28.60007324665812 28.569309650247206 28.60007324665812 28.60007324665812 28.60007324665812 28.60007324665812 28.60007324665812 28.60007324665812 28.60007324665812 28.60007324665812 28.60007324665812 28.569309650247206 28.60007324665812 28.60007324665812 28.60007324665812 28.60007324665812 28.60007324665812 28.60007324665812 28.60007324665812 28.60007324665812 28.60007324665812 28.60007324665812 28.60007324665812 28.569309650247206 28.569309650247206 28.60007324665812 28.569309650247206 28.60007324665812 28.569309650247206 28.60007324665812 28.60007324665812 28.60007324665812 28.60007324665812 28.569309650247206 28.60007324665812 28.569309650247206 28.60007324665812 28.60007324665812 28.569309650247206 28.60007324665812 28.60007324665812 28.569309650247206 28.60007324665812 28.60007324665812 28.60007324665812 28.60007324665812 28.60007324665812 28.60007324665812 28.60007324665812 28.60007324665812 28.60007324665812 28.569309650247206 28.60007324665812 28.60007324665812 28.60007324665812 28.569309650247206 28.60007324665812 28.60007324665812 28.569309650247206 28.60007324665812 28.60007324665812 28.569309650247206 28.569309650247206 28.569309650247206 28.60007324665812 28.60007324665812 28.569309650247206 28.60007324665812 28.569309650247206 28.60007324665812 28.60007324665812 28.60007324665812 28.60007324665812 28.60007324665812 28.60007324665812 28.60007324665812 28.60007324665812 28.60007324665812 28.60007324665812 28.60007324665812 28.60007324665812 28.60007324665812 28.60007324665812 28.60007324665812 28.569309650247206 28.60007324665812 28.60007324665812 28.60007324665812 28.60007324665812 28.60007324665812 28.569309650247206 28.60007324665812 28.60007324665812 28.569309650247206 28.569309650247206 28.569309650247206 28.569309650247206 28.569309650247206 28.60007324665812 28.569309650247206 28.569309650247206 28.569309650247206 28.569309650247206 28.569309650247206 28.569309650247206 28.569309650247206 28.569309650247206 28.569309650247206 28.569309650247206 28.569309650247206 28.569309650247206 28.569309650247206 28.569309650247206 28.569309650247206 28.569309650247206 28.569309650247206 28.569309650247206 28.569309650247206 28.569309650247206 28.569309650247206 28.569309650247206 28.538546053836292 28.569309650247206 28.569309650247206 28.569309650247206 28.569309650247206 28.569309650247206 28.569309650247206 28.569309650247206 28.538546053836292 28.569309650247206 28.569309650247206 28.569309650247206 28.538546053836292 28.569309650247206 28.538546053836292 28.538546053836292 28.569309650247206 28.538546053836292 28.538546053836292 28.538546053836292 28.538546053836292 28.538546053836292 28.569309650247206 28.569309650247206 28.538546053836292 28.569309650247206 28.569309650247206 28.538546053836292 28.569309650247206 28.569309650247206 28.569309650247206 28.538546053836292 28.538546053836292 28.569309650247206 28.569309650247206 28.538546053836292 28.538546053836292 28.569309650247206 28.569309650247206 28.569309650247206 28.569309650247206 28.569309650247206 28.569309650247206 28.569309650247206 28.569309650247206 28.538546053836292 28.538546053836292 28.538546053836292 28.569309650247206 28.569309650247206 28.569309650247206 28.569309650247206 28.569309650247206 28.538546053836292 28.538546053836292 28.569309650247206 28.538546053836292 28.538546053836292 28.569309650247206 28.538546053836292 28.538546053836292 28.538546053836292 28.538546053836292 28.538546053836292 28.538546053836292 28.538546053836292 28.569309650247206 28.569309650247206 28.538546053836292 28.569309650247206 28.569309650247206 28.569309650247206 28.569309650247206 28.569309650247206 28.569309650247206 28.538546053836292 28.538546053836292 28.538546053836292 28.538546053836292 28.569309650247206 28.569309650247206 28.569309650247206 28.538546053836292 28.569309650247206 28.538546053836292 28.569309650247206 28.569309650247206 28.538546053836292 28.538546053836292 28.538546053836292 28.569309650247206 28.569309650247206 28.569309650247206 28.569309650247206 28.538546053836292 28.569309650247206 28.538546053836292 28.538546053836292 28.569309650247206 28.538546053836292 28.538546053836292 28.538546053836292 28.538546053836292 28.538546053836292 28.538546053836292 28.538546053836292 28.538546053836292 28.569309650247206 28.538546053836292 28.569309650247206 28.538546053836292 28.538546053836292 28.538546053836292 28.538546053836292 28.569309650247206 28.538546053836292 28.538546053836292 28.538546053836292 28.538546053836292 28.569309650247206 28.538546053836292 28.569309650247206 28.538546053836292 28.538546053836292 28.538546053836292 28.538546053836292 28.538546053836292 28.538546053836292 28.538546053836292 28.538546053836292 28.538546053836292 28.538546053836292 28.538546053836292 28.538546053836292 28.538546053836292 28.538546053836292 28.538546053836292 28.538546053836292 28.538546053836292 28.538546053836292 28.538546053836292 28.538546053836292 28.538546053836292 28.538546053836292 28.538546053836292 28.538546053836292 28.538546053836292 28.538546053836292 28.538546053836292 28.538546053836292 28.538546053836292 28.538546053836292 28.538546053836292 28.538546053836292 28.538546053836292 28.538546053836292 28.538546053836292 28.538546053836292 28.538546053836292 28.538546053836292 28.538546053836292 28.538546053836292 28.538546053836292 28.538546053836292 28.538546053836292 28.538546053836292 28.538546053836292 28.538546053836292 28.538546053836292 28.538546053836292 28.538546053836292 28.538546053836292 28.538546053836292 28.538546053836292 28.538546053836292 28.538546053836292 28.538546053836292 28.538546053836292 28.538546053836292 28.538546053836292 28.538546053836292 28.538546053836292 28.538546053836292 28.538546053836292 28.538546053836292 28.538546053836292 28.538546053836292 28.538546053836292 28.538546053836292 28.538546053836292 28.538546053836292 28.538546053836292 28.538546053836292 28.538546053836292 28.538546053836292 28.538546053836292 28.538546053836292 28.538546053836292 28.538546053836292 28.538546053836292 28.538546053836292 28.538546053836292 28.538546053836292 28.538546053836292 28.538546053836292 28.538546053836292 28.538546053836292 28.538546053836292 28.538546053836292 28.538546053836292 28.538546053836292 28.538546053836292 28.538546053836292 28.538546053836292 28.538546053836292 28.538546053836292 28.538546053836292 28.538546053836292 28.538546053836292 28.538546053836292 28.538546053836292 28.538546053836292 28.538546053836292 28.538546053836292 28.538546053836292 28.538546053836292 28.538546053836292 28.538546053836292 28.538546053836292 28.538546053836292 28.538546053836292 28.538546053836292 28.538546053836292 28.538546053836292 28.538546053836292 28.538546053836292 28.538546053836292 28.538546053836292 28.569309650247206 28.569309650247206 28.569309650247206 28.569309650247206 28.569309650247206 28.569309650247206 28.60007324665812 28.60007324665812 28.60007324665812 28.60007324665812 28.630836843069034 28.630836843069034 28.630836843069034 28.630836843069034 28.630836843069034 28.661600439479948 28.661600439479948 28.661600439479948 28.661600439479948 28.661600439479948 28.69236403589086 28.69236403589086 28.69236403589086 28.69236403589086 28.723127632301775 28.723127632301775 28.723127632301775 28.723127632301775 28.75389122871269 28.75389122871269 28.75389122871269 28.784654825123603 28.784654825123603 28.784654825123603 28.784654825123603 28.784654825123603 28.815418421534517 28.815418421534517 28.84618201794543 28.84618201794543 28.84618201794543 28.84618201794543 28.876945614356345 28.876945614356345 28.876945614356345 28.90770921076726 28.90770921076726 28.90770921076726 28.90770921076726 28.90770921076726 28.90770921076726 28.90770921076726 28.938472807178172 28.938472807178172 28.938472807178172 28.969236403589086 28.969236403589086 29.0 29.0 29.030763596410914 29.061527192821828 29.123054385643655 29.184581578465483 29.24610877128731 29.24610877128731 29.30763596410914 29.338399560520052 29.430690349752794 29.49221754257462 29.553744735396446 29.58450833180736 29.646035524629188 29.707562717451015 29.799853506683757 29.861380699505585 29.953671488738326 30.045962277971068 30.107489470792896 30.23054385643655 30.353598242080206 30.38436183849112 30.415125434902034 30.445889031312948 30.47665262772386 30.538179820545686 30.599707013367514 30.72276139901117 30.81505218824391 30.999633766709394 31.184215345174877 31.36879692364036 31.522614905694926 31.70719648416041 31.768723676982237 31.86101446621498 31.984068851858634 32.107123237502286 32.38399560520051 32.507049990844166 32.63010437648782 32.72239516572056 32.72239516572056 32.69163156930965 32.63010437648782 32.93774034059696 33.64530305804798 34.04522981138985 34.41439296832082 35.09119208936092 35.491118842702804 36.07562717451016 36.41402673503021 36.87548068119392 37.398461820179456 37.9522065555759 38.629005676616 39.275041201245195 40.01336751510712 40.47482146127083 41.02856619666728 41.5207837392419 42.412928035158394 42.905145577733016 43.64347189159494 44.35103460904596 44.81248855520967 45.427760483427946 46.2276139901117 46.31990477934444 46.93517670756272 47.27357626808276 47.70426661783556 48.073429774766524 48.44259293169749 48.780992492217536 49.027101263504846 49.24244643838125 49.61160959531221 49.888481963010435 50.380699505585056 50.65757187328328 51.05749862662516 51.51895257278886 51.85735213330892 52.13422450100714 52.74949642922542 53.057132393334555 53.48782274308734 53.79545870719648 54.19538546053836 54.65683940670207 54.9644753708112 55.36440212415309 55.70280168467313 55.948910455960444 56.348837209302324 56.656473173411456 56.994872733931516 57.48709027650613 57.763962644204355 58.04083501190259 58.47152536165537 58.84068851858633 59.2098516755173 59.425196850393704 59.82512360373558 60.132759567844715 60.34810474272111 60.56344991759751 61.02490386376122 61.240249038637614 61.57864859915766 61.82475737044497 62.19392052737594 62.53232008789599 62.83995605200513 63.08606482329243 63.424464383812484 63.670573155099795 64.07049990844168 64.47042666178355 64.83958981871451 65.0549349935909 65.45486174693279 65.73173411463102 66.10089727156199 66.50082402490386 66.86998718183483 67.14685954953305 67.54678630287492 67.91594945980589 68.22358542391504 68.56198498443507 68.90038454495513 69.17725691265336 69.4848928767625 69.66947445522797 69.9463468229262 70.28474638344625 70.43856436550081 70.59238234755539 70.74620032960996 70.93078190807545 71.08459989013001 71.20765427577366 71.39223585423915 71.54605383629371 71.66910822193736 71.82292620399194 71.91521699322467 72.09979857169017 72.4074345357993 72.56125251785386 72.80736128914117 73.05347006042848 73.23805163889398 73.60721479582494 73.85332356711226 74.03790514557772 74.31477751327596 74.49935909174144 74.80699505585056 75.23768540560337 75.45303058047976 75.7606665445889 75.88372093023256 76.1913568943417 76.43746566562899 76.71433803332724 77.11426478666911 77.39113715436733 77.57571873283281 77.82182750412012 77.88335469694195 78.09869987181834 78.37557223951657 78.49862662516023 78.71397180003662 78.8985533785021 79.0831349569676 79.23695293902216 79.3292437282549 79.51382530672038 79.69840688518586 79.82146127082952 80.006042849295 80.19062442776048 80.37520600622597 80.55978758469143 80.68284197033509 80.80589635597875 80.95971433803334 81.08276872367698 81.23658670573155 81.42116828419702 81.51345907342977 81.6057498626625 81.69804065189524 81.79033144112799 81.88262223036074 81.97491301959349 82.09796740523714 82.15949459805896 82.22102179088078 82.28254898370261 82.34407617652444 82.40560336934627 82.43636696575717 82.4671305621681 82.49789415857902 82.52865775498992 82.59018494781176 82.65171214063358 82.71323933345542 82.71323933345542 82.74400292986633 82.80553012268815 82.80553012268815 82.83629371909906 82.83629371909906 82.83629371909906 82.83629371909906 82.86705731550998 82.83629371909906 82.83629371909906 82.83629371909906 82.83629371909906 82.83629371909906 82.83629371909906 82.83629371909906 82.80553012268815 82.80553012268815 82.77476652627723 82.80553012268815 82.77476652627723 82.80553012268815 82.77476652627723 82.80553012268815 82.80553012268815 82.80553012268815 82.83629371909906 82.80553012268815 82.80553012268815 82.83629371909906 82.83629371909906 82.80553012268815 82.80553012268815 82.80553012268815 82.80553012268815 82.77476652627723 82.77476652627723 82.77476652627723 82.77476652627723 82.77476652627723 82.74400292986633 82.74400292986633 82.74400292986633 82.74400292986633 82.74400292986633 82.74400292986633 82.74400292986633 82.74400292986633 82.74400292986633 82.71323933345542 82.74400292986633 82.71323933345542 82.71323933345542 82.65171214063358 82.62094854422267 82.59018494781176 82.59018494781176 82.59018494781176 82.59018494781176 82.59018494781176 82.55942135140083 82.52865775498992 82.52865775498992 82.52865775498992 82.52865775498992 82.52865775498992 82.49789415857902 82.4671305621681 82.4671305621681 82.4671305621681 82.4671305621681 82.43636696575717 82.43636696575717 82.40560336934627 82.37483977293536 82.34407617652444 82.31331258011353 82.31331258011353 82.28254898370261 82.28254898370261 82.2517853872917 82.22102179088078 82.2517853872917 82.2517853872917 82.2517853872917 82.2517853872917 82.2517853872917 82.2517853872917 82.28254898370261 82.28254898370261 82.28254898370261 82.28254898370261 82.28254898370261 82.28254898370261 82.28254898370261 82.2517853872917 82.2517853872917 82.2517853872917 82.2517853872917 82.22102179088078 82.2517853872917 82.22102179088078 82.22102179088078 82.22102179088078 82.22102179088078 82.22102179088078 82.22102179088078 82.22102179088078 82.22102179088078 82.22102179088078 82.22102179088078 82.22102179088078 82.22102179088078 82.22102179088078 82.22102179088078 82.22102179088078 82.22102179088078 82.22102179088078 82.22102179088078 82.22102179088078 82.19025819446988 82.22102179088078 82.22102179088078 82.22102179088078 82.22102179088078 82.22102179088078 82.22102179088078 82.19025819446988 82.19025819446988 82.22102179088078 82.22102179088078 82.22102179088078 82.22102179088078 82.22102179088078 82.19025819446988 82.22102179088078 82.22102179088078 82.22102179088078 82.19025819446988 82.22102179088078 82.22102179088078 82.22102179088078 82.22102179088078 82.22102179088078 82.22102179088078 82.22102179088078 82.22102179088078 82.22102179088078 82.22102179088078 82.22102179088078 82.22102179088078 82.22102179088078 82.22102179088078 82.22102179088078 82.22102179088078 82.22102179088078 82.22102179088078 82.22102179088078 82.22102179088078 82.22102179088078 82.22102179088078 82.22102179088078 82.22102179088078 82.22102179088078 82.22102179088078 82.22102179088078 82.19025819446988 82.22102179088078 82.22102179088078 82.19025819446988 82.22102179088078 82.22102179088078 82.22102179088078 82.22102179088078 82.22102179088078 82.2517853872917 82.22102179088078 82.22102179088078 82.22102179088078 82.22102179088078 82.22102179088078 82.22102179088078 82.22102179088078 82.22102179088078 82.22102179088078 82.22102179088078 82.22102179088078 82.22102179088078 82.22102179088078 82.22102179088078 82.22102179088078 82.22102179088078 82.2517853872917 82.22102179088078 82.22102179088078 82.22102179088078 82.2517853872917 82.22102179088078 82.28254898370261 82.28254898370261 82.28254898370261 82.28254898370261 82.28254898370261 82.28254898370261 82.28254898370261 82.2517853872917 82.28254898370261 82.28254898370261 82.2517853872917 82.2517853872917 82.2517853872917 82.2517853872917 82.28254898370261 82.28254898370261 82.2517853872917 82.28254898370261 82.2517853872917 82.2517853872917 82.2517853872917 82.2517853872917 82.22102179088078 82.22102179088078 82.22102179088078 82.22102179088078 82.09796740523714 82.0056766160044 81.91338582677164 81.8210950375389 81.72880424830618 81.5749862662516 81.42116828419702 81.20582310932063 81.05200512726607 80.86742354880059 80.62131477751328 80.4674967954587 80.19062442776048 79.85222486724042 79.69840688518586 79.51382530672038 79.36000732466582 79.17542574620032 78.77549899285845 78.71397180003662 78.52939022157113 78.34480864310567 78.22175425746201 78.09869987181834 77.88335469694195 77.7603003112983 77.63724592565464 77.48342794360008 77.36037355795642 77.20655557590185 77.05273759384727 76.71433803332724 76.49899285845083 76.25288408716352 75.94524812305438 75.7606665445889 75.5453213697125 75.20692180919245 75.02234023072697 74.71470426661784 74.59164988097417 74.53012268815235 74.43783189891961 74.28401391686504 74.16095953122138 73.97637795275591 73.85332356711226 73.69950558505768 73.5456876030031 73.33034242812671 73.14576084966123 72.99194286760667 72.89965207837392 72.74583409631936 72.56125251785386 72.43819813221022 72.22285295733383 71.91521699322467 71.76139901117011 71.57681743270463 71.2999450650064 71.02307269730818 70.8384911188427 70.56161875114448 70.34627357626809 70.03863761215894 69.73100164804981 69.51565647317341 69.14649331624244 68.99267533418788 68.71580296648965 68.40816700238051 68.22358542391504 67.97747665262773 67.73136788134042 67.48525911005311 67.2391503387658 67.11609595312214 66.96227797106756 66.71616919978025 66.56235121772569 66.40853323567111 66.28547885002746 66.1624244643838 66.00860648232924 65.9163156930965 65.79326130745284 65.60867972898737 65.48562534334371 65.36257095770006 65.20875297564548 65.08569859000184 64.90111701153634 64.77806262589269 64.62424464383813 64.47042666178355 64.28584508331807 64.16279069767441 63.978209119208934 63.824391137154365 63.670573155099795 63.54751876945614 63.33217359457974 63.14759201611426 62.99377403405969 62.80919245559421 62.59384728071782 62.47079289507416 62.28621131660868 62.16315693096502 61.91704815967771 61.73246658121223 61.547885002746746 61.42483061710309 61.14795824940487 60.994140267350296 60.74803149606299 60.686504303241165 60.47115912836477 60.25581395348837 60.1019959714338 59.79436000732467 59.54825123603735 59.363669657571876 59.14832448269547 58.99450650064091 58.71763413294268 58.47152536165537 58.28694378318989 57.94854422266984 57.88701702984801 57.6409082585607 57.36403589086248 57.14869071598608 56.964109137520595 56.748763962644205 56.59494598058963 56.37960080571324 56.225782823658676 55.948910455960444 55.70280168467313 55.54898370261857 55.395165720563995 55.149056949276684 54.9644753708112 54.626075810291155 54.44149423182567 54.19538546053836 53.94927668925105 53.76469511078557 53.54934993590917 53.303241164621866 53.118659586156376 52.87255081486907 52.74949642922542 52.503387657938106 52.288042483061716 52.0419337117744 51.91887932613075 51.67277055484343 51.457425379967034 51.27284380150155 51.11902581944699 50.87291704815968 50.56528108405054 50.380699505585056 50.16535433070866 49.76542757736678 49.51931880607947 49.18091924555942 48.93481047427211 48.565647317341146 48.25801135323201 48.011902581944696 47.67350302142465 47.36586705731551 47.1197582860282 46.904413111151804 46.71983153268632 46.504486357809924 46.28914118293353 46.13532320087896 45.91997802600257 45.67386925471526 45.48928767624977 45.30470609778429 45.089360922907886 44.935542940853324 44.75096136238784 44.535616187511444 44.32027101263505 44.25874381981322 44.074162241347736 43.79728987364952 43.67423548800586 43.45889031312946 43.24354513825307 43.0897271561985 42.84361838491119 42.68980040285662 42.44369163156931 42.197582860282 42.013001281816514 41.797656106940124 41.490020142830986 41.39772935359824 41.18238417872185 41.02856619666728 40.81322102179088 40.56711225050357 40.35176707562717 40.10565830433986 39.890313129463465 39.70573155099798 39.5211499725325 39.428859183299764 39.15198681560154 38.90587804431423 38.75206006225966 38.50595129097235 38.321369712506865 38.167551730452296 37.82915216993224 37.67533418787768 37.4907526094122 37.2754074345358 37.12158945248123 36.87548068119392 36.53708112067387 36.3832631386193 36.13715436733199 35.9218091924556 35.706464017579194 35.55264603552463 35.39882805347006 35.15271928218275 34.937374107306354 34.8143197216627 34.629738143197216 34.50668375755356 34.383629371909905 34.19904779344442 34.10675700421168 33.95293902215711 33.829884636513455 33.7068302508698 33.55301226881524 33.39919428676067 33.33766709393884 33.214612708295185 33.18384911188427 33.12232191906244 33.060794726240616 32.93774034059696 32.84544955136422 32.78392235854239 32.72239516572056 32.63010437648782 32.59934078007691 32.47628639443325 32.38399560520051 32.29170481596777 32.19941402673503 32.107123237502286 32.04559604468046 31.922541659036806 31.86101446621498 31.768723676982237 31.70719648416041 31.64566929133858 31.55337850210584 31.491851309284012 31.399560520051274 31.338033327229446 31.307269730818533 31.21497894158579 31.184215345174877 31.091924555942136 30.96887017029848 30.907342977476652 30.845815784654825 30.753524995422083 30.630470609778428 30.507416224134772 30.445889031312948 30.322834645669293 30.199780260025637 30.107489470792896 30.015198681560154 29.861380699505585 29.769089910272843 29.646035524629188 29.553744735396446 29.49221754257462 29.430690349752794 29.430690349752794 29.369163156930966 29.276872367698225 29.24610877128731 29.184581578465483 29.15381798205457 29.123054385643655 29.123054385643655 29.09229078923274 29.09229078923274 29.09229078923274 29.061527192821828 29.061527192821828 29.061527192821828 29.061527192821828 29.061527192821828 29.030763596410914 29.030763596410914 29.0 29.0 28.969236403589086 28.969236403589086 28.969236403589086 28.969236403589086 28.969236403589086 28.938472807178172 28.969236403589086 28.969236403589086 28.938472807178172 28.938472807178172 28.938472807178172 28.938472807178172 28.90770921076726 28.90770921076726 28.90770921076726 28.90770921076726 28.84618201794543 28.84618201794543 28.84618201794543 28.815418421534517 28.815418421534517 28.84618201794543 28.815418421534517 28.815418421534517 28.815418421534517 28.84618201794543 28.815418421534517 28.815418421534517 28.84618201794543 28.815418421534517 28.84618201794543 28.815418421534517 28.815418421534517 28.815418421534517 28.815418421534517 28.815418421534517 28.815418421534517 28.815418421534517 28.815418421534517 28.815418421534517 28.815418421534517 28.815418421534517 28.784654825123603 28.784654825123603 28.784654825123603 28.784654825123603 28.784654825123603 28.784654825123603 28.784654825123603 28.75389122871269 28.75389122871269 28.75389122871269 28.75389122871269 28.75389122871269 28.75389122871269 28.723127632301775 28.75389122871269 28.723127632301775 28.723127632301775 28.723127632301775 28.723127632301775 28.723127632301775 28.723127632301775 28.723127632301775 28.69236403589086 28.69236403589086 28.69236403589086 28.69236403589086 28.69236403589086 28.69236403589086 28.69236403589086 28.69236403589086 28.69236403589086 28.69236403589086 28.69236403589086 28.69236403589086 28.69236403589086 28.69236403589086 28.69236403589086 28.69236403589086 28.69236403589086 28.69236403589086 28.69236403589086 28.661600439479948 28.661600439479948 28.69236403589086 28.69236403589086 28.69236403589086 28.69236403589086 28.69236403589086 28.69236403589086 28.69236403589086 28.69236403589086 28.661600439479948 28.69236403589086 28.661600439479948 28.69236403589086 28.69236403589086 28.69236403589086 28.69236403589086 28.69236403589086 28.661600439479948 28.661600439479948 28.69236403589086 28.69236403589086 28.69236403589086 28.69236403589086 28.69236403589086 28.69236403589086 28.69236403589086 28.661600439479948 28.69236403589086 28.69236403589086 28.69236403589086 28.69236403589086 28.69236403589086 28.661600439479948 28.661600439479948 28.661600439479948 28.661600439479948 28.661600439479948 28.661600439479948 28.69236403589086 28.661600439479948 28.661600439479948 28.661600439479948 28.661600439479948 28.661600439479948 28.661600439479948 28.661600439479948 28.661600439479948 28.661600439479948 28.661600439479948 28.661600439479948 28.661600439479948 28.661600439479948 28.661600439479948 28.661600439479948 28.661600439479948 28.661600439479948 28.661600439479948 28.661600439479948 28.661600439479948 28.661600439479948 28.661600439479948 28.661600439479948 28.661600439479948 28.661600439479948 28.661600439479948 28.661600439479948 28.661600439479948 28.661600439479948 28.661600439479948 28.661600439479948 28.661600439479948 28.661600439479948 28.661600439479948 28.661600439479948 28.661600439479948 28.661600439479948 28.661600439479948 28.661600439479948 28.661600439479948 28.661600439479948 28.661600439479948 28.661600439479948 28.661600439479948 28.661600439479948 28.661600439479948 28.661600439479948 28.661600439479948 28.661600439479948 28.661600439479948 28.661600439479948 28.661600439479948 28.661600439479948 28.661600439479948 28.661600439479948 28.661600439479948 28.661600439479948 28.661600439479948 28.661600439479948 28.661600439479948 28.661600439479948 28.661600439479948 28.661600439479948 28.661600439479948 28.661600439479948 28.661600439479948 28.661600439479948 28.661600439479948 28.661600439479948 28.661600439479948 28.661600439479948 28.661600439479948 28.661600439479948 28.661600439479948 28.661600439479948 28.661600439479948 28.661600439479948 28.661600439479948 28.661600439479948 28.661600439479948 28.661600439479948 28.661600439479948 28.661600439479948 28.661600439479948 28.661600439479948 28.661600439479948 28.661600439479948 28.661600439479948 28.661600439479948 28.661600439479948 28.661600439479948 28.661600439479948 28.661600439479948 28.661600439479948 28.661600439479948 28.661600439479948 28.661600439479948 28.661600439479948 28.661600439479948 28.661600439479948 28.661600439479948 28.661600439479948 28.661600439479948 28.661600439479948 28.661600439479948 28.661600439479948 28.661600439479948 28.661600439479948 28.661600439479948 28.630836843069034 28.661600439479948 28.661600439479948 28.661600439479948 28.661600439479948 28.661600439479948 28.661600439479948 28.661600439479948 28.661600439479948 28.661600439479948 28.661600439479948 28.661600439479948 28.661600439479948 28.661600439479948 28.661600439479948 28.661600439479948 28.661600439479948 28.661600439479948 28.661600439479948 28.661600439479948 28.661600439479948 28.661600439479948 28.661600439479948 28.661600439479948 28.661600439479948 28.661600439479948 28.661600439479948 28.661600439479948 28.661600439479948 28.661600439479948 28.661600439479948 28.661600439479948 28.661600439479948 28.661600439479948 28.661600439479948 28.630836843069034 28.661600439479948 28.661600439479948 28.661600439479948 28.661600439479948 28.630836843069034 28.661600439479948 28.661600439479948 28.661600439479948 28.661600439479948 28.661600439479948 28.630836843069034 28.661600439479948 28.630836843069034 28.661600439479948 28.630836843069034 28.661600439479948 28.661600439479948 28.661600439479948 28.630836843069034 28.630836843069034 28.661600439479948 28.630836843069034 28.661600439479948 28.630836843069034 28.661600439479948 28.630836843069034 28.661600439479948 28.661600439479948 28.630836843069034 28.630836843069034 28.630836843069034 28.630836843069034 28.661600439479948 28.630836843069034 28.630836843069034 28.630836843069034 28.630836843069034 28.630836843069034 28.630836843069034 28.661600439479948 28.630836843069034 28.630836843069034 28.630836843069034 28.630836843069034 28.630836843069034 28.630836843069034 28.630836843069034 28.661600439479948 28.661600439479948 28.630836843069034 28.630836843069034 28.630836843069034 28.630836843069034 28.630836843069034 28.630836843069034 28.630836843069034 28.630836843069034 28.630836843069034 28.630836843069034 28.661600439479948 28.630836843069034 28.630836843069034 28.661600439479948 28.630836843069034 28.630836843069034 28.630836843069034 28.630836843069034 28.630836843069034 28.630836843069034 28.630836843069034 28.630836843069034 28.630836843069034 28.630836843069034 28.630836843069034 28.630836843069034 28.630836843069034 28.630836843069034 28.630836843069034 28.630836843069034 28.630836843069034 28.630836843069034 28.630836843069034 28.630836843069034 28.630836843069034 28.630836843069034 28.661600439479948 28.630836843069034 28.630836843069034 28.661600439479948 28.630836843069034 28.630836843069034 28.630836843069034 28.661600439479948 28.661600439479948 28.630836843069034 28.661600439479948 28.630836843069034 28.630836843069034 28.630836843069034 28.630836843069034 28.630836843069034 28.661600439479948 28.630836843069034 28.630836843069034 28.630836843069034 28.630836843069034 28.661600439479948 28.630836843069034 28.630836843069034 28.630836843069034 28.630836843069034 28.630836843069034 28.661600439479948 28.630836843069034 28.630836843069034 28.630836843069034 28.630836843069034 28.630836843069034 28.661600439479948 28.630836843069034 28.630836843069034 28.661600439479948 28.630836843069034 28.630836843069034 28.630836843069034 28.630836843069034 28.630836843069034 28.630836843069034 28.630836843069034 28.630836843069034 28.630836843069034 28.630836843069034 28.630836843069034 28.630836843069034 28.661600439479948 28.630836843069034 28.661600439479948 28.630836843069034 28.630836843069034 28.630836843069034 28.630836843069034 28.630836843069034 28.630836843069034 28.630836843069034 28.630836843069034 28.630836843069034 28.630836843069034 28.630836843069034 28.630836843069034 28.630836843069034 28.630836843069034 28.630836843069034 28.630836843069034 28.630836843069034 28.630836843069034 28.630836843069034 28.630836843069034 28.630836843069034 28.630836843069034 28.630836843069034 28.630836843069034 28.630836843069034 28.630836843069034 28.630836843069034 28.630836843069034 28.630836843069034 28.630836843069034 28.630836843069034 28.630836843069034 28.630836843069034 28.630836843069034 28.630836843069034 28.630836843069034 28.630836843069034 28.630836843069034 28.630836843069034 28.630836843069034 28.630836843069034 28.630836843069034 28.630836843069034 28.630836843069034 28.630836843069034 28.630836843069034 28.630836843069034 28.630836843069034 28.630836843069034 28.630836843069034 28.630836843069034 28.630836843069034 28.630836843069034 28.630836843069034 28.630836843069034 28.630836843069034 28.630836843069034 28.630836843069034 28.630836843069034 28.630836843069034 28.630836843069034 28.630836843069034 28.630836843069034 28.630836843069034 28.630836843069034 28.630836843069034 28.630836843069034 28.630836843069034 28.630836843069034 28.630836843069034 28.630836843069034 28.630836843069034 28.630836843069034 28.630836843069034 28.630836843069034 28.630836843069034 28.630836843069034 28.630836843069034 28.630836843069034 28.630836843069034 28.630836843069034 28.630836843069034 28.630836843069034 28.630836843069034 28.630836843069034 28.630836843069034 28.630836843069034 28.630836843069034 28.630836843069034 28.630836843069034 28.630836843069034 28.630836843069034 28.630836843069034 28.630836843069034 28.630836843069034 28.630836843069034 28.630836843069034 28.630836843069034 28.630836843069034 28.630836843069034 28.630836843069034 28.630836843069034 28.630836843069034 28.630836843069034 28.630836843069034 28.630836843069034 28.630836843069034 28.630836843069034 28.630836843069034 28.630836843069034 28.630836843069034 28.630836843069034 28.630836843069034 28.630836843069034 28.630836843069034 28.630836843069034 28.630836843069034 28.630836843069034 28.630836843069034 28.630836843069034 28.630836843069034 28.630836843069034 28.630836843069034 28.630836843069034 28.630836843069034 28.630836843069034 28.630836843069034 28.630836843069034 28.630836843069034 28.630836843069034 28.630836843069034 28.630836843069034 28.630836843069034 28.630836843069034 28.630836843069034 28.630836843069034 28.630836843069034 28.630836843069034 28.630836843069034 28.630836843069034 28.630836843069034 28.630836843069034 28.630836843069034 28.630836843069034 28.630836843069034 28.630836843069034 28.630836843069034 28.60007324665812 28.60007324665812 28.60007324665812 28.60007324665812 28.60007324665812 28.60007324665812 28.60007324665812 28.60007324665812 28.60007324665812 28.60007324665812 28.60007324665812 28.60007324665812 28.60007324665812 28.60007324665812 28.60007324665812 28.60007324665812 28.60007324665812 28.60007324665812 28.60007324665812 28.60007324665812 28.60007324665812 28.60007324665812 28.569309650247206 28.569309650247206 28.60007324665812 28.60007324665812 28.60007324665812 28.60007324665812 28.60007324665812 28.60007324665812 28.60007324665812 28.569309650247206 28.60007324665812 28.569309650247206 28.569309650247206 28.60007324665812 28.60007324665812 28.60007324665812 28.60007324665812 28.569309650247206 28.60007324665812 28.569309650247206 28.60007324665812 28.569309650247206 28.569309650247206 28.60007324665812 28.569309650247206 28.569309650247206 28.60007324665812 28.60007324665812 28.569309650247206 28.60007324665812 28.569309650247206 28.60007324665812 28.569309650247206 28.60007324665812 28.60007324665812 28.60007324665812 28.60007324665812 28.60007324665812 28.60007324665812 28.569309650247206 28.60007324665812 28.60007324665812 28.60007324665812 28.569309650247206 28.569309650247206 28.60007324665812 28.569309650247206 28.60007324665812 28.569309650247206 28.60007324665812 28.60007324665812 28.569309650247206 28.60007324665812 28.60007324665812 28.569309650247206 28.60007324665812 28.60007324665812 28.60007324665812 28.60007324665812 28.60007324665812 28.60007324665812 28.60007324665812 28.569309650247206 28.60007324665812 28.60007324665812 28.60007324665812 28.60007324665812 28.60007324665812 28.60007324665812 28.60007324665812 28.60007324665812 28.60007324665812 28.60007324665812 28.60007324665812 28.60007324665812 28.60007324665812 28.60007324665812 28.60007324665812 28.60007324665812 28.60007324665812 28.60007324665812 28.60007324665812 28.60007324665812 28.60007324665812 28.60007324665812 28.60007324665812 28.60007324665812 28.60007324665812 28.60007324665812 28.60007324665812 28.60007324665812 28.60007324665812 28.60007324665812 28.60007324665812 28.60007324665812 28.60007324665812 28.60007324665812 28.60007324665812 28.60007324665812 28.60007324665812 28.60007324665812 28.60007324665812 28.60007324665812 28.60007324665812 28.60007324665812 28.630836843069034 28.630836843069034 28.630836843069034 28.630836843069034 28.630836843069034 28.661600439479948 28.661600439479948 28.661600439479948 28.661600439479948 28.69236403589086 28.69236403589086 28.69236403589086 28.723127632301775 28.723127632301775 28.723127632301775 28.723127632301775 28.723127632301775 28.75389122871269 28.75389122871269 28.75389122871269 28.784654825123603 28.784654825123603 28.784654825123603 28.784654825123603 28.815418421534517 28.815418421534517 28.84618201794543 28.84618201794543 28.84618201794543 28.876945614356345 28.876945614356345 28.90770921076726 28.90770921076726 28.90770921076726 28.938472807178172 28.938472807178172 28.969236403589086 28.969236403589086 29.0 29.0 29.030763596410914 29.061527192821828 29.061527192821828 29.09229078923274 29.15381798205457 29.215345174876397 29.24610877128731 29.30763596410914 29.338399560520052 29.369163156930966 29.430690349752794 29.461453946163708 29.49221754257462 29.522981138985532 29.58450833180736 29.646035524629188 29.769089910272843 29.83061710309467 29.98443508514924 30.07672587438198 30.199780260025637 30.322834645669293 30.415125434902034 30.599707013367514 30.691997802600255 30.784288591832997 30.87657938106574 30.907342977476652 31.030397363120308 31.184215345174877 31.27650613440762 31.399560520051274 31.522614905694926 31.614905694927668 31.768723676982237 31.86101446621498 31.984068851858634 32.1378868339132 32.260941219556855 32.414759201611425 32.59934078007691 32.78392235854239 33.060794726240616 33.27613990111701 33.42995788317158 33.67606665445889 33.89141182933528 34.16828419703351 34.5989745467863 34.87584691448453 35.24501007141549 35.429591649880976 35.98333638527742 36.3832631386193 36.66013550631752 37.12158945248123 37.552279802234025 37.859915766343164 38.29060611609595 38.59824208020509 39.0596960263688 39.5211499725325 39.82878593664164 40.290239882805345 40.72093023255814 41.02856619666728 41.55154733565281 41.85918329976195 42.13605566746017 42.412928035158394 42.75132759567845 43.058963559787585 43.305072331074896 43.70499908441677 44.227980223402305 44.68943416956601 45.48928767624977 46.2276139901117 46.78135872550815 47.519685039370074 47.98113898553378 48.75022889580663 49.48855520966856 49.980772752243176 50.688335469694195 51.42666178355613 51.949642922541656 52.68796923640359 53.45705914667643 54.16462186412745 54.59531221388024 55.026002563633035 55.641274491851306 56.13349203442593 56.62570957700055 57.056399926753336 57.36403589086248 57.763962644204355 58.13312580113532 58.34847097601172 58.68687053653177 58.99450650064091 59.2098516755173 59.54825123603735 59.79436000732467 60.1019959714338 60.594213514008416 60.87108588170665 61.11719465299395 61.45559421351401 61.73246658121223 62.16315693096502 62.59384728071782 62.96301043764878 63.33217359457974 63.70133675151071 63.94744552279802 64.22431789049625 64.43966306537264 64.90111701153634 65.17798937923456 65.48562534334371 65.79326130745284 65.97784288591834 66.28547885002746 66.56235121772569 66.74693279619117 67.08533235671122 67.33144112799853 67.57754989928584 67.88518586339498 68.19282182750412 68.53122138802416 68.68503937007873 68.99267533418788 69.300311298297 69.54642006958431 69.97711041933712 70.28474638344625 70.56161875114448 70.80772752243178 70.99230910089727 71.33070866141732 71.60758102911555 71.79216260758102 72.00750778245742 72.19208936092289 72.31514374656656 72.56125251785386 72.68430690349753 72.89965207837392 73.05347006042848 73.20728804248306 73.33034242812671 73.5149240065922 73.63797839223585 73.82255997070132 73.88408716352316 74.03790514557772 74.1917231276323 74.37630470609778 74.46859549533052 74.71470426661784 74.8685222486724 75.02234023072697 75.11463101995972 75.36073979124703 75.5453213697125 75.66837575535615 75.82219373741073 75.94524812305438 76.06830250869804 76.2221204907526 76.31441127998534 76.49899285845083 76.62204724409449 76.74510162973814 76.8681560153818 77.02197399743636 77.08350119025819 77.26808276872367 77.36037355795642 77.45266434718914 77.60648232924373 77.7603003112983 77.91411829335286 78.06793627540742 78.16022706464017 78.31404504669473 78.37557223951657 78.46786302874932 78.56015381798206 78.65244460721479 78.71397180003662 78.77549899285845 78.80626258926935 78.83702618568027 78.8677897820912 78.96008057132393 78.99084416773485 79.02160776414576 79.0831349569676 79.14466214978941 79.17542574620032 79.20618934261125 79.26771653543307 79.29848013184399 79.3292437282549 79.39077092107672 79.42153451748763 79.45229811389855 79.45229811389855 79.45229811389855 79.45229811389855 79.48306171030947 79.51382530672038 79.51382530672038 79.51382530672038 79.51382530672038 79.51382530672038 79.51382530672038 79.51382530672038 79.51382530672038 79.51382530672038 79.51382530672038 79.51382530672038 79.51382530672038 79.51382530672038 79.51382530672038 79.51382530672038 79.51382530672038 79.51382530672038 79.51382530672038 79.51382530672038 79.51382530672038 79.51382530672038 79.51382530672038 79.51382530672038 79.51382530672038 79.51382530672038 79.48306171030947 79.48306171030947 79.51382530672038 79.48306171030947 79.45229811389855 79.45229811389855 79.45229811389855 79.39077092107672 79.39077092107672 79.36000732466582 79.3292437282549 79.3292437282549 79.29848013184399 79.29848013184399 79.29848013184399 79.29848013184399 79.29848013184399 79.29848013184399 79.29848013184399 79.29848013184399 79.29848013184399 79.29848013184399 79.29848013184399 79.29848013184399 79.29848013184399 79.26771653543307 79.29848013184399 79.29848013184399 79.29848013184399 79.29848013184399 79.29848013184399 79.29848013184399 79.29848013184399 79.29848013184399 79.29848013184399 79.26771653543307 79.29848013184399 79.26771653543307 79.23695293902216 79.26771653543307 79.23695293902216 79.23695293902216 79.23695293902216 