25.0 25.0 25.0 25.0 25.0 25.0 25.0 25.0 25.0 25.0 25.0 25.0 25.0 25.0 25.0 25.0 25.0 25.0 25.0 25.0 25.0 25.0 25.0 25.0 25.0 25.0 25.0 25.0 25.0 25.0 25.0 25.0 25.0 25.0 25.0 25.0 25.0 25.0 25.0 25.0 25.0 25.0 25.0 25.0 25.0 25.0 25.0 25.0 25.0 25.0 25.0 25.0 25.0 25.0 25.0 25.0 25.0 25.0 25.0 25.0 25.0 25.0 25.0 25.0 25.0 25.0 25.0 25.0 25.0 25.0 25.0 25.0 25.0 25.0 25.0 25.0 25.0 25.0 25.0 25.0 25.0 25.0 25.0 25.0 25.0 25.0 25.0 25.0 25.0 25.0 25.0 25.0 25.0 25.0 25.0 25.0 25.0 25.0 25.0 25.0 25.0 25.0 25.0 25.0 25.0 25.0 25.0 25.0 25.0 25.0 25.0 25.0 25.0 25.0 25.0 25.0 25.0 25.0 25.0 25.0 25.0 25.0 25.0 25.0 25.0 25.0 25.0 25.0 25.0 25.0 25.0 25.0 25.0 25.0 25.0 25.0 25.0 25.0 25.0 25.0 25.0 25.0 25.0 25.0 25.0 25.0 25.0 25.0 25.0 25.0 25.0 25.0 25.0 25.0 25.0 25.0 25.0 25.0 25.0 25.0 25.0 25.0 25.0 25.0 25.0 25.0 25.0 25.0 25.0 25.0 25.0 25.0 25.0 25.0 25.0 25.0 25.0 25.0 25.0 25.0 25.0 25.0 25.0 25.0 25.0 25.0 25.0 25.0 25.0 25.0 25.0 25.0 25.0 25.0 25.0 25.0 25.0 25.0 25.0 25.0 25.0 25.0 25.0 25.0 25.0 25.0 25.0 25.0 25.0 25.0 25.0 25.0 25.0 25.0 25.0 25.0 25.0 25.0 25.0 25.0 25.0 25.0 25.0 25.0 25.0 25.0 25.0 25.0 25.0 25.0 25.0 25.0 25.0 25.0 25.0 25.0 25.0 25.0 25.0 25.0 25.0 25.0 25.0 25.0 25.0 25.0 25.0 25.0 25.0 25.0 25.0 25.0 25.0 25.0 25.0 25.0 25.0 25.0 25.0 25.0 25.0 25.0 25.0 25.0 25.0 25.0 25.0 25.0 25.0 25.0 25.0 25.0 25.0 25.0 25.0 25.0 25.0 25.0 25.0 25.0 25.0 25.0 25.0 25.0 25.0 25.0 25.0 25.0 25.0 25.0 25.0 25.0 25.0 25.0 25.0 25.0 25.0 25.0 25.0 25.0 25.0 25.0 25.0 25.0 25.0 25.0 25.0 25.0 25.0 25.0 25.0 25.0 25.0 25.0 25.0 25.0 25.0 25.0 25.0 25.0 25.0 25.0 25.0 25.0 25.0 25.0 25.0 25.0 25.0 25.0 25.0 25.0 25.0 25.0 25.0 25.0 25.0 25.0 25.0 25.0 25.0 25.0 25.0 25.0 25.0 25.0 25.0 25.0 25.0 25.0 25.0 25.0 25.0 25.0 25.0 25.0 25.0 25.0 25.0 25.0 25.0 25.0 25.0 25.0 25.0 25.0 25.0 25.0 25.0 25.0 25.0 25.0 25.0 25.0 25.0 25.0 25.0 25.0 25.0 25.0 25.0 25.0 25.0 25.0 25.0 25.0 25.0 25.0 25.0 25.0 25.0 25.0 25.0 25.0 25.0 25.0 25.0 25.0 25.0 25.0 25.0 25.0 25.0 25.0 25.0 25.0 25.0 25.0 25.0 25.0 25.0 25.0 25.0 25.0 25.0 25.0 25.0 25.0 25.0 25.0 25.0 25.0 25.0 25.0 25.0 25.0 25.0 25.0 25.0 25.0 25.0 25.0 24.978026002563634 25.0 25.0 25.0 25.0 25.0 25.0 25.0 25.0 25.0 25.0 25.0 25.0 25.0 25.0 25.0 25.0 25.0 25.0 25.0 25.0 25.0 25.0 25.0 25.0 25.0 25.0 25.0 25.0 25.0 25.0 25.0 25.0 25.0 25.0 25.0 25.0 25.0 25.0 25.0 25.0 25.0 25.0 25.0 25.0 25.0 25.0 25.0 25.0 25.0 25.0 25.0 25.0 25.0 25.0 25.0 25.0 25.0 25.0 25.0 25.0 25.0 25.0 25.0 25.0 25.0 25.0 25.0 25.0 25.0 25.0 25.0 25.0 25.0 25.0 25.0 25.0 25.0 25.0 25.0 25.0 25.0 25.0 25.0 25.0 25.0 25.0 25.0 25.0 25.0 25.0 25.0 25.0 25.0 25.0 25.0 25.0 25.0 25.0 25.0 25.0 25.0 25.0 25.0 25.0 25.0 25.0 25.0 25.0 25.0 25.0 25.0 25.0 25.0 25.0 25.0 25.0 25.0 25.0 25.0 25.0 25.0 25.0 25.0 25.0 25.0 25.0 25.0 25.0 25.0 25.0 25.0 25.0 25.0 25.0 25.0 25.0 25.0 25.0 25.0 25.0 25.0 25.0 25.0 25.0 25.0 25.0 25.0 25.0 25.0 25.0 25.0 25.0 25.0 25.0 25.0 25.0 25.0 25.0 25.0 25.0 25.0 25.021973997436366 25.0659219923091 25.0659219923091 25.0659219923091 25.08789598974547 25.0659219923091 25.08789598974547 25.08789598974547 25.08789598974547 25.109869987181835 25.109869987181835 25.109869987181835 25.109869987181835 25.109869987181835 25.1318439846182 25.1318439846182 25.175791979490935 25.21973997436367 25.28566196667277 25.329609961545504 25.417505951290973 25.483427943600073 25.593297930781908 25.922907892327412 26.07672587438198 26.208569859000182 26.45028383080022 26.626075810291155 26.845815784654825 27.10950375389123 27.439113715436733 27.74674967954587 28.03241164621864 28.40596960263688 28.801501556491484 29.219007507782457 29.658487456509796 30.097967405237135 30.537447353964474 30.954953305255447 31.394433253982786 31.855887200146494 32.27339315143747 32.734847097601175 33.196301043764876 33.635780992492215 34.141182933528654 34.66855887200147 35.23988280534701 35.83318073612892 36.404504669474456 37.041750595129095 37.67899652078374 38.36019044131112 39.08533235671123 39.810474272111335 40.601538179820544 41.32668009522065 42.0957700054935 42.90880791063908 43.74381981322102 44.60080571323933 45.50173960813038 46.380699505585056 47.2816334004761 48.18256729536715 49.105475187694566 50.028383080021975 50.86339498260392 51.72038088262223 52.51144479033144 53.324482695477016 54.071598608313494 54.81871452114997 55.54385643655009 56.29097234938656 56.950192272477565 57.63138619300494 58.42245010071415 58.97180003662333 59.63101995971434 60.312213880241714 61.01538179820545 61.7185497161692 62.46566562900568 63.23475553927852 64.04779344442409 64.83885735213332 65.67386925471524 66.55282915216993 67.45376304706097 68.35469694195203 69.25563083684307 70.15656473173412 71.05749862662516 71.93645852407984 72.81541842153452 73.65043032411646 74.48544222669841 75.27650613440761 76.06757004211683 76.83665995238968 77.58377586522616 78.2869437831899 78.99011170115364 79.671305621681 80.33052554477202 81.0776414576085 81.67093938839041 82.54989928584509 83.36293719099066 83.91228712689984 84.68137703717268 85.6042849295001 86.04376487822742 86.46127082951841 86.85680278337301 87.31825672953671 87.84563266800953 88.02142464750045 88.26313861930049 88.41695660135505 88.48287859366417 88.52682658853689 88.52682658853689 88.54880058597325 88.52682658853689 88.52682658853689 88.52682658853689 88.52682658853689 88.52682658853689 88.52682658853689 88.52682658853689 88.57077458340964 88.592748580846 88.592748580846 88.592748580846 88.592748580846 88.57077458340964 88.57077458340964 88.57077458340964 88.54880058597325 88.4609045962278 88.41695660135505 88.35103460904597 88.28511261673685 88.19721662699139 88.15326863211865 88.08734663980957 88.02142464750045 87.91155466031863 87.84563266800953 87.73576268082769 87.66984068851858 87.55997070133675 87.51602270646401 87.49404870902765 87.49404870902765 87.49404870902765 87.49404870902765 87.49404870902765 87.49404870902765 87.49404870902765 87.49404870902765 87.49404870902765 87.49404870902765 87.40615271928218 87.36220472440945 87.29628273210035 87.25233473722761 87.18641274491851 87.09851675517305 87.05456876030031 86.98864676799121 86.90075077824574 86.85680278337301 86.76890679362754 86.72495879875481 86.6590368064457 86.61508881157297 86.59311481413661 86.5271928218275 86.46127082951841 86.43929683208204 86.41732283464567 86.41732283464567 86.41732283464567 86.41732283464567 86.41732283464567 86.41732283464567 86.41732283464567 86.41732283464567 86.41732283464567 86.41732283464567 86.41732283464567 86.3953488372093 86.37337483977294 86.35140084233657 86.32942684490021 86.30745284746384 86.28547885002747 86.2635048525911 86.24153085515474 86.17560886284564 86.17560886284564 86.1316608679729 86.10968687053654 86.08771287310017 86.06573887566381 86.06573887566381 86.04376487822742 86.02179088079106 85.9998168833547 85.97784288591834 85.95586888848196 85.9338948910456 85.91192089360922 85.8679728987365 85.84599890130013 85.82402490386376 85.8020509064274 85.78007690899102 85.75810291155466 85.75810291155466 85.71415491668193 85.71415491668193 85.69218091924556 85.69218091924556 85.69218091924556 85.6702069218092 85.6702069218092 85.6702069218092 85.64823292437282 85.6702069218092 85.64823292437282 85.6702069218092 85.6702069218092 85.6702069218092 85.6702069218092 85.6702069218092 85.6702069218092 85.6702069218092 85.6702069218092 85.6702069218092 85.6702069218092 85.6702069218092 85.64823292437282 85.6702069218092 85.64823292437282 85.64823292437282 85.64823292437282 85.62625892693646 85.6042849295001 85.58231093206373 85.56033693462736 85.538362937191 85.538362937191 85.538362937191 85.51638893975462 85.51638893975462 85.49441494231826 85.49441494231826 85.49441494231826 85.49441494231826 85.49441494231826 85.49441494231826 85.49441494231826 85.49441494231826 85.4724409448819 85.45046694744553 85.45046694744553 85.42849295000916 85.4065189525728 85.4065189525728 85.38454495513642 85.36257095770006 85.31862296282733 85.29664896539094 85.27467496795458 85.25270097051822 85.23072697308186 85.23072697308186 85.2087529756455 85.2087529756455 85.18677897820913 85.18677897820913 85.14283098333638 85.14283098333638 85.09888298846366 85.07690899102728 85.07690899102728 85.05493499359092 85.05493499359092 85.05493499359092 85.07690899102728 85.05493499359092 85.07690899102728 85.07690899102728 85.05493499359092 85.05493499359092 85.05493499359092 85.05493499359092 85.03296099615454 85.01098699871818 84.98901300128182 84.96703900384546 84.94506500640908 84.94506500640908 84.92309100897272 84.92309100897272 84.92309100897272 84.92309100897272 84.92309100897272 84.92309100897272 84.90111701153634 84.92309100897272 84.90111701153634 84.87914301409998 84.85716901666362 84.83519501922726 84.83519501922726 84.79124702435452 84.76927302691814 84.74729902948178 84.70335103460906 84.68137703717268 84.65940303973632 84.65940303973632 84.65940303973632 84.65940303973632 84.68137703717268 84.65940303973632 84.68137703717268 84.68137703717268 84.68137703717268 84.68137703717268 84.68137703717268 84.68137703717268 84.68137703717268 84.68137703717268 84.68137703717268 84.65940303973632 84.63742904229994 84.61545504486358 84.59348104742722 84.59348104742722 84.59348104742722 84.57150704999086 84.59348104742722 84.57150704999086 84.57150704999086 84.57150704999086 84.57150704999086 84.57150704999086 84.54953305255447 84.5275590551181 84.50558505768174 84.48361106024538 84.48361106024538 84.46163706280902 84.43966306537266 84.41768906793627 84.3957150704999 84.37374107306354 84.35176707562718 84.3297930781908 84.3297930781908 84.30781908075444 84.28584508331807 84.28584508331807 84.24189708844534 84.1979490935726 84.17597509613624 84.1320271012635 84.11005310382714 84.08807910639078 84.04413111151804 84.02215711408166 83.97820911920894 83.95623512177258 83.91228712689984 83.89031312946346 83.82439113715438 83.78044314228164 83.75846914484526 83.71452114997254 83.67057315509979 83.62662516022706 83.53872917048159 83.49478117560886 83.40688518586339 83.3409631935543 83.27504120124519 83.18714521149973 83.05530122688153 82.9454312396997 82.79161325764511 82.70371726789965 82.52792528840871 82.39608130379051 82.22028932429959 82.04449734480863 81.82475737044497 81.64896539095403 81.38527742171763 81.18751144479035 80.92382347555393 80.52829152169933 80.30855154733565 80.04486357809925 79.75920161142648 79.51748763962644 79.1439296832082 78.77037172678996 78.30891778062626 77.86943783189892 77.69364585240798 77.18824391137156 76.44112799853508 76.06757004211683 75.49624610877129 75.12268815235305 74.59531221388025 74.04596227797106 73.67240432155283 73.12305438564366 72.57370444973449 72.20014649331624 71.60684856253434 71.2332906061161 70.66196667277055 70.06866874198866 69.67313678813403 69.07983885735213 68.48654092657023 68.06903497527925 67.25599707013367 66.83849111884271 66.42098516755172 65.73979124702436 65.52005127266068 64.83885735213332 64.48727339315144 63.95989745467863 63.410547518769455 62.971067570042116 62.42171763413294 61.82841970335103 61.21314777513276 60.795641823841784 60.356161875114445 59.740889946896175 59.10364402124153 58.44442409815052 57.82915216993224 57.41164621864127 56.972166269913934 56.312946346822926 55.89544039553195 55.30214246475005 54.5330525544772 54.15949459805896 53.61014466214979 53.060794726240616 52.68723676982238 52.31367881340414 51.7423548800586 51.19300494414942 50.643655008240245 50.226149056949275 49.742721113349205 49.19337117744003 48.68796923640359 48.38033327229445 48.05072331074895 47.58926936458524 47.17176341329427 46.886101446621495 46.33675151071232 45.96319355429409 45.69950558505768 45.45779161325764 45.21607764145761 44.8864676799121 44.38106573887566 44.139351767075624 43.74381981322102 43.370261856802784 43.128547885002746 42.88683391320271 42.51327595678447 42.1616919978026 41.81010803882073 41.54642006958433 41.26075810291155 40.953122138802414 40.75535616187511 40.513642190075075 40.33785021058414 40.096136238784105 39.898370261856805 39.7665262772386 39.590734297747666 39.39296832082036 39.19520234389306 39.01941036440212 38.84361838491119 38.60190441311115 38.31624244643838 38.09650247207471 37.72294451565647 37.5032045412928 37.21754257462003 36.997802600256364 36.73411463101996 36.44845266434719 36.184764695110786 35.986998718183486 35.76725874381981 35.63541475920161 35.43764878227431 35.30580479765611 35.23988280534701 35.13001281816517 35.02014283098333 34.95422083867423 34.8443508514924 34.75645486174693 34.53671488738326 34.36092290789233 34.27302691814686 33.96539095403772 33.723676982237684 33.569859000183115 33.306171030946714 33.152353048892145 32.91063907709211 32.69089910272844 32.55905511811024 32.33931514374657 32.14154916681926 31.987731184764694 31.72404321552829 31.46035524629189 31.28456326680095 31.020875297564547 30.823109320637247 30.493499359091743 30.20783739241897 30.010071415491666 29.61453946163706 29.394799487273392 29.19703351034609 28.867423548800588 28.75755356161875 28.427943600073245 28.18622962827321 28.010437648782275 27.74674967954587 27.548983702618568 27.241347738509432 26.867789782091194 26.626075810291155 26.58212781541842 26.494231825672955 26.36238784105475 26.318439846182017 26.274491851309286 26.23054385643655 26.23054385643655 26.23054385643655 26.23054385643655 26.23054385643655 26.23054385643655 26.186595861563816 26.186595861563816 26.164621864127447 26.120673869254716 26.01080388207288 25.944881889763778 25.813037905145578 25.703167917963743 25.65921992309101 25.637245925654643 25.65921992309101 25.65921992309101 25.65921992309101 25.65921992309101 25.637245925654643 25.615271928218274 25.593297930781908 25.571323933345543 25.549349935909174 25.527375938472808 25.527375938472808 25.50540194103644 25.483427943600073 25.483427943600073 25.461453946163708 25.461453946163708 25.461453946163708 25.461453946163708 25.43947994872734 25.417505951290973 25.417505951290973 25.417505951290973 25.395531953854604 25.395531953854604 25.37355795641824 25.35158395898187 25.329609961545504 25.30763596410914 25.28566196667277 25.263687969236404 25.241713971800035 25.21973997436367 25.197765976927304 25.175791979490935 25.175791979490935 25.15381798205457 25.15381798205457 25.109869987181835 25.109869987181835 25.08789598974547 25.0659219923091 25.0659219923091 25.043947994872735 25.043947994872735 25.021973997436366 25.021973997436366 25.021973997436366 25.021973997436366 25.021973997436366 25.0 25.0 25.0 25.0 25.0 25.0 24.978026002563634 24.978026002563634 24.978026002563634 24.978026002563634 24.978026002563634 24.978026002563634 24.978026002563634 24.956052005127265 24.956052005127265 24.956052005127265 24.9340780076909 24.956052005127265 24.9340780076909 24.9340780076909 24.9340780076909 24.91210401025453 24.91210401025453 24.91210401025453 24.91210401025453 24.91210401025453 24.91210401025453 24.91210401025453 24.91210401025453 24.91210401025453 24.91210401025453 24.91210401025453 24.91210401025453 24.91210401025453 24.91210401025453 24.91210401025453 24.91210401025453 24.91210401025453 24.890130012818165 24.890130012818165 24.890130012818165 24.890130012818165 24.890130012818165 24.890130012818165 24.890130012818165 24.890130012818165 24.890130012818165 24.890130012818165 24.890130012818165 24.890130012818165 24.890130012818165 24.890130012818165 24.890130012818165 24.890130012818165 24.890130012818165 24.890130012818165 24.890130012818165 24.890130012818165 24.890130012818165 24.890130012818165 24.8681560153818 24.8681560153818 24.8681560153818 24.890130012818165 24.8681560153818 24.8681560153818 24.8681560153818 24.8681560153818 24.8681560153818 24.84618201794543 24.84618201794543 24.84618201794543 24.84618201794543 24.84618201794543 24.84618201794543 24.84618201794543 24.84618201794543 24.84618201794543 24.84618201794543 24.84618201794543 24.84618201794543 24.84618201794543 24.84618201794543 24.84618201794543 24.84618201794543 24.84618201794543 24.824208020509065 24.824208020509065 24.84618201794543 24.824208020509065 24.824208020509065 24.824208020509065 24.84618201794543 24.824208020509065 24.824208020509065 24.824208020509065 24.824208020509065 24.824208020509065 24.824208020509065 24.824208020509065 24.824208020509065 24.824208020509065 24.824208020509065 24.824208020509065 24.824208020509065 24.824208020509065 24.824208020509065 24.802234023072696 24.802234023072696 24.802234023072696 24.802234023072696 24.802234023072696 24.802234023072696 24.802234023072696 24.802234023072696 24.802234023072696 24.802234023072696 24.802234023072696 24.802234023072696 24.802234023072696 24.802234023072696 24.802234023072696 24.802234023072696 24.802234023072696 24.802234023072696 24.802234023072696 24.802234023072696 24.802234023072696 24.802234023072696 24.802234023072696 24.802234023072696 24.78026002563633 24.78026002563633 24.802234023072696 24.78026002563633 24.78026002563633 24.78026002563633 24.802234023072696 24.78026002563633 24.802234023072696 24.802234023072696 24.802234023072696 24.78026002563633 24.802234023072696 24.78026002563633 24.78026002563633 24.78026002563633 24.78026002563633 24.78026002563633 24.78026002563633 24.78026002563633 24.78026002563633 24.78026002563633 24.802234023072696 24.78026002563633 24.78026002563633 24.78026002563633 24.802234023072696 24.78026002563633 24.78026002563633 24.78026002563633 24.802234023072696 24.802234023072696 24.78026002563633 24.78026002563633 24.802234023072696 24.78026002563633 24.802234023072696 24.78026002563633 24.802234023072696 24.78026002563633 24.78026002563633 24.802234023072696 24.802234023072696 24.802234023072696 24.802234023072696 24.802234023072696 24.802234023072696 24.824208020509065 24.824208020509065 24.824208020509065 24.824208020509065 24.84618201794543 24.824208020509065 24.84618201794543 24.8681560153818 24.890130012818165 24.9340780076909 24.978026002563634 25.0 25.021973997436366 25.043947994872735 25.0659219923091 25.0659219923091 25.08789598974547 25.109869987181835 25.175791979490935 25.197765976927304 25.263687969236404 25.329609961545504 25.43947994872734 25.571323933345543 25.637245925654643 25.791063907709212 25.944881889763778 26.032777879509247 26.164621864127447 26.208569859000182 26.340413843618386 26.45028383080022 26.51620582310932 26.648049807727524 26.779893792345725 26.95568577183666 27.065555759018494 27.219373741073063 27.592931697491302 27.856619666727706 28.09833363852774 28.40596960263688 28.77952755905512 29.043215528291523 29.306903497527927 29.746383446255265 30.20783739241897 30.669291338582678 30.976927302691813 31.43838124885552 31.94378318989196 32.2514191540011 32.800769089910276 33.174327046328514 33.67972898736495 34.25105292071049 34.6465848745651 35.50357077458341 36.16279069767442 36.646218641274494 37.15162058231093 37.65702252334737 38.22834645669291 39.305072331074896 39.964292254165905 40.79930415674785 41.41457608496612 42.60117194652994 43.194469877311846 43.80974180553012 44.6887017029848 45.58963559787585 46.182933528657756 47.061893426112434 47.63321735945797 48.75389122871269 49.39113715436733 49.962461087712875 50.77549899285845 51.58853689800403 52.15986083134957 53.324482695477016 53.91778062625893 54.81871452114997 55.74162241347739 56.22505035707746 56.9941402673503 58.24665812122322 58.94982603918696 59.872733931514375 60.509979857169014 61.47683574436916 62.53158762131478 63.212781541842155 64.22358542391504 65.27833730086064 65.9815052188244 67.03625709577 67.73942501373375 68.79417689067935 70.11261673686138 70.46420069584326 71.34316059329794 72.22212049075262 72.79344442409815 73.6284563266801 74.17780626258927 75.21058414209853 75.91375206006227 76.28731001648049 77.0783739241897 77.69364585240798 78.06720380882624 78.6165537447354 78.94616370628091 79.4076176524446 79.89104559604468 80.15473356528108 80.63816150888115 81.0776414576085 81.38527742171763 81.73686138069951 82.00054934993591 82.35213330891779 82.65976927302691 82.87950924739059 83.12122321919063 83.27504120124519 83.40688518586339 83.53872917048159 83.53872917048159 83.58267716535434 83.58267716535434 83.58267716535434 83.58267716535434 83.58267716535434 83.58267716535434 83.58267716535434 83.56070316791798 83.56070316791798 83.56070316791798 83.58267716535434 83.56070316791798 83.56070316791798 83.56070316791798 83.51675517304523 83.49478117560886 83.45083318073613 83.40688518586339 83.38491118842703 83.3409631935543 83.31898919611793 83.29701519868156 83.25306720380883 83.25306720380883 83.23109320637246 83.23109320637246 83.23109320637246 83.23109320637246 83.23109320637246 83.23109320637246 83.23109320637246 83.23109320637246 83.23109320637246 83.23109320637246 83.25306720380883 83.23109320637246 83.23109320637246 83.23109320637246 83.23109320637246 83.23109320637246 83.23109320637246 83.23109320637246 83.23109320637246 83.23109320637246 83.2091192089361 83.16517121406336 83.0772752243179 83.01135323200879 82.96740523713606 82.90148324482695 82.83556125251786 82.76963926020875 82.70371726789965 82.65976927302691 82.61582127815419 82.57187328328145 82.54989928584509 82.54989928584509 82.54989928584509 82.57187328328145 82.54989928584509 82.54989928584509 82.57187328328145 82.54989928584509 82.57187328328145 82.57187328328145 82.54989928584509 82.54989928584509 82.54989928584509 82.57187328328145 82.54989928584509 82.57187328328145 82.54989928584509 82.54989928584509 82.54989928584509 82.54989928584509 82.54989928584509 82.54989928584509 82.54989928584509 82.54989928584509 82.54989928584509 82.54989928584509 82.54989928584509 82.54989928584509 82.54989928584509 82.54989928584509 82.52792528840871 82.50595129097235 82.46200329609962 82.44002929866325 82.41805530122689 82.39608130379051 82.39608130379051 82.35213330891779 82.35213330891779 82.35213330891779 82.33015931148142 82.30818531404505 82.30818531404505 82.28621131660869 82.28621131660869 82.24226332173595 82.22028932429959 82.19831532686322 82.15436733199049 82.13239333455411 82.08844533968139 82.04449734480863 82.02252334737227 81.95660135506317 81.95660135506317 81.93462735762681 81.93462735762681 81.91265336019043 81.91265336019043 81.91265336019043 81.93462735762681 81.91265336019043 81.89067936275407 81.86870536531771 81.82475737044497 81.82475737044497 81.82475737044497 81.80278337300861 81.80278337300861 81.80278337300861 81.80278337300861 81.80278337300861 81.80278337300861 81.80278337300861 81.78080937557223 81.78080937557223 81.80278337300861 81.78080937557223 81.78080937557223 81.78080937557223 81.78080937557223 81.78080937557223 81.78080937557223 81.75883537813587 81.73686138069951 81.71488738326315 81.71488738326315 81.69291338582677 81.69291338582677 81.69291338582677 81.67093938839041 81.67093938839041 81.67093938839041 81.67093938839041 81.67093938839041 81.67093938839041 81.67093938839041 81.67093938839041 81.64896539095403 81.60501739608131 81.60501739608131 81.58304339864495 81.58304339864495 81.53909540377221 81.51712140633583 81.51712140633583 81.49514740889947 81.49514740889947 81.49514740889947 81.47317341146311 81.47317341146311 81.45119941402675 81.45119941402675 81.42922541659037 81.42922541659037 81.42922541659037 81.40725141915401 81.40725141915401 81.38527742171763 81.38527742171763 81.38527742171763 81.38527742171763 81.38527742171763 81.36330342428127 81.38527742171763 81.38527742171763 81.38527742171763 81.36330342428127 81.36330342428127 81.36330342428127 81.34132942684491 81.34132942684491 81.31935542940855 81.29738143197216 81.29738143197216 81.2754074345358 81.2754074345358 81.2754074345358 81.2754074345358 81.2754074345358 81.25343343709943 81.2754074345358 81.25343343709943 81.23145943966307 81.20948544222671 81.18751144479035 81.16553744735396 81.1435634499176 81.12158945248123 81.12158945248123 81.09961545504487 81.09961545504487 81.09961545504487 81.09961545504487 81.09961545504487 81.0776414576085 81.0776414576085 81.05566746017213 81.05566746017213 81.05566746017213 81.03369346273576 81.03369346273576 81.0117194652994 81.0117194652994 81.0117194652994 80.98974546786303 80.98974546786303 81.0117194652994 80.98974546786303 80.98974546786303 80.96777147042667 80.96777147042667 80.9457974729903 80.9457974729903 80.92382347555393 80.90184947811755 80.90184947811755 80.87987548068119 80.85790148324483 80.85790148324483 80.81395348837209 80.77000549349935 80.77000549349935 80.72605749862663 80.72605749862663 80.72605749862663 80.70408350119027 80.68210950375389 80.66013550631753 80.63816150888115 80.61618751144479 80.61618751144479 80.61618751144479 80.59421351400843 80.59421351400843 80.57223951657207 80.55026551913569 80.52829152169933 80.50631752426295 80.48434352682659 80.44039553195387 80.37447353964475 80.30855154733565 80.22065555759019 80.08881157297199 79.91301959348105 79.71525361655375 79.56143563449919 79.4076176524446 79.1439296832082 78.8802417139718 78.6824757370445 78.26496978575352 77.93535982420804 77.71561984984436 77.47390587804432 77.23219190624428 76.90258194469877 76.4850759934078 76.28731001648049 75.97967405237137 75.6940120856986 75.49624610877129 75.32045412928035 75.01281816517121 74.72715619849845 74.30965024720747 74.00201428309833 73.51858633949826 72.9692364035891 72.57370444973449 71.95843252151622 71.51895257278886 70.8377586522615 70.15656473173412 69.6951107855704 68.9699688701703 68.22285295733383 67.43178904962461 66.86046511627907 66.377037172679 65.36623329060612 64.641091375206 64.15766343160593 63.454495513642186 62.993041567478485 62.31184764695111 61.80644570591467 61.19117377769639 60.575901849478115 59.960629921259844 59.54312396996887 58.9937740340597 58.59824208020509 58.00494414942318 57.43362021607764 57.016114264786665 56.422816334004764 55.80754440578649 55.34609045962278 54.48910455960447 54.04962461087713 53.632118659586155 52.775132759567846 52.37960080571324 51.69840688518586 51.083134956967584 50.665629005676614 50.006409082585606 49.56692913385827 48.92968320820363 48.27046328511261 47.83098333638527 47.23768540560337 46.622413477385095 46.22688152353049 45.63358359274858 45.04028566196667 44.46896172862113 44.02948177989379 43.655923823475554 43.194469877311846 42.64511994140267 42.24958798754807 41.45852407983885 41.04101812854789 40.42574620032961 39.8324482695477 39.48086431056583 38.79967039003846 38.25032045412928 37.87676249771104 37.3713605566746 37.041750595129095 36.58029664896539 35.986998718183486 35.81120673869255 35.43764878227431 35.15198681560154 34.75645486174693 34.38289690532869 34.141182933528654 33.657754989928584 33.284197033510345 33.108405054019414 32.800769089910276 32.53708112067387 32.185497161692 31.68009522065556 31.43838124885552 31.042849295000916 30.647317341146312 30.383629371909905 29.944149423182566 29.658487456509796 29.219007507782457 28.77952755905512 28.47189159494598 28.076359641091376 27.68082768723677 27.417139718000367 27.241347738509432 27.17542574620033 27.065555759018494 26.97765976927303 26.933711774400294 26.867789782091194 26.80186778978209 26.757919794909355 26.713971800036624 26.691997802600255 26.626075810291155 26.58212781541842 26.51620582310932 26.406335835927486 26.340413843618386 26.29646584874565 26.23054385643655 26.14264786669108 26.054751876945616 25.966855887200147 25.922907892327412 25.835011902581943 25.791063907709212 25.769089910272843 25.769089910272843 25.747115912836477 25.747115912836477 25.72514191540011 25.72514191540011 25.703167917963743 25.72514191540011 25.703167917963743 25.703167917963743 25.681193920527377 25.65921992309101 25.65921992309101 25.637245925654643 25.615271928218274 25.615271928218274 25.593297930781908 25.571323933345543 25.571323933345543 25.527375938472808 25.50540194103644 25.483427943600073 25.461453946163708 25.43947994872734 25.417505951290973 25.395531953854604 25.37355795641824 25.35158395898187 25.35158395898187 25.329609961545504 25.30763596410914 25.30763596410914 25.28566196667277 25.28566196667277 25.28566196667277 25.263687969236404 25.241713971800035 25.241713971800035 25.21973997436367 25.21973997436367 25.197765976927304 25.197765976927304 25.175791979490935 25.175791979490935 25.15381798205457 25.15381798205457 25.15381798205457 25.1318439846182 25.109869987181835 25.109869987181835 25.109869987181835 25.109869987181835 25.08789598974547 25.08789598974547 25.08789598974547 25.08789598974547 25.0659219923091 25.0659219923091 25.0659219923091 25.0659219923091 25.0659219923091 25.0659219923091 25.0659219923091 25.0659219923091 25.0659219923091 25.0659219923091 25.0659219923091 25.043947994872735 25.043947994872735 25.043947994872735 25.043947994872735 25.0659219923091 25.043947994872735 25.043947994872735 25.043947994872735 25.043947994872735 25.043947994872735 25.043947994872735 25.043947994872735 25.043947994872735 25.043947994872735 25.043947994872735 25.043947994872735 25.043947994872735 25.043947994872735 25.043947994872735 25.043947994872735 25.043947994872735 25.043947994872735 25.043947994872735 25.043947994872735 25.043947994872735 25.021973997436366 25.021973997436366 25.043947994872735 25.043947994872735 25.043947994872735 25.043947994872735 25.021973997436366 25.043947994872735 25.021973997436366 25.021973997436366 25.021973997436366 25.021973997436366 25.021973997436366 25.021973997436366 25.021973997436366 25.021973997436366 25.021973997436366 25.021973997436366 25.021973997436366 25.021973997436366 25.021973997436366 25.021973997436366 25.021973997436366 25.0 25.021973997436366 25.0 25.021973997436366 25.0 25.0 25.0 25.0 25.021973997436366 25.0 25.0 25.0 25.0 25.0 25.0 25.0 25.0 25.0 25.0 25.0 25.0 25.0 25.0 25.0 25.0 24.978026002563634 25.0 25.0 25.0 25.0 24.978026002563634 24.978026002563634 24.978026002563634 24.978026002563634 24.978026002563634 25.0 24.978026002563634 24.978026002563634 25.0 24.978026002563634 24.978026002563634 24.978026002563634 25.0 24.978026002563634 25.0 25.0 24.978026002563634 24.978026002563634 24.978026002563634 25.0 25.0 25.0 25.0 25.0 25.0 25.021973997436366 25.021973997436366 25.043947994872735 25.021973997436366 25.043947994872735 25.043947994872735 25.0659219923091 25.0659219923091 25.0659219923091 25.08789598974547 25.109869987181835 25.109869987181835 25.1318439846182 25.15381798205457 25.197765976927304 25.241713971800035 25.329609961545504 25.50540194103644 25.549349935909174 25.703167917963743 25.856985900018312 25.966855887200147 26.164621864127447 26.36238784105475 26.560153817982055 26.73594579747299 26.80186778978209 27.10950375389123 27.351217725691264 27.74674967954587 28.208203625709576 28.53781358725508 29.043215528291523 29.61453946163706 30.010071415491666 30.537447353964474 30.954953305255447 31.548251236037355 32.14154916681926 32.55905511811024 33.196301043764876 33.789598974546784 34.42684490020143 34.82237685405603 35.21790880791064 36.03094671305622 36.646218641274494 37.08569859000183 37.5032045412928 38.36019044131112 38.79967039003846 39.239150338765796 39.964292254165905 40.667460172129644 41.41457608496612 41.94195202343893 42.71104193371177 43.54605383629372 44.09540377220289 44.9523896722212 45.54568760300312 46.490569492766895 47.4134773850943 48.42428126716719 49.303241164621866 49.940487090276505 50.48983702618568 51.36879692364036 51.9401208569859 52.994872733931516 53.80791063907709 54.35726057498627 55.19227247756821 55.983336385277426 56.51071232375023 57.038088262223035 57.82915216993224 58.57626808276872 59.34535799304157 59.872733931514375 60.61984984435085 61.60867972898736 62.13605566746017 62.72935359824208 63.146859549533055 63.89397546236953 64.641091375206 65.14649331624244 66.13532320087896 66.6407251419154 67.40981505218824 67.93719099066105 68.39864493682475 69.1018128547885 70.02472074711591 70.50814869071598 71.167368613807 71.6288225599707 72.24409448818898 72.70554843435269 73.32082036257097 73.93609229078925 74.55136421900751 74.96887017029849 75.54019410364401 75.97967405237137 76.50704999084417 77.05639992675334 77.36403589086248 77.82548983702618 78.2210217908808 78.46273576268084 78.8802417139718 79.05603369346274 79.2757736678264 79.42959164988098 79.51748763962644 79.62735762680828 79.69327961911739 79.82512360373559 79.95696758835379 80.04486357809925 80.22065555759019 80.41842153451748 80.55026551913569 80.74803149606299 80.90184947811755 80.98974546786303 81.12158945248123 81.25343343709943 81.29738143197216 81.40725141915401 81.47317341146311 81.49514740889947 81.53909540377221 81.58304339864495 81.58304339864495 81.60501739608131 81.60501739608131 81.58304339864495 81.60501739608131 81.60501739608131 81.58304339864495 81.58304339864495 81.58304339864495 81.58304339864495 81.58304339864495 81.58304339864495 81.58304339864495 81.58304339864495 81.58304339864495 81.58304339864495 81.53909540377221 81.49514740889947 81.49514740889947 81.45119941402675 81.45119941402675 81.42922541659037 81.40725141915401 81.36330342428127 81.31935542940855 81.29738143197216 81.25343343709943 81.23145943966307 81.23145943966307 81.23145943966307 81.23145943966307 81.20948544222671 81.20948544222671 81.20948544222671 81.18751144479035 81.18751144479035 81.18751144479035 81.18751144479035 81.18751144479035 81.18751144479035 81.18751144479035 81.16553744735396 81.12158945248123 81.0776414576085 81.05566746017213 81.0117194652994 81.0117194652994 80.92382347555393 80.85790148324483 80.83592748580847 80.79197949093573 80.74803149606299 80.72605749862663 80.70408350119027 80.66013550631753 80.66013550631753 80.63816150888115 80.63816150888115 80.63816150888115 80.61618751144479 80.61618751144479 80.59421351400843 80.59421351400843 80.57223951657207 80.55026551913569 80.55026551913569 80.50631752426295 80.46236952939023 80.44039553195387 80.41842153451748 80.39644753708112 80.37447353964475 80.35249954220839 80.33052554477202 80.30855154733565 80.26460355246292 80.22065555759019 80.19868156015382 80.17670756271745 80.17670756271745 80.17670756271745 80.17670756271745 80.17670756271745 80.15473356528108 80.13275956784472 80.08881157297199 80.04486357809925 80.02288958066288 80.02288958066288 80.02288958066288 80.02288958066288 80.02288958066288 80.00091558322652 80.00091558322652 79.97894158579015 79.95696758835379 79.93499359091741 79.91301959348105 79.89104559604468 79.84709760117195 79.80314960629921 79.73722761399011 79.69327961911739 79.64933162424464 79.60538362937191 79.58340963193555 79.56143563449919 79.56143563449919 79.5394616370628 79.56143563449919 79.5394616370628 79.56143563449919 79.56143563449919 79.56143563449919 79.56143563449919 79.56143563449919 79.56143563449919 79.56143563449919 79.56143563449919 79.56143563449919 79.58340963193555 79.58340963193555 79.58340963193555 79.58340963193555 79.58340963193555 79.60538362937191 79.64933162424464 79.69327961911739 79.73722761399011 79.78117560886285 79.82512360373559 79.86907159860831 79.89104559604468 79.89104559604468 79.89104559604468 79.89104559604468 79.89104559604468 79.89104559604468 79.89104559604468 79.89104559604468 79.89104559604468 79.89104559604468 79.89104559604468 79.89104559604468 79.91301959348105 79.93499359091741 79.97894158579015 80.00091558322652 80.06683757553562 80.13275956784472 80.17670756271745 80.22065555759019 80.24262955502655 80.26460355246292 80.28657754989928 80.30855154733565 80.33052554477202 80.35249954220839 80.35249954220839 80.37447353964475 80.37447353964475 80.39644753708112 80.44039553195387 80.46236952939023 80.50631752426295 80.57223951657207 80.59421351400843 80.66013550631753 80.70408350119027 80.74803149606299 80.79197949093573 80.81395348837209 80.85790148324483 80.87987548068119 80.87987548068119 80.87987548068119 80.87987548068119 80.87987548068119 80.87987548068119 80.87987548068119 80.85790148324483 80.85790148324483 80.87987548068119 80.85790148324483 80.85790148324483 80.85790148324483 80.85790148324483 80.85790148324483 80.85790148324483 80.85790148324483 80.85790148324483 80.85790148324483 80.85790148324483 80.87987548068119 80.87987548068119 80.87987548068119 80.85790148324483 80.85790148324483 80.85790148324483 80.85790148324483 80.85790148324483 80.85790148324483 80.85790148324483 80.85790148324483 80.85790148324483 80.83592748580847 80.83592748580847 80.83592748580847 80.83592748580847 80.83592748580847 80.83592748580847 80.83592748580847 80.83592748580847 80.83592748580847 80.85790148324483 80.85790148324483 80.85790148324483 80.85790148324483 80.85790148324483 80.85790148324483 80.85790148324483 80.85790148324483 80.85790148324483 80.85790148324483 80.85790148324483 80.85790148324483 80.87987548068119 80.85790148324483 80.85790148324483 80.87987548068119 80.87987548068119 80.87987548068119 80.87987548068119 80.85790148324483 80.87987548068119 80.87987548068119 80.85790148324483 80.85790148324483 80.87987548068119 80.87987548068119 80.85790148324483 80.85790148324483 80.85790148324483 80.85790148324483 80.85790148324483 80.85790148324483 80.85790148324483 80.83592748580847 80.79197949093573 80.70408350119027 80.59421351400843 80.41842153451748 80.22065555759019 80.04486357809925 79.80314960629921 79.49551364219008 79.31972166269914 79.07800769089911 78.72642373191724 78.37483977293536 77.97930781908076 77.69364585240798 77.23219190624428 76.77073796008057 76.44112799853508 76.00164804980773 75.6940120856986 75.21058414209853 74.74913019593481 74.41952023438931 73.80424830617103 73.34279436000733 73.03515839589818 72.70554843435269 72.39791247024354 71.8925105292071 71.25526460355246 70.92565464200696 70.42025270097052 69.93682475737045 69.58524079838858 69.25563083684307 68.72825489837027 68.15693096502471 67.58560703167919 67.19007507782457 66.5748031496063 65.9815052188244 65.5859732649698 64.99267533418788 64.59714338033328 64.06976744186046 63.52041750595129 63.16883354696942 62.61948361106025 61.87236769822377 61.49880974180553 61.12525178538729 60.75169382896905 59.982603918696206 59.4552279802234 59.2574620032961 58.53232008789599 57.93902215711408 57.56546420069584 57.191906244277604 56.620582310932065 56.049258377586526 55.49990844167735 55.12635048525911 54.57700054934993 54.04962461087713 53.698040651895255 53.170664713422454 52.797106757004215 52.2697308185314 51.69840688518586 51.149056949276684 50.73155099798572 50.40194103644021 49.654825123603736 49.25929316974913 48.92968320820363 48.18256729536715 47.61124336202161 47.215711408167 46.622413477385095 46.16095953122139 45.63358359274858 45.0842336568394 44.71067570042116 44.205273759384724 43.74381981322102 43.436183849111885 42.996703900384546 42.55722395165721 42.2276139901117 41.81010803882073 41.50247207471159 41.06299212598425 40.62351217725691 40.140084233656836 39.6346822926204 39.32704632851126 38.77769639260209 38.44808643105658 38.18439846182018 37.72294451565647 37.129646584874564 36.843984618201794 36.470426661783556 36.16279069767442 35.81120673869255 35.26185680278337 35.02014283098333 34.69053286943783 34.25105292071049 33.943416956601354 33.438015015564915 33.108405054019414 32.42721113349204 31.921809192455594 31.57022523347372 31.21864127449185 30.757187328328143 30.42757736678264 29.746383446255265 29.41677348470976 28.97729353598242 28.603735579564184 28.449917597509614 28.09833363852774 27.724775682109502 27.548983702618568 27.329243728254898 27.241347738509432 27.131477751327594 27.02160776414576 26.933711774400294 26.845815784654825 26.779893792345725 26.691997802600255 26.626075810291155 26.58212781541842 26.51620582310932 26.45028383080022 26.406335835927486 26.406335835927486 26.36238784105475 26.340413843618386 26.29646584874565 26.23054385643655 26.164621864127447 26.07672587438198 26.01080388207288 25.922907892327412 25.813037905145578 25.703167917963743 25.615271928218274 25.615271928218274 25.637245925654643 25.637245925654643 25.615271928218274 25.593297930781908 25.593297930781908 25.549349935909174 25.527375938472808 25.483427943600073 25.483427943600073 25.43947994872734 25.395531953854604 25.37355795641824 25.329609961545504 25.28566196667277 25.263687969236404 25.241713971800035 25.21973997436367 25.197765976927304 25.175791979490935 25.15381798205457 25.1318439846182 25.109869987181835 25.08789598974547 25.08789598974547 25.0659219923091 25.043947994872735 25.0659219923091 25.043947994872735 25.043947994872735 25.043947994872735 25.043947994872735 25.021973997436366 25.021973997436366 25.021973997436366 25.021973997436366 25.021973997436366 25.021973997436366 25.021973997436366 25.021973997436366 25.021973997436366 25.021973997436366 25.021973997436366 25.021973997436366 25.021973997436366 25.021973997436366 25.0 25.0 25.0 25.021973997436366 25.0 25.021973997436366 25.0 25.021973997436366 25.021973997436366 25.021973997436366 25.0 25.0 25.0 24.978026002563634 25.0 24.978026002563634 25.0 24.978026002563634 24.978026002563634 24.978026002563634 24.978026002563634 24.978026002563634 24.978026002563634 24.956052005127265 24.978026002563634 24.956052005127265 24.978026002563634 24.978026002563634 24.956052005127265 24.956052005127265 24.956052005127265 24.956052005127265 24.956052005127265 24.956052005127265 24.956052005127265 24.956052005127265 24.956052005127265 24.956052005127265 24.956052005127265 24.956052005127265 24.956052005127265 24.956052005127265 24.956052005127265 24.956052005127265 24.956052005127265 24.956052005127265 24.956052005127265 24.956052005127265 24.9340780076909 24.9340780076909 24.956052005127265 24.9340780076909 24.9340780076909 24.9340780076909 24.9340780076909 24.9340780076909 24.9340780076909 24.9340780076909 24.9340780076909 24.9340780076909 24.9340780076909 24.9340780076909 24.9340780076909 24.9340780076909 24.9340780076909 24.91210401025453 24.9340780076909 24.9340780076909 24.9340780076909 24.9340780076909 24.91210401025453 24.9340780076909 24.91210401025453 24.9340780076909 24.91210401025453 24.9340780076909 24.91210401025453 24.91210401025453 24.91210401025453 24.91210401025453 24.91210401025453 24.91210401025453 24.91210401025453 24.91210401025453 24.91210401025453 24.91210401025453 24.91210401025453 24.91210401025453 24.91210401025453 24.91210401025453 24.91210401025453 24.91210401025453 24.91210401025453 24.91210401025453 24.91210401025453 24.91210401025453 24.91210401025453 24.91210401025453 24.91210401025453 24.91210401025453 24.91210401025453 24.91210401025453 24.91210401025453 24.91210401025453 24.890130012818165 24.890130012818165 24.890130012818165 24.890130012818165 24.890130012818165 24.890130012818165 24.890130012818165 24.890130012818165 24.890130012818165 24.91210401025453 24.890130012818165 24.890130012818165 24.890130012818165 24.91210401025453 24.890130012818165 24.890130012818165 24.890130012818165 24.890130012818165 24.890130012818165 24.890130012818165 24.890130012818165 24.890130012818165 24.890130012818165 24.890130012818165 24.890130012818165 24.890130012818165 24.890130012818165 24.890130012818165 24.890130012818165 24.890130012818165 24.890130012818165 24.890130012818165 24.890130012818165 24.890130012818165 24.890130012818165 24.890130012818165 24.890130012818165 24.890130012818165 24.890130012818165 24.890130012818165 24.890130012818165 24.890130012818165 24.890130012818165 24.890130012818165 24.890130012818165 24.890130012818165 24.890130012818165 24.890130012818165 24.8681560153818 24.8681560153818 24.890130012818165 24.890130012818165 24.890130012818165 24.890130012818165 24.890130012818165 24.8681560153818 24.890130012818165 24.91210401025453 24.91210401025453 24.9340780076909 24.9340780076909 24.956052005127265 24.978026002563634 25.0 25.021973997436366 25.043947994872735 25.043947994872735 25.08789598974547 25.08789598974547 25.175791979490935 25.21973997436367 25.329609961545504 25.417505951290973 25.50540194103644 25.637245925654643 25.72514191540011 25.878959897454678 26.01080388207288 26.098699871818347 26.23054385643655 26.36238784105475 26.472257828236586 26.60410181285479 26.713971800036624 26.933711774400294 27.219373741073063 27.527009705182202 27.90056766160044 28.142281633400476 28.40596960263688 28.823475553927853 29.087163523164257 29.70243545138253 30.163889397546235 30.493499359091743 31.020875297564547 31.548251236037355 31.94378318989196 32.5151071232375 32.932613074528476 33.569859000183115 34.25105292071049 34.69053286943783 35.41567478483794 36.360556674601725 36.668192638710856 37.327412561801864 37.8328145028383 38.51400842336568 39.21717634132943 39.920344259293174 40.62351217725691 41.34865409265702 41.83208203625709 42.33748397729354 42.842885918329976 43.897637795275585 44.73264969785754 45.32594762863944 46.16095953122139 47.061893426112434 47.67716535433071 48.40230726973082 49.2153451748764 50.116279069767444 51.01721296465848 51.58853689800403 52.46749679545871 53.280534700604285 54.137520600622594 54.6648965390954 55.21424647500458 56.049258377586526 56.906244277604834 57.47756821095037 58.66416407251419 59.367331990477936 60.180369895623514 60.86156381615089 61.43288774949643 62.66343160593298 63.300677531587624 64.1796374290423 65.05859732649698 65.67386925471524 66.59677714704267 67.23402307269731 68.06903497527925 68.92602087529757 69.71708478300678 70.24446072147958 71.01355063175242 71.51895257278886 72.24409448818898 73.01318439846182 73.47463834462553 74.17780626258927 74.90294817798939 75.38637612158945 76.06757004211683 76.77073796008057 77.47390587804432 78.19904779344444 78.4187877678081 79.38564365500824 80.13275956784472 80.61618751144479 81.34132942684491 81.82475737044497 82.57187328328145 83.25306720380883 83.71452114997254 84.35176707562718 84.94506500640908 85.49441494231826 85.82402490386376 86.17560886284564 86.57114081670024 86.94469877311849 87.16443874748215 87.42812671671855 87.69181468595497 87.88958066288225 88.04339864493683 88.15326863211865 88.28511261673685 88.41695660135505 88.4609045962278 88.50485259110053 88.52682658853689 88.54880058597325 88.54880058597325 88.54880058597325 88.54880058597325 88.54880058597325 88.54880058597325 88.52682658853689 88.52682658853689 88.4609045962278 88.39498260391869 88.35103460904597 88.26313861930049 88.26313861930049 88.24116462186413 88.24116462186413 88.24116462186413 88.24116462186413 88.24116462186413 88.24116462186413 88.24116462186413 88.24116462186413 88.24116462186413 88.24116462186413 88.24116462186413 88.21919062442777 88.21919062442777 88.21919062442777 88.19721662699139 88.19721662699139 88.19721662699139 88.19721662699139 88.15326863211865 88.13129463468229 88.10932063724593 88.08734663980957 88.06537264237319 88.04339864493683 88.02142464750045 88.02142464750045 87.97747665262773 87.95550265519137 87.91155466031863 87.91155466031863 87.88958066288225 87.86760666544589 87.86760666544589 87.86760666544589 87.86760666544589 87.86760666544589 87.84563266800953 87.80168467313679 87.75773667826405 87.73576268082769 87.71378868339133 87.71378868339133 87.69181468595497 87.66984068851858 87.60391869620949 87.60391869620949 87.55997070133675 87.53799670390038 87.53799670390038 87.51602270646401 87.51602270646401 87.45010071415491 87.40615271928218 87.38417872184581 87.36220472440945 87.34023072697309 87.34023072697309 87.34023072697309 87.34023072697309 87.31825672953671 87.27430873466398 87.25233473722761 87.20838674235489 87.16443874748215 87.12049075260941 87.07654275773669 87.05456876030031 87.03259476286395 87.01062076542757 86.98864676799121 86.96667277055485 86.96667277055485 86.94469877311849 86.94469877311849 86.9227247756821 86.9227247756821 86.90075077824574 86.90075077824574 86.90075077824574 86.87877678080937 86.87877678080937 86.83482878593665 86.81285478850029 86.74693279619117 86.70298480131844 86.6590368064457 86.61508881157297 86.57114081670024 86.5271928218275 86.48324482695477 86.43929683208204 86.43929683208204 86.43929683208204 86.43929683208204 86.43929683208204 86.41732283464567 86.41732283464567 86.41732283464567 86.43929683208204 86.41732283464567 86.41732283464567 86.3953488372093 86.3953488372093 86.35140084233657 86.32942684490021 86.28547885002747 86.2635048525911 86.24153085515474 86.24153085515474 86.24153085515474 86.21955685771837 86.19758286028201 86.17560886284564 86.15363486540927 86.1316608679729 86.08771287310017 86.06573887566381 85.9998168833547 85.95586888848196 85.9338948910456 85.91192089360922 85.88994689617286 85.8679728987365 85.84599890130013 85.82402490386376 85.82402490386376 85.82402490386376 85.82402490386376 85.82402490386376 85.82402490386376 85.82402490386376 85.82402490386376 85.82402490386376 85.8020509064274 85.78007690899102 85.78007690899102 85.75810291155466 85.78007690899102 85.75810291155466 85.78007690899102 85.78007690899102 85.75810291155466 85.71415491668193 85.71415491668193 85.69218091924556 85.69218091924556 85.69218091924556 85.69218091924556 85.69218091924556 85.69218091924556 85.69218091924556 85.6702069218092 85.64823292437282 85.62625892693646 85.62625892693646 85.62625892693646 85.6042849295001 85.6042849295001 85.6042849295001 85.6042849295001 85.62625892693646 85.62625892693646 85.6042849295001 85.62625892693646 85.6042849295001 85.6042849295001 85.6042849295001 85.6042849295001 85.6042849295001 85.6042849295001 85.6042849295001 85.58231093206373 85.56033693462736 85.51638893975462 85.4724409448819 85.4724409448819 85.45046694744553 85.42849295000916 85.42849295000916 85.4065189525728 85.4065189525728 85.4065189525728 85.4065189525728 85.4065189525728 85.4065189525728 85.4065189525728 85.4065189525728 85.38454495513642 85.38454495513642 85.3405969602637 85.29664896539094 85.29664896539094 85.25270097051822 85.25270097051822 85.23072697308186 85.23072697308186 85.23072697308186 85.23072697308186 85.23072697308186 85.23072697308186 85.23072697308186 85.23072697308186 85.23072697308186 85.23072697308186 85.23072697308186 85.23072697308186 85.23072697308186 85.23072697308186 85.2087529756455 85.18677897820913 85.14283098333638 85.12085698590002 85.12085698590002 85.12085698590002 85.12085698590002 85.12085698590002 85.12085698590002 85.12085698590002 85.12085698590002 85.12085698590002 85.12085698590002 85.12085698590002 85.12085698590002 85.12085698590002 85.12085698590002 85.12085698590002 85.07690899102728 85.07690899102728 85.05493499359092 85.03296099615454 84.98901300128182 84.96703900384546 84.92309100897272 84.90111701153634 84.87914301409998 84.87914301409998 84.85716901666362 84.85716901666362 84.85716901666362 84.83519501922726 84.83519501922726 84.83519501922726 84.83519501922726 84.83519501922726 84.83519501922726 84.83519501922726 84.81322102179088 84.79124702435452 84.76927302691814 84.76927302691814 84.74729902948178 84.72532503204542 84.70335103460906 84.65940303973632 84.61545504486358 84.50558505768174 84.43966306537266 84.30781908075444 84.1320271012635 83.89031312946346 83.71452114997254 83.45083318073613 83.25306720380883 82.9454312396997 82.61582127815419 82.37410730635415 82.02252334737227 81.67093938839041 81.42922541659037 81.05566746017213 80.81395348837209 80.41842153451748 80.02288958066288 79.62735762680828 79.36366965757188 78.94616370628091 78.52865775498992 78.24299578831716 77.93535982420804 77.34206189342612 76.83665995238968 76.50704999084417 75.97967405237137 75.43032411646219 75.07874015748033 74.52939022157113 74.15583226515291 73.60648232924373 73.03515839589818 72.66160043947995 72.04632851126168 71.4969785753525 71.1014466214979 70.50814869071598 70.11261673686138 69.54129280351583 68.9699688701703 68.39864493682475 67.78337300860647 67.36586705731551 66.97033510346091 66.3111151803699 65.91558322651528 65.10254532136972 64.48727339315144 64.06976744186046 63.476469511078555 63.058963559787585 62.42171763413294 61.7844717084783 61.38893975462369 60.75169382896905 60.136421900750776 59.718915949459806 59.1256180186779 58.53232008789599 57.93902215711408 57.45559421351401 57.104010254532135 56.488738326313864 55.87346639809559 55.23622047244095 54.5989745467863 54.15949459805896 53.54422266984069 52.906976744186046 52.70921076725874 52.02801684673137 51.17103094671306 50.73155099798572 50.116279069767444 49.69877311847647 49.08350119025819 48.51217725691265 48.11664530305805 47.56729536714887 46.973997436366965 46.600439479948726 46.00714154916682 45.63358359274858 44.8864676799121 44.2931697491302 44.09540377220289 43.502105841420985 42.930781908075446 42.51327595678447 41.76616004394799 41.34865409265702 40.77733015931148 40.140084233656836 39.898370261856805 39.107306354147596 38.47006042849295 38.00860648232924 37.3713605566746 36.931880607947264 36.272660684856255 35.65738875663798 35.23988280534701 34.6465848745651 34.25105292071049 33.701702984801315 33.196301043764876 32.866691082219376 32.40523713605567 31.855887200146494 31.702069218091925 31.37245925654642 31.15271928218275 30.735213330891778 30.44955136421901 30.36165537447354 29.9880974180553 29.70243545138253 29.504669474455227 29.219007507782457 29.021241530855153 28.71360556674602 28.362021607764145 28.09833363852774 27.702801684673137 27.307269730818533 27.219373741073063 27.04358176158213 26.933711774400294 26.757919794909355 26.626075810291155 26.472257828236586 26.42830983336385 26.38436183849112 26.36238784105475 26.36238784105475 26.36238784105475 26.36238784105475 26.36238784105475 26.340413843618386 26.318439846182017 26.274491851309286 26.252517853872916 26.208569859000182 26.164621864127447 26.07672587438198 26.01080388207288 25.966855887200147 25.878959897454678 25.791063907709212 25.72514191540011 25.681193920527377 25.681193920527377 25.65921992309101 25.637245925654643 25.615271928218274 25.571323933345543 25.50540194103644 25.483427943600073 25.461453946163708 25.43947994872734 25.395531953854604 25.37355795641824 25.35158395898187 25.329609961545504 25.329609961545504 25.30763596410914 25.28566196667277 25.28566196667277 25.263687969236404 25.241713971800035 25.241713971800035 25.21973997436367 25.197765976927304 25.175791979490935 25.175791979490935 25.15381798205457 25.1318439846182 25.1318439846182 25.109869987181835 25.08789598974547 25.08789598974547 25.08789598974547 25.08789598974547 25.08789598974547 25.0659219923091 25.0659219923091 25.0659219923091 25.0659219923091 25.043947994872735 25.0659219923091 25.043947994872735 25.043947994872735 25.043947994872735 25.043947994872735 25.043947994872735 25.043947994872735 25.021973997436366 25.021973997436366 25.021973997436366 25.021973997436366 25.021973997436366 25.021973997436366 25.021973997436366 25.021973997436366 25.021973997436366 25.0 25.0 25.0 25.021973997436366 25.0 25.0 25.0 25.0 25.0 25.0 25.0 25.0 25.0 25.0 25.0 25.0 25.0 25.0 25.0 24.978026002563634 25.0 24.978026002563634 25.0 24.978026002563634 24.978026002563634 24.978026002563634 25.0 24.978026002563634 24.978026002563634 24.978026002563634 24.978026002563634 24.978026002563634 24.978026002563634 24.978026002563634 24.978026002563634 24.978026002563634 24.956052005127265 24.956052005127265 24.956052005127265 24.956052005127265 24.956052005127265 24.956052005127265 24.956052005127265 24.956052005127265 24.956052005127265 24.956052005127265 24.956052005127265 24.956052005127265 24.956052005127265 24.956052005127265 24.956052005127265 24.956052005127265 24.956052005127265 24.9340780076909 24.956052005127265 24.956052005127265 24.956052005127265 24.956052005127265 24.956052005127265 24.956052005127265 24.956052005127265 24.956052005127265 24.956052005127265 24.9340780076909 24.956052005127265 24.9340780076909 24.956052005127265 24.9340780076909 24.9340780076909 24.9340780076909 24.9340780076909 24.9340780076909 24.9340780076909 24.9340780076909 24.9340780076909 24.9340780076909 24.9340780076909 24.9340780076909 24.9340780076909 24.9340780076909 24.9340780076909 24.9340780076909 24.9340780076909 24.9340780076909 24.9340780076909 24.9340780076909 24.9340780076909 24.9340780076909 24.9340780076909 24.9340780076909 24.91210401025453 24.9340780076909 24.9340780076909 24.9340780076909 24.91210401025453 24.9340780076909 24.9340780076909 24.9340780076909 24.9340780076909 24.9340780076909 24.9340780076909 24.9340780076909 24.9340780076909 24.9340780076909 24.9340780076909 24.9340780076909 24.9340780076909 24.91210401025453 24.9340780076909 24.9340780076909 24.9340780076909 24.91210401025453 24.91210401025453 24.9340780076909 24.91210401025453 24.91210401025453 24.91210401025453 24.91210401025453 24.91210401025453 24.91210401025453 24.91210401025453 24.91210401025453 24.91210401025453 24.91210401025453 24.91210401025453 24.91210401025453 24.9340780076909 24.9340780076909 24.91210401025453 24.91210401025453 24.91210401025453 24.91210401025453 24.9340780076909 24.91210401025453 24.91210401025453 24.91210401025453 24.9340780076909 24.91210401025453 24.91210401025453 24.91210401025453 24.91210401025453 24.91210401025453 24.91210401025453 24.91210401025453 24.91210401025453 24.91210401025453 24.91210401025453 24.91210401025453 24.91210401025453 24.91210401025453 24.91210401025453 24.91210401025453 24.91210401025453 24.91210401025453 24.91210401025453 24.91210401025453 24.91210401025453 24.91210401025453 24.91210401025453 24.91210401025453 24.91210401025453 24.91210401025453 24.91210401025453 24.91210401025453 24.91210401025453 24.91210401025453 24.890130012818165 24.91210401025453 24.91210401025453 24.91210401025453 24.91210401025453 24.890130012818165 24.91210401025453 24.890130012818165 24.890130012818165 24.890130012818165 24.91210401025453 24.91210401025453 24.91210401025453 24.9340780076909 24.956052005127265 24.978026002563634 24.978026002563634 25.0 25.021973997436366 25.043947994872735 25.0659219923091 25.109869987181835 25.175791979490935 25.30763596410914 25.395531953854604 25.571323933345543 25.747115912836477 25.878959897454678 26.032777879509247 26.23054385643655 26.36238784105475 26.538179820545686 26.648049807727524 26.80186778978209 26.95568577183666 27.02160776414576 27.285295733382164 27.461087712873102 27.81267167185497 28.09833363852774 28.40596960263688 28.955319538546053 29.438747482146127 29.746383446255265 30.251785387291704 30.58139534883721 31.108771287310017 31.65812122321919 32.0536531770738 32.646951107855706 33.262223036073976 33.74565097967405 34.42684490020143 34.93224684123787 35.70133675151071 36.51437465665629 37.08569859000183 37.94268449002014 38.90954037722029 39.876396264420436 40.90917414392968 41.23878410547519 42.68906793627541 43.787767808093754 44.22724775682109 45.63358359274858 46.71030946713056 47.43545138253067 48.42428126716719 49.105475187694566 50.116279069767444 51.06116095953122 51.69840688518586 52.62131477751328 53.456326680095216 54.04962461087713 54.88463651345907 55.69767441860465 56.488738326313864 57.016114264786665 57.52151620582311 58.24665812122322 58.94982603918696 59.63101995971434 60.312213880241714 60.77366782640542 61.43288774949643 62.11408167002381 62.37776963926021 63.23475553927852 63.915949459805894 64.39937740340596 65.05859732649698 65.54202527009704 66.2451931880608 67.21204907526095 67.51968503937007 68.20087895989745 68.7062809009339 69.45339681377037 70.24446072147958 70.94762863944334 71.65079655740706 72.31001648049809 72.57370444973449 73.12305438564366 73.54056033693463 74.08991027284381 74.74913019593481 75.03479216260759 75.43032411646219 75.80388207288043 76.02362204724409 76.3532320087896 76.57297198315328 76.8806079472624 77.18824391137156 77.42995788317158 77.80351583958982 78.33089177806264 78.57260574986266 78.81431972166271 79.03405969602638 79.36366965757188 79.69327961911739 79.91301959348105 80.30855154733565 80.59421351400843 80.77000549349935 80.9457974729903 81.12158945248123 81.42922541659037 81.64896539095403 81.75883537813587 81.91265336019043 82.04449734480863 82.13239333455411 82.22028932429959 82.26423731917231 82.30818531404505 82.35213330891779 82.37410730635415 82.37410730635415 82.35213330891779 82.35213330891779 82.37410730635415 82.35213330891779 82.35213330891779 82.35213330891779 82.35213330891779 82.33015931148142 82.26423731917231 82.24226332173595 82.19831532686322 82.19831532686322 82.19831532686322 82.17634132942685 82.17634132942685 82.15436733199049 82.15436733199049 82.13239333455411 82.13239333455411 82.11041933711775 82.08844533968139 82.08844533968139 82.08844533968139 82.08844533968139 82.08844533968139 82.08844533968139 82.06647134224502 82.06647134224502 82.06647134224502 82.06647134224502 82.04449734480863 82.00054934993591 81.97857535249955 81.95660135506317 81.91265336019043 81.91265336019043 81.86870536531771 81.82475737044497 81.82475737044497 81.80278337300861 81.78080937557223 81.78080937557223 81.78080937557223 81.75883537813587 81.73686138069951 81.69291338582677 81.67093938839041 81.62699139351767 81.58304339864495 81.56106940120857 81.53909540377221 81.51712140633583 81.49514740889947 81.47317341146311 81.45119941402675 81.42922541659037 81.40725141915401 81.38527742171763 81.36330342428127 81.34132942684491 81.34132942684491 81.31935542940855 81.29738143197216 81.25343343709943 81.25343343709943 81.23145943966307 81.20948544222671 81.20948544222671 81.20948544222671 81.20948544222671 81.20948544222671 81.20948544222671 81.20948544222671 81.20948544222671 81.20948544222671 81.20948544222671 81.20948544222671 81.23145943966307 81.23145943966307 81.23145943966307 81.25343343709943 81.2754074345358 81.31935542940855 81.34132942684491 81.40725141915401 81.42922541659037 81.49514740889947 81.49514740889947 81.51712140633583 81.53909540377221 81.56106940120857 81.56106940120857 81.56106940120857 81.58304339864495 81.58304339864495 81.58304339864495 81.58304339864495 81.60501739608131 81.62699139351767 81.62699139351767 81.62699139351767 81.62699139351767 81.62699139351767 81.62699139351767 81.62699139351767 81.62699139351767 81.62699139351767 81.62699139351767 81.62699139351767 81.62699139351767 81.62699139351767 81.62699139351767 81.62699139351767 81.62699139351767 81.62699139351767 81.62699139351767 81.62699139351767 81.62699139351767 81.62699139351767 81.62699139351767 81.62699139351767 81.62699139351767 81.62699139351767 81.62699139351767 81.62699139351767 81.62699139351767 81.62699139351767 81.62699139351767 81.62699139351767 81.62699139351767 81.62699139351767 81.62699139351767 81.62699139351767 81.62699139351767 81.62699139351767 81.64896539095403 81.64896539095403 81.64896539095403 81.62699139351767 81.64896539095403 81.67093938839041 81.69291338582677 81.71488738326315 81.73686138069951 81.75883537813587 81.75883537813587 81.73686138069951 81.73686138069951 81.75883537813587 81.75883537813587 81.73686138069951 81.73686138069951 81.73686138069951 81.73686138069951 81.73686138069951 81.73686138069951 81.73686138069951 81.73686138069951 81.73686138069951 81.73686138069951 81.73686138069951 81.73686138069951 81.73686138069951 81.73686138069951 81.73686138069951 81.73686138069951 81.73686138069951 81.73686138069951 81.73686138069951 81.73686138069951 81.73686138069951 81.73686138069951 81.73686138069951 81.73686138069951 81.73686138069951 81.73686138069951 81.73686138069951 81.73686138069951 81.73686138069951 81.75883537813587 81.73686138069951 81.73686138069951 81.78080937557223 81.80278337300861 81.80278337300861 81.82475737044497 81.82475737044497 81.84673136788135 81.84673136788135 81.84673136788135 81.84673136788135 81.84673136788135 81.84673136788135 81.84673136788135 81.84673136788135 81.84673136788135 81.84673136788135 81.84673136788135 81.84673136788135 81.84673136788135 81.84673136788135 81.82475737044497 81.82475737044497 81.84673136788135 81.84673136788135 81.82475737044497 81.82475737044497 81.82475737044497 81.82475737044497 81.82475737044497 81.82475737044497 81.82475737044497 81.82475737044497 81.82475737044497 81.82475737044497 81.82475737044497 81.80278337300861 81.80278337300861 81.80278337300861 81.80278337300861 81.80278337300861 81.82475737044497 81.78080937557223 81.78080937557223 81.73686138069951 81.67093938839041 81.62699139351767 81.53909540377221 81.45119941402675 81.38527742171763 81.25343343709943 81.16553744735396 81.05566746017213 80.92382347555393 80.77000549349935 80.61618751144479 80.50631752426295 80.33052554477202 80.19868156015382 80.04486357809925 79.71525361655375 79.42959164988098 79.23182567295368 78.90221571140816 78.5506317524263 78.30891778062626 77.9573338216444 77.69364585240798 77.32008789598976 76.99047793444424 76.77073796008057 76.30928401391687 75.957700054935 75.71598608313496 75.49624610877129 75.23255813953489 74.88097418055301 74.44149423182567 74.0239882805347 73.562534334371 73.27687236769822 72.81541842153452 72.46383446255265 72.17817249587988 71.56290056766161 71.1014466214979 70.79381065738875 70.37630470609778 70.09064273942502 69.65116279069767 69.2336568394067 68.94799487273393 68.53048892144295 68.13495696758835 67.84929500091559 67.40981505218824 66.99230910089727 66.53085515473356 66.22321919062443 65.89360922907892 65.41018128547884 64.88280534700604 64.5092473905878 63.784105475187694 63.410547518769455 62.88317158029665 62.35579564182384 62.11408167002381 61.47683574436916 60.90551181102362 60.53195385460538 59.960629921259844 59.54312396996887 58.90587804431423 58.35652810840505 57.96099615455045 57.323750228895804 56.70847830067753 56.312946346822926 55.69767441860465 55.25819446987731 54.64292254165903 53.74198864676799 53.500274674967955 52.841054751876946 52.15986083134957 51.41274491851309 50.90734297747665 50.094305072331075 49.32521516205823 48.53415125434902 48.18256729536715 47.23768540560337 46.490569492766895 46.00714154916682 45.30397363120308 44.820545687603 44.11737776963926 43.216443874748215 43.01867789782091 42.35945797472991 41.89800402856619 41.26075810291155 40.403772202893244 39.964292254165905 39.546786302874935 38.93151437465666 38.49203442592932 37.92071049258378 37.48123054385644 36.646218641274494 35.986998718183486 35.54751876945615 34.95422083867423 34.33894891045596 33.943416956601354 33.416041018128546 33.064457059146676 32.55905511811024 32.09760117194653 31.78996520783739 31.328511261673686 30.86705731550998 30.537447353964474 30.054019410364404 29.724409448818896 29.219007507782457 28.69163156930965 28.16425563083684 27.658853689800402 27.483061710309467 27.395165720564 27.241347738509432 27.087529756454863 26.88976377952756 26.757919794909355 26.691997802600255 26.60410181285479 26.538179820545686 26.472257828236586 26.42830983336385 26.38436183849112 26.340413843618386 26.274491851309286 26.23054385643655 26.186595861563816 26.14264786669108 26.098699871818347 26.07672587438198 26.032777879509247 25.966855887200147 25.922907892327412 25.835011902581943 25.791063907709212 25.769089910272843 25.747115912836477 25.72514191540011 25.703167917963743 25.703167917963743 25.65921992309101 25.637245925654643 25.637245925654643 25.615271928218274 25.615271928218274 25.593297930781908 25.593297930781908 25.571323933345543 25.549349935909174 25.527375938472808 25.483427943600073 25.461453946163708 25.43947994872734 25.43947994872734 25.417505951290973 25.395531953854604 25.37355795641824 25.35158395898187 25.329609961545504 25.329609961545504 25.30763596410914 25.28566196667277 25.28566196667277 25.263687969236404 25.241713971800035 25.241713971800035 25.21973997436367 25.21973997436367 25.21973997436367 25.197765976927304 25.175791979490935 25.175791979490935 25.15381798205457 25.15381798205457 25.1318439846182 25.109869987181835 25.109869987181835 25.109869987181835 25.109869987181835 25.109869987181835 25.08789598974547 25.109869987181835 25.08789598974547 25.08789598974547 25.08789598974547 25.08789598974547 25.08789598974547 25.08789598974547 25.08789598974547 25.08789598974547 25.08789598974547 25.08789598974547 25.08789598974547 25.08789598974547 25.0659219923091 25.08789598974547 25.08789598974547 25.08789598974547 25.08789598974547 25.08789598974547 25.08789598974547 25.0659219923091 25.0659219923091 25.08789598974547 25.08789598974547 25.08789598974547 25.0659219923091 25.0659219923091 25.08789598974547 25.0659219923091 25.0659219923091 25.0659219923091 25.0659219923091 25.0659219923091 25.0659219923091 25.0659219923091 25.0659219923091 25.0659219923091 25.0659219923091 25.0659219923091 25.043947994872735 25.043947994872735 25.043947994872735 25.043947994872735 25.021973997436366 25.043947994872735 25.021973997436366 25.021973997436366 25.021973997436366 25.021973997436366 25.021973997436366 25.021973997436366 25.021973997436366 25.021973997436366 25.021973997436366 25.021973997436366 25.021973997436366 25.021973997436366 25.021973997436366 25.021973997436366 25.021973997436366 25.021973997436366 25.021973997436366 25.021973997436366 25.021973997436366 25.021973997436366 25.021973997436366 25.021973997436366 25.0 25.021973997436366 25.021973997436366 25.021973997436366 25.021973997436366 25.0 25.021973997436366 25.0 25.0 25.0 25.0 25.0 25.0 25.0 25.0 25.0 25.0 25.0 25.0 25.0 25.0 25.0 25.0 25.0 25.0 25.0 24.978026002563634 25.0 25.0 25.0 25.0 25.0 25.0 25.0 25.0 25.0 25.0 25.0 25.0 25.0 25.0 25.0 25.0 25.0 25.0 25.0 25.0 25.0 25.0 25.0 25.0 25.0 25.0 25.0 25.0 25.0 25.0 25.0 25.0 25.0 25.0 25.0 25.0 25.0 25.0 25.0 25.0 25.0 25.0 25.0 25.0 25.0 24.978026002563634 25.0 25.0 25.0 24.978026002563634 25.0 25.0 25.0 25.0 25.0 25.0 25.0 25.0 25.0 25.0 25.0 25.0 25.0 25.0 25.021973997436366 25.021973997436366 25.021973997436366 25.021973997436366 25.043947994872735 25.043947994872735 25.043947994872735 25.0659219923091 25.08789598974547 25.109869987181835 25.15381798205457 25.197765976927304 25.28566196667277 25.37355795641824 25.43947994872734 25.593297930781908 25.72514191540011 25.900933894891047 26.01080388207288 26.120673869254716 26.29646584874565 26.42830983336385 26.538179820545686 26.757919794909355 26.88976377952756 26.97765976927303 27.065555759018494 27.241347738509432 27.768723676982237 28.09833363852774 28.669657571873284 29.350851492400658 30.097967405237135 30.647317341146312 31.50430324116462 32.16352316425563 33.020509064273945 33.92144295916499 34.53671488738326 35.39370078740157 36.22871268998352 36.778062625892694 37.54715253616554 38.07452847463834 38.79967039003846 39.5028383080022 40.206006225965936 40.75535616187511 41.45852407983885 42.24958798754807 42.842885918329976 43.348287859366415 44.51290972349386 45.36989562351218 45.985167551730456 46.908075444057864 47.50137337483977 48.42428126716719 49.676799121040105 50.072331074894706 50.92931697491302 51.89617286211316 52.51144479033144 53.434352682658854 54.42318256729537 55.06042849295001 56.07123237502289 56.7304522981139 57.71928218275041 58.68613806995056 59.674967954587075 60.61984984435085 61.25709577000549 62.18000366233291 63.058963559787585 63.608313495696756 64.5092473905878 65.34425929316976 65.91558322651528 66.75059512909723 67.34389305987915 68.17890496246109 69.1018128547885 69.65116279069767 70.46420069584326 71.2992125984252 71.84856253433438 72.90331441127998 73.40871635231643 74.15583226515291 74.90294817798939 75.23255813953489 75.80388207288043 76.41915400109869 77.0124519318806 77.56180186778978 77.91338582677164 78.4187877678081 78.90221571140816 79.18787767808094 79.69327961911739 80.11078557040835 80.44039553195387 80.81395348837209 81.09961545504487 81.51712140633583 82.00054934993591 82.15436733199049 82.50595129097235 82.72569126533602 83.0772752243179 83.42885918329976 83.64859915766343 84.08807910639078 84.3957150704999 84.54953305255447 84.81322102179088 85.03296099615454 85.3405969602637 85.6702069218092 85.82402490386376 86.04376487822742 86.19758286028201 86.28547885002747 86.37337483977294 86.3953488372093 86.41732283464567 86.43929683208204 86.41732283464567 86.43929683208204 86.41732283464567 86.41732283464567 86.41732283464567 86.41732283464567 86.41732283464567 86.41732283464567 86.41732283464567 86.41732283464567 86.41732283464567 86.41732283464567 86.41732283464567 86.37337483977294 86.35140084233657 86.32942684490021 86.30745284746384 86.28547885002747 86.28547885002747 86.2635048525911 86.24153085515474 86.24153085515474 86.24153085515474 86.24153085515474 86.24153085515474 86.24153085515474 86.24153085515474 86.24153085515474 86.24153085515474 86.21955685771837 86.17560886284564 86.1316608679729 86.08771287310017 86.04376487822742 85.9998168833547 85.95586888848196 85.9338948910456 85.9338948910456 85.91192089360922 85.88994689617286 85.8679728987365 85.82402490386376 85.8020509064274 85.75810291155466 85.7361289141183 85.71415491668193 85.69218091924556 85.69218091924556 85.64823292437282 85.62625892693646 85.56033693462736 85.538362937191 85.538362937191 85.51638893975462 85.538362937191 85.51638893975462 85.538362937191 85.51638893975462 85.51638893975462 85.49441494231826 85.4724409448819 85.45046694744553 85.4065189525728 85.38454495513642 85.36257095770006 85.31862296282733 85.29664896539094 85.23072697308186 85.2087529756455 85.18677897820913 85.16480498077274 85.16480498077274 85.14283098333638 85.14283098333638 85.14283098333638 85.14283098333638 85.14283098333638 85.14283098333638 85.14283098333638 85.12085698590002 85.09888298846366 85.05493499359092 85.05493499359092 85.03296099615454 84.98901300128182 84.98901300128182 84.96703900384546 84.94506500640908 84.92309100897272 84.92309100897272 84.90111701153634 84.90111701153634 84.87914301409998 84.87914301409998 84.87914301409998 84.83519501922726 84.81322102179088 84.76927302691814 84.72532503204542 84.68137703717268 84.65940303973632 84.63742904229994 84.59348104742722 84.59348104742722 84.57150704999086 84.57150704999086 84.54953305255447 84.54953305255447 84.57150704999086 84.54953305255447 84.54953305255447 84.54953305255447 84.5275590551181 84.50558505768174 84.48361106024538 84.46163706280902 84.46163706280902 84.46163706280902 84.46163706280902 84.43966306537266 84.43966306537266 84.43966306537266 84.43966306537266 84.43966306537266 84.43966306537266 84.41768906793627 84.41768906793627 84.41768906793627 84.41768906793627 84.3957150704999 84.37374107306354 84.3297930781908 84.28584508331807 84.2638710858817 84.21992309100898 84.1979490935726 84.17597509613624 84.15400109869987 84.1320271012635 84.1320271012635 84.11005310382714 84.11005310382714 84.11005310382714 84.11005310382714 84.08807910639078 84.0661051089544 84.04413111151804 84.0001831166453 83.9342611243362 83.91228712689984 83.89031312946346 83.8683391320271 83.84636513459074 83.84636513459074 83.82439113715438 83.82439113715438 83.84636513459074 83.84636513459074 83.84636513459074 83.84636513459074 83.84636513459074 83.84636513459074 83.84636513459074 83.82439113715438 83.802417139718 83.78044314228164 83.75846914484526 83.7364951474089 83.69254715253618 83.64859915766343 83.62662516022706 83.6046511627907 83.6046511627907 83.56070316791798 83.51675517304523 83.4728071781725 83.36293719099066 83.27504120124519 83.23109320637246 83.16517121406336 83.12122321919063 83.0772752243179 83.03332722944516 83.01135323200879 83.01135323200879 82.98937923457243 82.98937923457243 82.98937923457243 82.98937923457243 82.96740523713606 82.9454312396997 82.92345724226331 82.92345724226331 82.87950924739059 82.85753524995422 82.8135872550815 82.8135872550815 82.76963926020875 82.72569126533602 82.72569126533602 82.68174327046329 82.65976927302691 82.65976927302691 82.63779527559055 82.63779527559055 82.61582127815419 82.59384728071782 82.54989928584509 82.50595129097235 82.44002929866325 82.39608130379051 82.30818531404505 82.24226332173595 82.13239333455411 82.00054934993591 81.95660135506317 81.89067936275407 81.82475737044497 81.80278337300861 81.80278337300861 81.78080937557223 81.75883537813587 81.73686138069951 81.73686138069951 81.69291338582677 81.64896539095403 81.62699139351767 81.58304339864495 81.56106940120857 81.51712140633583 81.42922541659037 81.38527742171763 81.2754074345358 81.20948544222671 81.0776414576085 80.90184947811755 80.70408350119027 80.55026551913569 80.19868156015382 80.00091558322652 79.78117560886285 79.5394616370628 78.99011170115364 78.50668375755356 78.17707379600806 77.62772386009888 77.05639992675334 76.6828419703351 76.11151803698957 75.73796008057133 75.21058414209853 74.72715619849845 74.39754623695293 73.7603003112983 73.27687236769822 73.12305438564366 72.61765244460722 72.26606848562534 71.73869254715254 71.18934261124336 70.63999267533418 70.04669474455227 69.431422816334 68.99194286760667 68.55246291887933 68.09100897271563 67.1681010803882 66.4429591649881 65.9815052188244 65.27833730086064 64.59714338033328 64.15766343160593 63.652261490569494 63.080937557223955 62.46566562900568 61.82841970335103 61.41091375206006 60.81761582127815 60.004577916132575 59.587071964841606 59.16956601355063 58.75206006225966 58.11481413660502 57.47756821095037 57.038088262223035 56.13715436733199 55.47793444424098 55.06042849295001 54.57700054934993 54.18146859549533 53.54422266984069 52.66526277238601 52.2038088262223 51.50064090825856 51.01721296465848 50.314045046694744 49.588903131294636 49.105475187694566 48.38033327229445 47.65519135689434 47.1497894158579 46.424647500457795 45.94121955685772 45.12818165171214 44.6887017029848 44.33711774400293 43.765793810657385 43.238417872184584 42.88683391320271 42.35945797472991 41.85405603369347 41.37062809009339 40.90917414392968 40.55759018494781 40.118110236220474 39.678630287493135 39.41494231825673 38.97546236952939 38.68980040285662 38.29426844900202 37.89873649514741 37.65702252334737 37.3054385643655 36.931880607947264 36.690166636147225 36.338582677165356 36.07489470792895 35.65738875663798 35.0421168284197 34.75645486174693 34.40487090276506 33.877494964292254 33.39406702069218 32.88866507965574 32.646951107855706 32.03167917963743 31.57022523347372 31.24061527192822 30.801135323200878 30.317707379600805 30.010071415491666 29.570591466764327 29.240981505218826 28.801501556491484 28.34004761032778 28.076359641091376 27.702801684673137 27.461087712873102 27.373191723127633 27.219373741073063 27.17542574620033 27.10950375389123 27.087529756454863 27.04358176158213 27.02160776414576 26.999633766709394 26.95568577183666 26.933711774400294 26.911737776963925 26.845815784654825 26.80186778978209 26.757919794909355 26.67002380516389 26.60410181285479 26.494231825672955 26.38436183849112 26.274491851309286 26.14264786669108 25.922907892327412 25.813037905145578 25.703167917963743 25.681193920527377 25.65921992309101 25.681193920527377 25.681193920527377 25.681193920527377 25.65921992309101 25.65921992309101 25.65921992309101 25.637245925654643 25.615271928218274 25.615271928218274 25.615271928218274 25.593297930781908 25.571323933345543 25.549349935909174 25.527375938472808 25.50540194103644 25.461453946163708 25.43947994872734 25.417505951290973 25.37355795641824 25.329609961545504 25.30763596410914 25.30763596410914 25.28566196667277 25.28566196667277 25.263687969236404 25.263687969236404 25.241713971800035 25.21973997436367 25.21973997436367 25.21973997436367 25.21973997436367 25.197765976927304 25.175791979490935 25.175791979490935 25.15381798205457 25.15381798205457 25.15381798205457 25.1318439846182 25.1318439846182 25.109869987181835 25.109869987181835 25.109869987181835 25.109869987181835 25.08789598974547 25.08789598974547 25.08789598974547 25.08789598974547 25.08789598974547 25.08789598974547 25.0659219923091 25.0659219923091 25.0659219923091 25.0659219923091 25.0659219923091 25.0659219923091 25.043947994872735 25.043947994872735 25.043947994872735 25.043947994872735 25.043947994872735 25.043947994872735 25.043947994872735 25.043947994872735 25.043947994872735 25.043947994872735 25.021973997436366 25.021973997436366 25.021973997436366 25.043947994872735 25.021973997436366 25.021973997436366 25.043947994872735 25.021973997436366 25.021973997436366 25.021973997436366 25.021973997436366 25.021973997436366 25.021973997436366 25.021973997436366 25.021973997436366 25.021973997436366 25.021973997436366 25.021973997436366 25.021973997436366 25.021973997436366 25.021973997436366 25.021973997436366 25.021973997436366 25.021973997436366 25.021973997436366 25.021973997436366 25.0 25.0 25.0 25.0 25.0 25.0 25.0 25.0 25.0 25.0 25.0 25.0 25.0 25.0 25.0 25.0 25.0 25.0 25.0 25.0 25.0 25.0 25.0 25.0 25.0 25.0 25.0 25.0 25.0 24.978026002563634 24.978026002563634 25.0 25.0 25.0 24.978026002563634 25.0 25.0 25.0 25.0 25.0 24.978026002563634 24.978026002563634 24.978026002563634 24.978026002563634 25.0 24.978026002563634 25.0 24.978026002563634 24.978026002563634 24.978026002563634 24.978026002563634 25.0 24.978026002563634 24.978026002563634 24.978026002563634 24.978026002563634 24.978026002563634 24.978026002563634 24.978026002563634 24.978026002563634 24.978026002563634 24.978026002563634 25.0 24.978026002563634 24.978026002563634 24.978026002563634 24.978026002563634 24.978026002563634 24.978026002563634 24.978026002563634 24.978026002563634 24.978026002563634 24.978026002563634 24.978026002563634 24.978026002563634 24.978026002563634 24.978026002563634 24.978026002563634 24.978026002563634 24.978026002563634 24.978026002563634 24.978026002563634 24.978026002563634 24.978026002563634 24.978026002563634 24.978026002563634 24.978026002563634 24.978026002563634 24.978026002563634 24.978026002563634 24.978026002563634 24.978026002563634 24.978026002563634 24.978026002563634 24.978026002563634 24.978026002563634 24.978026002563634 24.978026002563634 24.978026002563634 24.978026002563634 24.978026002563634 24.978026002563634 24.978026002563634 24.978026002563634 24.978026002563634 24.978026002563634 24.956052005127265 24.978026002563634 24.978026002563634 24.956052005127265 24.978026002563634 24.978026002563634 24.956052005127265 24.956052005127265 24.956052005127265 24.978026002563634 24.956052005127265 24.956052005127265 24.956052005127265 24.956052005127265 24.956052005127265 24.956052005127265 24.956052005127265 24.956052005127265 24.956052005127265 24.956052005127265 24.956052005127265 24.956052005127265 24.956052005127265 24.956052005127265 24.956052005127265 24.956052005127265 24.956052005127265 24.956052005127265 24.956052005127265 24.956052005127265 24.956052005127265 24.956052005127265 24.956052005127265 24.956052005127265 24.956052005127265 24.956052005127265 24.956052005127265 24.956052005127265 24.956052005127265 24.956052005127265 24.956052005127265 24.956052005127265 24.956052005127265 24.956052005127265 24.956052005127265 24.956052005127265 24.956052005127265 24.956052005127265 24.956052005127265 24.956052005127265 24.956052005127265 24.956052005127265 24.956052005127265 24.956052005127265 24.956052005127265 24.956052005127265 24.956052005127265 24.956052005127265 24.978026002563634 24.978026002563634 24.978026002563634 25.0 25.0 25.0 25.0 25.0 25.021973997436366 25.021973997436366 25.043947994872735 25.0659219923091 25.109869987181835 25.175791979490935 25.21973997436367 25.329609961545504 25.43947994872734 25.50540194103644 25.637245925654643 25.703167917963743 25.835011902581943 25.944881889763778 26.01080388207288 26.07672587438198 26.120673869254716 26.208569859000182 26.274491851309286 26.318439846182017 26.494231825672955 26.648049807727524 26.779893792345725 27.02160776414576 27.263321735945798 27.592931697491302 28.010437648782275 28.27412561801868 28.69163156930965 29.153085515473357 29.460721479582496 30.14191540010987 30.493499359091743 31.020875297564547 31.37245925654642 31.72404321552829 32.27339315143747 32.97656106940121 33.350119025819446 33.92144295916499 34.29500091558323 34.86632484892877 35.43764878227431 35.65738875663798 36.44845266434719 37.063724592565464 37.45925654642007 38.11847646951108 38.53598242080205 39.12928035158396 39.986266251602274 40.381798205456874 40.90917414392968 41.56839406702069 42.05182201062077 42.776963926020876 43.282365867057315 44.3590917414393 45.21607764145761 45.78740157480315 46.402673503021425 47.1497894158579 47.72111334920344 48.77586522614906 49.303241164621866 50.094305072331075 50.84142098516755 51.149056949276684 52.22578282365867 53.08276872367698 53.698040651895255 54.57700054934993 55.23622047244095 56.13715436733199 57.08203625709577 57.78520417505951 58.66416407251419 59.301409998168836 60.290239882805345 61.23512177256912 61.89434169566014 63.16883354696942 64.1137154367332 64.75096136238784 65.41018128547884 66.06940120856986 67.23402307269731 67.84929500091559 68.77220289324299 69.67313678813403 70.53012268815235 71.167368613807 71.95843252151622 72.48580845998902 73.2329243728255 73.95806628822561 74.41952023438931 75.07874015748033 75.6940120856986 76.11151803698957 76.6828419703351 77.05639992675334 77.60574986266252 78.13312580113532 78.6824757370445 79.03405969602638 79.71525361655375 80.06683757553562 80.41842153451748 80.87987548068119 81.29738143197216 81.67093938839041 81.89067936275407 82.19831532686322 82.41805530122689 82.61582127815419 82.72569126533602 82.8135872550815 82.90148324482695 83.01135323200879 83.0772752243179 83.16517121406336 83.25306720380883 83.29701519868156 83.45083318073613 83.58267716535434 83.78044314228164 84.04413111151804 84.15400109869987 84.30781908075444 84.41768906793627 84.48361106024538 84.54953305255447 84.59348104742722 84.65940303973632 84.68137703717268 84.68137703717268 84.68137703717268 84.68137703717268 84.68137703717268 84.68137703717268 84.68137703717268 84.68137703717268 84.68137703717268 84.68137703717268 84.68137703717268 84.68137703717268 84.68137703717268 84.68137703717268 84.65940303973632 84.65940303973632 84.63742904229994 84.63742904229994 84.63742904229994 84.63742904229994 84.61545504486358 84.61545504486358 84.63742904229994 84.63742904229994 84.63742904229994 84.63742904229994 84.63742904229994 84.63742904229994 84.63742904229994 84.63742904229994 84.63742904229994 84.63742904229994 84.63742904229994 84.63742904229994 84.63742904229994 84.63742904229994 84.63742904229994 84.59348104742722 84.59348104742722 84.57150704999086 84.59348104742722 84.57150704999086 84.57150704999086 84.57150704999086 84.57150704999086 84.57150704999086 84.59348104742722 84.59348104742722 84.57150704999086 84.59348104742722 84.57150704999086 84.57150704999086 84.54953305255447 84.50558505768174 84.48361106024538 84.46163706280902 84.46163706280902 84.43966306537266 84.43966306537266 84.43966306537266 84.43966306537266 84.43966306537266 84.43966306537266 84.43966306537266 84.43966306537266 84.43966306537266 84.43966306537266 84.43966306537266 84.43966306537266 84.43966306537266 84.43966306537266 84.3957150704999 84.37374107306354 84.3297930781908 84.28584508331807 84.28584508331807 84.2638710858817 84.2638710858817 84.24189708844534 84.21992309100898 84.1979490935726 84.17597509613624 84.17597509613624 84.15400109869987 84.15400109869987 84.15400109869987 84.1320271012635 84.1320271012635 84.11005310382714 84.08807910639078 84.0661051089544 84.0661051089544 84.0661051089544 84.0661051089544 84.04413111151804 84.0661051089544 84.0661051089544 84.04413111151804 84.04413111151804 84.04413111151804 84.0661051089544 84.04413111151804 84.04413111151804 84.04413111151804 84.04413111151804 84.04413111151804 84.04413111151804 84.04413111151804 84.04413111151804 84.02215711408166 84.02215711408166 84.04413111151804 84.04413111151804 84.04413111151804 84.04413111151804 84.02215711408166 84.02215711408166 84.0001831166453 84.0001831166453 84.0001831166453 83.97820911920894 83.95623512177258 83.9342611243362 83.91228712689984 83.91228712689984 83.89031312946346 83.89031312946346 83.89031312946346 83.89031312946346 83.89031312946346 83.89031312946346 83.89031312946346 83.89031312946346 83.89031312946346 83.89031312946346 83.89031312946346 83.89031312946346 83.89031312946346 83.89031312946346 83.89031312946346 83.8683391320271 83.89031312946346 83.8683391320271 83.8683391320271 83.84636513459074 83.84636513459074 83.82439113715438 83.802417139718 83.78044314228164 83.802417139718 83.78044314228164 83.75846914484526 83.75846914484526 83.75846914484526 83.75846914484526 83.75846914484526 83.75846914484526 83.7364951474089 83.7364951474089 83.71452114997254 83.7364951474089 83.69254715253618 83.69254715253618 83.67057315509979 83.64859915766343 83.64859915766343 83.62662516022706 83.6046511627907 83.6046511627907 83.58267716535434 83.58267716535434 83.58267716535434 83.58267716535434 83.56070316791798 83.56070316791798 83.53872917048159 83.53872917048159 83.49478117560886 83.4728071781725 83.45083318073613 83.45083318073613 83.42885918329976 83.42885918329976 83.40688518586339 83.40688518586339 83.40688518586339 83.40688518586339 83.40688518586339 83.40688518586339 83.40688518586339 83.40688518586339 83.42885918329976 83.40688518586339 83.40688518586339 83.40688518586339 83.40688518586339 83.40688518586339 83.40688518586339 83.40688518586339 83.40688518586339 83.38491118842703 83.36293719099066 83.3409631935543 83.3409631935543 83.31898919611793 83.3409631935543 83.3409631935543 83.3409631935543 83.31898919611793 83.31898919611793 83.31898919611793 83.31898919611793 83.31898919611793 83.29701519868156 83.31898919611793 83.29701519868156 83.31898919611793 83.31898919611793 83.31898919611793 83.31898919611793 83.29701519868156 83.29701519868156 83.27504120124519 83.27504120124519 83.27504120124519 83.27504120124519 83.27504120124519 83.23109320637246 83.2091192089361 83.2091192089361 83.16517121406336 83.14319721662699 83.14319721662699 83.09924922175426 83.0772752243179 83.05530122688153 83.01135323200879 82.98937923457243 82.96740523713606 82.9454312396997 82.92345724226331 82.90148324482695 82.90148324482695 82.87950924739059 82.85753524995422 82.85753524995422 82.8135872550815 82.79161325764511 82.76963926020875 82.70371726789965 82.68174327046329 82.54989928584509 82.44002929866325 82.33015931148142 82.17634132942685 82.06647134224502 81.86870536531771 81.62699139351767 81.45119941402675 81.16553744735396 80.87987548068119 80.68210950375389 80.37447353964475 80.15473356528108 79.78117560886285 79.36366965757188 79.1439296832082 78.72642373191724 78.2869437831899 77.82548983702618 77.51785387291704 77.0783739241897 76.59494598058964 76.0895440395532 75.91375206006227 75.21058414209853 74.70518220106207 74.35359824208021 73.80424830617103 73.45266434718917 72.92528840871636 72.37593847280718 72.00238051638894 71.45303058047976 70.85973264969786 70.44222669840688 69.6951107855704 69.32155282915217 68.94799487273393 68.20087895989745 67.80534700604285 67.45376304706097 67.03625709577 66.5088811572972 66.00347921626076 65.65189525727888 65.12451931880608 64.5751693828969 64.35542940853324 63.586339498260394 62.971067570042116 62.53158762131478 61.87236769822377 61.38893975462369 60.729719831532684 59.82878593664164 59.41127998535067 58.9278520417506 58.48837209302326 57.89507416224135 57.08203625709577 56.686504303241165 56.115180369895626 55.52188243911371 55.10437648782275 54.68687053653177 54.269364585240794 53.588170664713424 52.994872733931516 52.59934078007691 52.02801684673137 51.45669291338582 51.083134956967584 50.48983702618568 50.094305072331075 49.52298113898553 48.95165720563999 48.53415125434902 47.98480131843985 47.193737410730634 46.79820545687603 46.402673503021425 45.96319355429409 45.39186962094854 44.820545687603 44.4250137337484 43.655923823475554 43.08459989013001 42.68906793627541 42.31550997985717 41.94195202343893 41.54642006958433 40.90917414392968 40.601538179820544 40.162058231093205 39.722578282365866 39.4369163156931 39.01941036440212 38.73374839772936 38.29426844900202 37.8328145028383 37.48123054385644 37.063724592565464 36.558322651529025 36.052920710492586 35.70133675151071 35.32777879509247 34.82237685405603 34.31697491301959 33.98736495147409 33.306171030946714 32.82274308734664 32.47115912836477 32.14154916681926 31.833913202710125 31.328511261673686 30.911005310382713 30.625343343709943 30.20783739241897 29.944149423182566 29.570591466764327 29.175059512909723 28.91137154367332 28.515839589818714 28.05438564365501 27.74674967954587 27.505035707745833 27.417139718000367 27.285295733382164 27.17542574620033 27.10950375389123 27.065555759018494 27.02160776414576 26.999633766709394 26.95568577183666 26.933711774400294 26.911737776963925 26.88976377952756 26.845815784654825 26.779893792345725 26.713971800036624 26.67002380516389 26.626075810291155 26.58212781541842 26.538179820545686 26.472257828236586 26.42830983336385 26.38436183849112 26.318439846182017 26.252517853872916 26.164621864127447 26.120673869254716 26.032777879509247 25.966855887200147 25.900933894891047 25.813037905145578 25.769089910272843 25.747115912836477 25.72514191540011 25.72514191540011 25.747115912836477 25.72514191540011 25.72514191540011 25.72514191540011 25.703167917963743 25.703167917963743 25.681193920527377 25.65921992309101 25.637245925654643 25.637245925654643 25.615271928218274 25.593297930781908 25.571323933345543 25.571323933345543 25.571323933345543 25.549349935909174 25.549349935909174 25.527375938472808 25.527375938472808 25.50540194103644 25.50540194103644 25.483427943600073 25.483427943600073 25.461453946163708 25.461453946163708 25.461453946163708 25.461453946163708 25.43947994872734 25.43947994872734 25.43947994872734 25.43947994872734 25.43947994872734 25.417505951290973 25.417505951290973 25.417505951290973 25.395531953854604 25.395531953854604 25.395531953854604 25.37355795641824 25.37355795641824 25.37355795641824 25.35158395898187 25.35158395898187 25.35158395898187 25.35158395898187 25.329609961545504 25.30763596410914 25.30763596410914 25.28566196667277 25.28566196667277 25.28566196667277 25.263687969236404 25.263687969236404 25.263687969236404 25.263687969236404 25.263687969236404 25.263687969236404 25.241713971800035 25.263687969236404 25.263687969236404 25.241713971800035 25.241713971800035 25.241713971800035 25.241713971800035 25.241713971800035 25.241713971800035 25.241713971800035 25.241713971800035 25.21973997436367 25.21973997436367 25.21973997436367 25.21973997436367 25.21973997436367 25.21973997436367 25.21973997436367 25.21973997436367 25.21973997436367 25.21973997436367 25.197765976927304 25.197765976927304 25.197765976927304 25.21973997436367 25.197765976927304 25.21973997436367 25.197765976927304 25.197765976927304 25.197765976927304 25.197765976927304 25.197765976927304 25.197765976927304 25.197765976927304 25.197765976927304 25.197765976927304 25.197765976927304 25.197765976927304 25.197765976927304 25.197765976927304 25.197765976927304 25.197765976927304 25.197765976927304 25.175791979490935 25.197765976927304 25.197765976927304 25.197765976927304 25.175791979490935 25.175791979490935 25.197765976927304 25.175791979490935 25.175791979490935 25.175791979490935 25.175791979490935 25.175791979490935 25.175791979490935 25.175791979490935 25.175791979490935 25.175791979490935 25.175791979490935 25.175791979490935 25.175791979490935 25.15381798205457 25.15381798205457 25.15381798205457 25.15381798205457 25.175791979490935 25.175791979490935 25.15381798205457 25.175791979490935 25.175791979490935 25.15381798205457 25.175791979490935 25.15381798205457 25.15381798205457 25.15381798205457 25.15381798205457 25.15381798205457 25.15381798205457 25.15381798205457 25.15381798205457 25.15381798205457 25.15381798205457 25.15381798205457 25.15381798205457 25.175791979490935 25.15381798205457 25.15381798205457 25.15381798205457 25.15381798205457 25.15381798205457 25.15381798205457 25.15381798205457 25.15381798205457 25.15381798205457 25.15381798205457 25.15381798205457 25.15381798205457 25.15381798205457 25.15381798205457 25.15381798205457 25.15381798205457 25.15381798205457 25.15381798205457 25.15381798205457 25.15381798205457 25.1318439846182 25.1318439846182 25.1318439846182 25.1318439846182 25.1318439846182 25.1318439846182 25.1318439846182 25.1318439846182 25.1318439846182 25.1318439846182 25.1318439846182 25.1318439846182 25.1318439846182 25.1318439846182 25.1318439846182 25.1318439846182 25.1318439846182 25.1318439846182 25.1318439846182 25.1318439846182 25.1318439846182 25.1318439846182 25.1318439846182 25.1318439846182 25.1318439846182 25.1318439846182 25.1318439846182 25.1318439846182 25.1318439846182 25.1318439846182 25.1318439846182 25.109869987181835 25.1318439846182 25.1318439846182 25.109869987181835 25.1318439846182 25.1318439846182 25.109869987181835 25.109869987181835 25.109869987181835 25.109869987181835 25.109869987181835 25.109869987181835 25.109869987181835 25.109869987181835 25.109869987181835 25.109869987181835 25.109869987181835 25.109869987181835 25.109869987181835 25.109869987181835 25.109869987181835 25.109869987181835 25.109869987181835 25.109869987181835 25.109869987181835 25.109869987181835 25.109869987181835 25.109869987181835 25.109869987181835 25.109869987181835 25.109869987181835 25.109869987181835 25.109869987181835 25.109869987181835 25.109869987181835 25.109869987181835 25.109869987181835 25.109869987181835 25.109869987181835 25.109869987181835 25.109869987181835 25.109869987181835 25.109869987181835 25.109869987181835 25.109869987181835 25.109869987181835 25.1318439846182 25.1318439846182 25.1318439846182 25.1318439846182 25.15381798205457 25.175791979490935 25.175791979490935 25.21973997436367 25.263687969236404 25.28566196667277 25.37355795641824 25.43947994872734 25.593297930781908 25.72514191540011 25.791063907709212 26.032777879509247 26.252517853872916 26.38436183849112 26.58212781541842 26.713971800036624 26.911737776963925 27.087529756454863 27.219373741073063 27.483061710309467 27.68082768723677 28.09833363852774 28.603735579564184 28.84544955136422 29.131111518036988 29.658487456509796 29.8562534334371 30.22981138985534 30.537447353964474 31.130745284746382 31.59219923091009 31.921809192455594 32.47115912836477 32.97656106940121 33.372093023255815 33.943416956601354 34.36092290789233 34.9102728438015 35.50357077458341 35.921076725874386 36.492400659219925 37.129646584874564 37.5691265336019 38.22834645669291 38.73374839772936 39.5028383080022 40.55759018494781 41.084966123420614 41.89800402856619 42.53524995422084 43.348287859366415 43.941585790148324 44.53488372093023 45.76542757736678 46.688335469694195 47.391503387657934 48.29243728254899 49.2153451748764 49.874565097967405 50.84142098516755 51.45669291338582 52.3356528108405 53.192638710858816 53.720014649331624 54.48910455960447 55.54385643655009 56.400842336568395 56.70847830067753 57.45559421351401 58.00494414942318 59.08167002380517 59.652993957150706 60.46603186229628 61.34499175975096 61.96026368796924 62.53158762131478 63.124885552096686 64.26753341878776 65.08057132393334 65.717817249588 66.4429591649881 66.99230910089727 67.76139901117011 68.61838491118843 69.14576084966123 69.91485075993407 70.70591466764328 71.2332906061161 71.95843252151622 72.4198864676799 73.34279436000733 73.84819630104377 74.28767624977111 74.88097418055301 75.47427211133493 75.86980406518953 76.616919978026 76.99047793444424 77.49587987548068 77.82548983702618 78.0891778062626 78.63852774217176 79.01208569859 79.2757736678264 79.62735762680828 79.84709760117195 80.17670756271745 80.48434352682659 80.68210950375389 80.9457974729903 81.16553744735396 81.29738143197216 81.47317341146311 81.56106940120857 81.71488738326315 81.78080937557223 81.78080937557223 81.78080937557223 81.80278337300861 81.78080937557223 81.78080937557223 81.75883537813587 81.73686138069951 81.73686138069951 81.71488738326315 81.69291338582677 81.67093938839041 81.64896539095403 81.64896539095403 81.64896539095403 81.64896539095403 81.64896539095403 81.64896539095403 81.62699139351767 81.60501739608131 81.60501739608131 81.60501739608131 81.60501739608131 81.60501739608131 81.60501739608131 81.60501739608131 81.60501739608131 81.58304339864495 81.60501739608131 81.60501739608131 81.60501739608131 81.64896539095403 81.69291338582677 81.71488738326315 81.78080937557223 81.80278337300861 81.82475737044497 81.86870536531771 81.91265336019043 81.91265336019043 81.93462735762681 81.91265336019043 81.91265336019043 81.91265336019043 81.91265336019043 81.91265336019043 81.89067936275407 81.89067936275407 81.89067936275407 81.89067936275407 81.89067936275407 81.86870536531771 81.82475737044497 81.82475737044497 81.80278337300861 81.78080937557223 81.75883537813587 81.73686138069951 81.73686138069951 81.71488738326315 81.71488738326315 81.69291338582677 81.69291338582677 81.67093938839041 81.64896539095403 81.62699139351767 81.60501739608131 81.58304339864495 81.56106940120857 81.53909540377221 81.53909540377221 81.53909540377221 81.53909540377221 81.53909540377221 81.51712140633583 81.51712140633583 81.47317341146311 81.45119941402675 81.42922541659037 81.40725141915401 81.38527742171763 81.36330342428127 81.34132942684491 81.31935542940855 81.25343343709943 81.23145943966307 81.20948544222671 81.18751144479035 81.18751144479035 81.16553744735396 81.16553744735396 81.18751144479035 81.20948544222671 81.18751144479035 81.16553744735396 81.1435634499176 81.1435634499176 81.12158945248123 81.12158945248123 81.12158945248123 81.12158945248123 81.12158945248123 81.12158945248123 81.12158945248123 81.12158945248123 81.12158945248123 81.12158945248123 81.09961545504487 81.09961545504487 81.12158945248123 81.09961545504487 81.09961545504487 81.0776414576085 81.05566746017213 81.0117194652994 80.98974546786303 80.96777147042667 80.96777147042667 80.96777147042667 80.96777147042667 80.96777147042667 80.96777147042667 80.96777147042667 80.96777147042667 80.96777147042667 80.96777147042667 80.96777147042667 80.96777147042667 80.96777147042667 80.96777147042667 80.96777147042667 80.9457974729903 80.9457974729903 80.92382347555393 80.90184947811755 80.90184947811755 80.90184947811755 80.90184947811755 80.90184947811755 80.90184947811755 80.90184947811755 80.90184947811755 80.87987548068119 80.87987548068119 80.85790148324483 80.83592748580847 80.81395348837209 80.79197949093573 80.74803149606299 80.72605749862663 80.68210950375389 80.66013550631753 80.66013550631753 80.63816150888115 80.66013550631753 80.63816150888115 80.66013550631753 80.66013550631753 80.66013550631753 80.66013550631753 80.66013550631753 80.66013550631753 80.66013550631753 80.63816150888115 80.63816150888115 80.61618751144479 80.57223951657207 80.52829152169933 80.50631752426295 80.46236952939023 80.44039553195387 80.41842153451748 80.41842153451748 80.39644753708112 80.39644753708112 80.39644753708112 80.39644753708112 80.39644753708112 80.41842153451748 80.39644753708112 80.41842153451748 80.41842153451748 80.41842153451748 80.41842153451748 80.41842153451748 80.41842153451748 80.41842153451748 80.41842153451748 80.41842153451748 80.41842153451748 80.41842153451748 80.41842153451748 80.41842153451748 80.41842153451748 80.41842153451748 80.41842153451748 80.41842153451748 80.41842153451748 80.41842153451748 80.41842153451748 80.41842153451748 80.41842153451748 80.39644753708112 80.41842153451748 80.41842153451748 80.41842153451748 80.41842153451748 80.44039553195387 80.44039553195387 80.44039553195387 80.44039553195387 80.46236952939023 80.46236952939023 80.46236952939023 80.46236952939023 80.48434352682659 80.46236952939023 80.46236952939023 80.44039553195387 80.41842153451748 80.37447353964475 80.33052554477202 80.22065555759019 80.06683757553562 80.00091558322652 79.75920161142648 79.671305621681 79.47353964475371 79.18787767808094 78.99011170115364 78.6824757370445 78.19904779344444 77.93535982420804 77.49587987548068 77.18824391137156 76.72678996520784 76.24336202160777 76.06757004211683 75.38637612158945 74.88097418055301 74.52939022157113 73.95806628822561 73.60648232924373 72.85936641640725 72.48580845998902 72.11225050357078 71.58487456509798 71.01355063175242 70.66196667277055 69.91485075993407 69.51931880607947 69.01391686504303 68.59641091375207 68.24482695477019 67.62955502655191 66.86046511627907 66.46493316242447 65.89360922907892 65.52005127266068 64.97070133675152 64.4433253982787 64.09174143929684 63.564365500824024 63.10291155466032 62.773301593114816 62.31184764695111 61.9822376854056 61.5207837392419 60.83958981871452 60.597875846914484 60.070499908441676 59.652993957150706 59.01574803149606 58.35652810840505 57.65336019044131 56.950192272477565 56.22505035707746 55.93938839040469 55.30214246475005 54.84068851858634 54.22541659036806 53.390404687786116 52.97289873649515 52.40157480314961 51.8741988646768 51.52261490569492 50.99523896722212 50.643655008240245 50.182201062076544 49.654825123603736 49.303241164621866 48.79783922358543 48.05072331074895 47.67716535433071 47.30360739791247 46.86412744918513 46.33675151071232 45.76542757736678 45.36989562351218 44.33711774400293 43.96355978758469 43.590001831166454 43.260391869620946 42.82091192089361 42.44735396447537 42.13971800036623 41.91997802600257 41.61234206189343 41.34865409265702 41.15088811572972 40.79930415674785 40.55759018494781 40.206006225965936 39.7665262772386 39.458890313129466 38.99743636696576 38.49203442592932 38.16242446438381 37.7009705182201 37.393334554110965 36.931880607947264 36.360556674601725 36.07489470792895 35.81120673869255 35.37172678996521 35.13001281816517 34.93224684123787 34.62461087712873 34.36092290789233 34.09723493865592 33.92144295916499 33.635780992492215 33.438015015564915 33.108405054019414 32.75682109503754 32.49313312580114 32.185497161692 31.833913202710125 31.614173228346456 31.196667277055482 31.020875297564547 30.757187328328143 30.603369346273574 30.44955136421901 30.22981138985534 29.9221754257462 29.76835744369163 29.526643471891596 29.372825489837027 29.153085515473357 28.999267533418788 28.77952755905512 28.55978758469145 28.31807361289141 28.142281633400476 27.922541659036806 27.856619666727706 27.74674967954587 27.658853689800402 27.636879692364037 27.592931697491302 27.548983702618568 27.548983702618568 27.505035707745833 27.505035707745833 27.461087712873102 27.417139718000367 27.395165720564 27.329243728254898 27.241347738509432 27.153451748763963 27.02160776414576 26.95568577183666 26.845815784654825 26.713971800036624 26.648049807727524 26.538179820545686 26.472257828236586 26.42830983336385 26.38436183849112 26.36238784105475 26.340413843618386 26.318439846182017 26.318439846182017 26.29646584874565 26.274491851309286 26.23054385643655 26.208569859000182 26.186595861563816 26.120673869254716 26.098699871818347 26.07672587438198 26.032777879509247 26.032777879509247 26.01080388207288 25.966855887200147 25.944881889763778 25.922907892327412 25.900933894891047 25.878959897454678 25.856985900018312 25.856985900018312 25.835011902581943 25.813037905145578 25.813037905145578 25.791063907709212 25.769089910272843 25.747115912836477 25.747115912836477 25.747115912836477 25.747115912836477 25.72514191540011 25.72514191540011 25.703167917963743 25.681193920527377 25.681193920527377 25.681193920527377 25.681193920527377 25.681193920527377 25.681193920527377 25.65921992309101 25.65921992309101 25.65921992309101 25.65921992309101 25.637245925654643 25.65921992309101 25.637245925654643 25.637245925654643 25.615271928218274 25.615271928218274 25.593297930781908 25.593297930781908 25.571323933345543 25.571323933345543 25.549349935909174 25.527375938472808 25.527375938472808 25.527375938472808 25.50540194103644 25.50540194103644 25.50540194103644 25.50540194103644 25.483427943600073 25.483427943600073 25.483427943600073 25.461453946163708 25.461453946163708 25.461453946163708 25.461453946163708 25.461453946163708 25.461453946163708 25.43947994872734 25.43947994872734 25.43947994872734 25.43947994872734 25.417505951290973 25.417505951290973 25.417505951290973 25.417505951290973 25.417505951290973 25.417505951290973 25.417505951290973 25.417505951290973 25.417505951290973 25.417505951290973 25.417505951290973 25.417505951290973 25.417505951290973 25.417505951290973 25.417505951290973 25.395531953854604 25.395531953854604 25.417505951290973 25.395531953854604 25.395531953854604 25.395531953854604 25.395531953854604 25.395531953854604 25.395531953854604 25.395531953854604 25.395531953854604 25.395531953854604 25.395531953854604 25.37355795641824 25.395531953854604 25.37355795641824 25.37355795641824 25.37355795641824 25.37355795641824 25.37355795641824 25.37355795641824 25.37355795641824 25.37355795641824 25.37355795641824 25.37355795641824 25.37355795641824 25.37355795641824 25.37355795641824 25.37355795641824 25.35158395898187 25.35158395898187 25.37355795641824 25.35158395898187 25.35158395898187 25.35158395898187 25.35158395898187 25.35158395898187 25.35158395898187 25.329609961545504 25.35158395898187 25.329609961545504 25.329609961545504 25.329609961545504 25.329609961545504 25.329609961545504 25.329609961545504 25.329609961545504 25.329609961545504 25.30763596410914 25.329609961545504 25.30763596410914 25.329609961545504 25.329609961545504 25.329609961545504 25.329609961545504 25.30763596410914 25.329609961545504 25.30763596410914 25.30763596410914 25.30763596410914 25.30763596410914 25.30763596410914 25.30763596410914 25.30763596410914 25.30763596410914 25.30763596410914 25.30763596410914 25.30763596410914 25.30763596410914 25.30763596410914 25.30763596410914 25.28566196667277 25.28566196667277 25.28566196667277 25.28566196667277 25.28566196667277 25.28566196667277 25.28566196667277 25.28566196667277 25.28566196667277 25.28566196667277 25.28566196667277 25.28566196667277 25.28566196667277 25.28566196667277 25.28566196667277 25.28566196667277 25.28566196667277 25.28566196667277 25.28566196667277 25.28566196667277 25.28566196667277 25.28566196667277 25.28566196667277 25.28566196667277 25.28566196667277 25.28566196667277 25.28566196667277 25.28566196667277 25.28566196667277 25.28566196667277 25.28566196667277 25.28566196667277 25.28566196667277 25.28566196667277 25.28566196667277 25.28566196667277 25.28566196667277 25.28566196667277 25.28566196667277 25.28566196667277 25.28566196667277 25.28566196667277 25.28566196667277 25.30763596410914 25.28566196667277 25.28566196667277 25.30763596410914 25.28566196667277 25.30763596410914 25.30763596410914 25.329609961545504 25.35158395898187 25.37355795641824 25.395531953854604 25.417505951290973 25.461453946163708 25.50540194103644 25.527375938472808 25.571323933345543 25.615271928218274 25.681193920527377 25.747115912836477 25.813037905145578 25.966855887200147 26.120673869254716 26.252517853872916 26.38436183849112 26.494231825672955 26.648049807727524 26.845815784654825 26.97765976927303 27.241347738509432 27.548983702618568 27.790697674418606 28.142281633400476 28.38399560520051 28.889397546236953 29.306903497527927 29.438747482146127 29.878227430873466 30.471525361655374 30.757187328328143 31.196667277055482 31.50430324116462 31.987731184764694 32.42721113349204 32.646951107855706 33.196301043764876 33.657754989928584 33.943416956601354 34.38289690532869 34.66855887200147 35.08606482329244 35.50357077458341 35.81120673869255 36.22871268998352 36.536348654092656 37.15162058231093 37.65702252334737 37.98663248489288 38.36019044131112 39.01941036440212 39.239150338765796 39.722578282365866 40.249954220838674 40.77733015931148 41.28273210034792 41.65629005676616 42.1616919978026 42.68906793627541 43.040651895257284 43.61197582860282 44.007507782457424 44.60080571323933 45.26002563633034 45.63358359274858 46.490569492766895 47.1497894158579 47.43545138253067 48.09467130562168 48.60007324665812 49.3471891594946 50.379967039003844 50.88536898004028 51.63248489287676 52.3356528108405 52.797106757004215 53.258560703167916 53.720014649331624 54.62094854422267 55.32411646218641 55.80754440578649 56.51071232375023 57.235854239150335 57.69730818531404 58.42245010071415 58.88390404687786 59.60904596227797 60.33418787767808 60.86156381615089 61.586705731551 62.55356161875115 63.058963559787585 63.542391503387655 64.04779344442409 64.75096136238784 65.45412928035158 66.1792711957517 66.88243911371544 67.60758102911555 68.09100897271563 68.57443691631569 69.05786485991577 69.98077275224318 70.63999267533418 71.07947262406154 71.71671854971618 72.1561984984435 72.77147042666178 73.38674235488006 73.80424830617103 74.37557223951657 74.92492217542575 75.27650613440761 75.78190807544406 76.11151803698957 76.7487639626442 77.0783739241897 77.36403589086248 77.80351583958982 78.37483977293536 78.52865775498992 79.01208569859 79.23182567295368 79.56143563449919 79.80314960629921 80.02288958066288 80.46236952939023 80.77000549349935 80.96777147042667 81.20948544222671 81.36330342428127 81.56106940120857 81.73686138069951 81.84673136788135 81.97857535249955 82.08844533968139 82.17634132942685 82.30818531404505 82.35213330891779 82.41805530122689 82.48397729353599 82.52792528840871 82.57187328328145 82.63779527559055 82.65976927302691 82.68174327046329 82.70371726789965 82.74766526277239 82.8135872550815 82.83556125251786 82.90148324482695 82.9454312396997 83.01135323200879 83.0772752243179 83.14319721662699 83.25306720380883 83.31898919611793 83.38491118842703 83.4728071781725 83.53872917048159 83.58267716535434 83.6046511627907 83.62662516022706 83.62662516022706 83.64859915766343 83.62662516022706 83.62662516022706 83.62662516022706 83.62662516022706 83.62662516022706 83.62662516022706 83.64859915766343 83.67057315509979 83.67057315509979 83.69254715253618 83.71452114997254 83.71452114997254 83.7364951474089 83.7364951474089 83.78044314228164 83.78044314228164 83.78044314228164 83.78044314228164 83.78044314228164 83.78044314228164 83.78044314228164 83.78044314228164 83.78044314228164 83.78044314228164 83.78044314228164 83.78044314228164 83.78044314228164 83.78044314228164 83.78044314228164 83.78044314228164 83.75846914484526 83.75846914484526 83.7364951474089 83.71452114997254 83.71452114997254 83.69254715253618 83.69254715253618 83.67057315509979 83.67057315509979 83.67057315509979 83.67057315509979 83.67057315509979 83.67057315509979 83.67057315509979 83.67057315509979 83.67057315509979 83.67057315509979 83.67057315509979 83.67057315509979 83.67057315509979 83.67057315509979 83.67057315509979 83.67057315509979 83.67057315509979 83.64859915766343 83.62662516022706 83.6046511627907 83.56070316791798 83.53872917048159 83.51675517304523 83.4728071781725 83.45083318073613 83.42885918329976 83.42885918329976 83.40688518586339 83.40688518586339 83.40688518586339 83.40688518586339 83.38491118842703 83.38491118842703 83.38491118842703 83.38491118842703 83.38491118842703 83.36293719099066 83.3409631935543 83.29701519868156 83.27504120124519 83.25306720380883 83.23109320637246 83.2091192089361 83.18714521149973 83.16517121406336 83.14319721662699 83.14319721662699 83.12122321919063 83.12122321919063 83.12122321919063 83.12122321919063 83.12122321919063 83.12122321919063 83.09924922175426 83.09924922175426 83.09924922175426 83.09924922175426 83.0772752243179 83.0772752243179 83.05530122688153 83.05530122688153 83.05530122688153 83.05530122688153 83.03332722944516 83.03332722944516 83.03332722944516 83.03332722944516 83.03332722944516 83.03332722944516 83.03332722944516 83.03332722944516 83.03332722944516 83.03332722944516 83.03332722944516 83.01135323200879 83.01135323200879 83.01135323200879 82.98937923457243 82.98937923457243 82.96740523713606 82.96740523713606 82.9454312396997 82.92345724226331 82.92345724226331 82.90148324482695 82.87950924739059 82.85753524995422 82.83556125251786 82.8135872550815 82.79161325764511 82.79161325764511 82.76963926020875 82.72569126533602 82.72569126533602 82.68174327046329 82.65976927302691 82.63779527559055 82.63779527559055 82.63779527559055 82.63779527559055 82.63779527559055 82.63779527559055 82.63779527559055 82.63779527559055 82.63779527559055 82.61582127815419 82.59384728071782 82.54989928584509 82.50595129097235 82.46200329609962 82.44002929866325 82.39608130379051 82.35213330891779 82.30818531404505 82.26423731917231 82.19831532686322 82.13239333455411 82.04449734480863 81.95660135506317 81.86870536531771 81.73686138069951 81.51712140633583 81.38527742171763 81.05566746017213 80.77000549349935 80.52829152169933 80.30855154733565 79.91301959348105 79.49551364219008 79.07800769089911 78.7483977293536 78.33089177806264 77.84746383446256 77.53982787035342 77.05639992675334 76.72678996520784 76.28731001648049 75.80388207288043 75.47427211133493 74.99084416773485 74.52939022157113 74.22175425746201 73.7603003112983 73.45266434718917 72.99121040102546 72.35396447537082 72.04632851126168 71.58487456509798 71.27723860098882 70.8377586522615 70.50814869071598 70.04669474455227 69.58524079838858 69.1018128547885 68.75022889580663 68.28877494964291 67.93719099066105 67.43178904962461 66.92638710858817 66.5748031496063 66.02545321369712 65.49807727522432 65.14649331624244 64.4433253982787 64.06976744186046 63.542391503387655 63.146859549533055 62.773301593114816 62.26789965207837 61.54275773667826 61.19117377769639 60.641823841787215 60.246291887932614 59.69694195202344 59.1256180186779 58.73008606482329 58.13678813404138 57.52151620582311 57.08203625709577 56.532686321186596 56.09320637245926 54.92858450833181 54.44515656473173 54.22541659036806 53.478300677531585 52.70921076725874 52.2038088262223 51.41274491851309 50.643655008240245 49.874565097967405 49.105475187694566 48.77586522614906 48.09467130562168 47.391503387657934 46.73228346456693 46.09503753891229 45.67753158762132 44.9523896722212 44.60080571323933 44.271195751693824 43.80974180553012 43.348287859366415 43.062625892693646 42.667093938839045 42.40340596960264 42.00787401574803 41.45852407983885 41.30470609778429 40.93114814136605 40.645486174693275 40.249954220838674 39.854422266984066 39.590734297747666 39.107306354147596 38.75572239516572 38.60190441311115 38.29426844900202 38.05255447720198 37.5691265336019 37.21754257462003 36.953854605383626 36.58029664896539 36.052920710492586 35.89910272843802 35.50357077458341 35.21790880791064 34.7784288591833 34.33894891045596 34.03131294634682 33.591832997619484 33.174327046328514 32.91063907709211 32.53708112067387 32.27339315143747 31.96575718732833 31.548251236037355 31.46035524629189 31.196667277055482 30.823109320637247 30.647317341146312 30.471525361655374 30.163889397546235 29.900201428309835 29.61453946163706 29.41677348470976 29.175059512909723 28.91137154367332 28.75755356161875 28.53781358725508 28.427943600073245 28.230177623145945 28.03241164621864 27.87859366416407 27.702801684673137 27.658853689800402 27.614905694927668 27.548983702618568 27.527009705182202 27.505035707745833 27.483061710309467 27.439113715436733 27.395165720564 27.329243728254898 27.307269730818533 27.263321735945798 27.17542574620033 27.10950375389123 27.02160776414576 26.95568577183666 26.867789782091194 26.80186778978209 26.691997802600255 26.648049807727524 26.626075810291155 26.560153817982055 26.51620582310932 26.472257828236586 26.406335835927486 26.36238784105475 26.29646584874565 26.274491851309286 26.23054385643655 26.164621864127447 26.120673869254716 26.07672587438198 26.054751876945616 26.054751876945616 26.01080388207288 25.988829884636512 25.944881889763778 25.900933894891047 25.856985900018312 25.835011902581943 25.813037905145578 25.791063907709212 25.769089910272843 25.747115912836477 25.747115912836477 25.72514191540011 25.703167917963743 25.703167917963743 25.681193920527377 25.65921992309101 25.637245925654643 25.615271928218274 25.593297930781908 25.593297930781908 25.593297930781908 25.593297930781908 25.571323933345543 25.549349935909174 25.571323933345543 25.571323933345543 25.549349935909174 25.549349935909174 25.549349935909174 25.549349935909174 25.549349935909174 25.527375938472808 25.527375938472808 25.50540194103644 25.50540194103644 25.483427943600073 25.461453946163708 25.461453946163708 25.461453946163708 25.43947994872734 25.43947994872734 25.417505951290973 25.417505951290973 25.395531953854604 25.395531953854604 25.395531953854604 25.395531953854604 25.395531953854604 25.395531953854604 25.395531953854604 25.395531953854604 25.37355795641824 25.37355795641824 25.37355795641824 25.37355795641824 25.37355795641824 25.37355795641824 25.37355795641824 25.37355795641824 25.37355795641824 25.35158395898187 25.37355795641824 25.37355795641824 25.37355795641824 25.35158395898187 25.37355795641824 25.35158395898187 25.35158395898187 25.37355795641824 25.35158395898187 25.35158395898187 25.37355795641824 25.35158395898187 25.35158395898187 25.35158395898187 25.35158395898187 25.35158395898187 25.35158395898187 25.35158395898187 25.35158395898187 25.35158395898187 25.35158395898187 25.35158395898187 25.35158395898187 25.35158395898187 25.35158395898187 25.35158395898187 25.329609961545504 25.35158395898187 25.329609961545504 25.329609961545504 