29.0 29.0 29.030763596410914 29.0 29.0 29.0 29.0 29.030763596410914 29.030763596410914 29.0 29.030763596410914 29.030763596410914 29.0 29.0 29.0 29.0 29.0 29.030763596410914 29.0 29.0 29.030763596410914 29.0 29.0 29.0 29.0 29.0 29.0 29.0 29.030763596410914 29.0 29.0 29.030763596410914 29.0 29.0 29.0 29.0 29.0 29.0 29.0 29.0 29.0 29.0 29.030763596410914 29.030763596410914 29.0 29.030763596410914 29.0 29.0 29.0 29.0 29.0 29.0 29.0 29.0 29.0 29.0 29.0 29.030763596410914 29.0 29.030763596410914 29.0 29.0 29.0 29.0 29.0 29.0 29.0 29.0 29.0 29.0 29.0 29.0 29.0 29.0 29.0 29.0 29.030763596410914 29.0 29.030763596410914 29.0 29.0 29.0 29.030763596410914 29.0 29.0 29.030763596410914 29.0 29.0 29.030763596410914 29.030763596410914 29.0 29.030763596410914 29.0 29.0 29.030763596410914 29.030763596410914 29.0 29.0 29.0 29.0 29.0 29.0 29.030763596410914 29.0 29.0 29.0 29.0 29.0 29.0 29.030763596410914 29.030763596410914 29.030763596410914 29.0 29.030763596410914 29.0 29.0 29.0 29.0 29.0 29.0 29.030763596410914 29.0 29.0 29.0 29.0 29.0 29.0 29.0 29.030763596410914 29.0 29.0 29.0 29.030763596410914 29.0 29.030763596410914 29.0 29.0 29.0 29.030763596410914 29.0 29.0 29.0 29.0 29.0 29.0 29.030763596410914 29.0 29.0 29.0 29.0 29.030763596410914 29.0 29.0 29.0 29.0 29.0 29.0 29.030763596410914 29.0 29.0 29.030763596410914 29.0 29.0 29.0 29.0 29.0 29.0 29.0 29.0 29.030763596410914 29.030763596410914 29.0 29.0 29.0 29.0 29.030763596410914 29.0 29.0 29.0 29.0 29.0 29.0 29.0 29.030763596410914 29.0 29.0 29.0 29.0 29.0 29.0 29.0 29.0 29.0 29.0 29.0 29.0 29.0 29.0 29.0 29.030763596410914 29.0 29.0 29.0 29.0 29.0 29.0 29.0 29.0 29.0 29.0 29.0 29.030763596410914 29.0 29.0 29.0 29.030763596410914 29.0 29.030763596410914 29.0 29.0 29.0 29.0 29.0 29.0 29.0 29.0 29.0 29.030763596410914 29.0 29.030763596410914 29.0 29.0 29.0 29.0 29.0 29.030763596410914 29.0 29.0 29.0 29.0 29.0 29.0 29.0 29.0 29.0 29.0 29.0 29.0 29.0 29.0 29.0 29.0 29.0 29.0 29.0 29.0 29.0 29.030763596410914 29.0 29.0 29.0 29.0 29.0 29.0 29.0 29.0 29.0 29.0 29.0 29.0 29.0 29.0 29.0 29.0 29.0 29.0 29.0 29.0 29.0 29.030763596410914 29.0 29.0 29.0 29.0 29.0 29.0 29.0 29.0 29.0 29.0 29.0 29.0 29.0 29.0 29.0 29.0 29.0 29.0 29.0 29.0 29.0 29.0 29.0 29.030763596410914 29.0 29.0 29.0 29.0 29.030763596410914 29.0 29.0 29.030763596410914 29.0 29.030763596410914 29.0 29.0 29.0 29.0 29.0 29.030763596410914 29.0 29.0 29.0 29.030763596410914 29.0 29.0 29.0 29.0 29.0 29.0 29.0 29.0 29.0 29.0 29.0 29.0 29.0 29.0 29.0 29.0 29.0 29.0 29.0 29.0 29.0 29.0 29.0 29.0 29.0 29.0 29.0 29.0 29.030763596410914 29.030763596410914 29.0 29.0 29.0 29.0 29.030763596410914 29.0 29.0 29.0 29.0 29.0 29.0 29.0 29.0 29.0 29.0 29.030763596410914 29.0 29.0 29.0 29.0 29.0 29.0 29.0 29.030763596410914 29.0 29.0 29.0 29.030763596410914 29.0 29.0 29.030763596410914 29.0 29.0 29.030763596410914 29.0 29.0 29.0 29.0 29.0 29.0 29.0 29.0 29.030763596410914 29.0 29.0 29.0 29.0 29.0 29.030763596410914 29.0 29.0 29.0 29.0 29.0 29.0 29.0 29.0 29.0 29.0 29.0 29.0 29.030763596410914 29.0 29.0 29.0 29.030763596410914 29.0 29.0 29.0 29.0 29.0 29.0 29.0 29.0 29.0 29.0 29.0 29.0 29.0 29.0 29.0 29.0 29.0 29.0 29.0 29.030763596410914 29.0 29.0 29.0 29.0 29.0 29.0 29.0 29.0 29.0 29.0 29.0 29.0 29.0 29.0 29.0 29.0 29.030763596410914 29.0 29.0 29.0 29.0 29.0 29.0 29.0 29.0 29.0 29.0 29.0 29.0 29.0 29.0 29.0 29.0 29.0 29.0 29.0 29.0 29.0 29.0 29.0 29.0 29.0 29.0 29.0 29.0 29.0 29.0 29.0 29.030763596410914 29.0 29.0 29.0 29.0 29.0 29.0 29.0 29.0 29.0 29.0 29.0 29.0 29.0 29.0 29.0 29.0 29.0 29.0 29.0 29.0 29.0 29.0 29.0 29.0 29.0 29.0 29.0 29.0 29.0 29.0 29.0 29.0 29.0 29.0 29.0 29.0 29.0 29.0 29.0 29.0 29.0 29.0 29.0 29.0 29.0 29.030763596410914 29.0 29.0 29.0 29.0 29.0 29.030763596410914 29.0 29.0 29.0 29.0 29.0 29.0 29.0 29.0 29.0 29.0 29.030763596410914 29.0 29.0 29.0 29.0 29.0 29.0 29.0 29.0 29.0 29.030763596410914 29.030763596410914 29.0 29.0 29.030763596410914 29.0 29.0 29.0 29.0 29.030763596410914 29.030763596410914 29.0 29.0 29.0 29.0 29.0 29.0 29.0 29.0 29.0 29.0 29.0 29.0 29.030763596410914 29.0 29.030763596410914 29.030763596410914 29.030763596410914 29.030763596410914 29.030763596410914 29.030763596410914 29.061527192821828 29.061527192821828 29.061527192821828 29.061527192821828 29.09229078923274 29.09229078923274 29.123054385643655 29.123054385643655 29.123054385643655 29.123054385643655 29.15381798205457 29.184581578465483 29.184581578465483 29.215345174876397 29.24610877128731 29.276872367698225 29.276872367698225 29.30763596410914 29.369163156930966 29.39992675334188 29.430690349752794 29.430690349752794 29.461453946163708 29.49221754257462 29.522981138985532 29.58450833180736 29.646035524629188 29.73832631386193 29.83061710309467 29.922907892327412 29.98443508514924 30.045962277971068 30.13825306720381 30.199780260025637 30.29207104925838 30.445889031312948 30.599707013367514 30.72276139901117 30.87657938106574 30.999633766709394 31.184215345174877 31.307269730818533 31.522614905694926 31.70719648416041 31.891778062625892 32.107123237502286 32.260941219556855 32.47628639443325 32.69163156930965 32.87621314777513 33.12232191906244 33.30690349752793 33.55301226881524 33.79912104010255 34.01446621497894 34.26057498626625 34.50668375755356 34.8143197216627 35.12195568577184 35.46035524629189 35.86028199963376 36.29097234938656 36.62937190990661 37.09082585607032 37.58304339864493 37.98297015198681 38.413660501739606 38.8443508514924 39.275041201245195 39.674967954587075 40.07489470792895 40.536348654092656 40.936275407434536 41.42849295000916 41.92071049258377 42.412928035158394 42.905145577733016 43.42812671671855 43.828053470060425 44.25874381981322 44.68943416956601 45.12012451931881 45.48928767624977 45.88921442959165 46.28914118293353 46.658304339864486 47.02746749679545 47.39663065372642 47.765793810657385 48.104193371177445 48.44259293169749 48.81175608862846 49.1501556491485 49.48855520966856 49.85771836659953 50.22688152353049 50.596044680461446 50.934444240981506 51.3651345907343 51.76506134407617 52.19575169382897 52.62644204358176 53.057132393334555 53.67240432155283 54.13385826771653 54.626075810291155 55.30287493133125 56.041201245193186 56.68723676982238 57.54861746932796 58.1023622047244 58.84068851858633 59.425196850393704 60.132759567844715 61.14795824940487 61.64017579197949 62.19392052737594 62.901483244826956 63.39370078740157 64.19355429408533 64.90111701153634 65.42409815052187 66.1624244643838 66.77769639260208 67.2391503387658 67.85442226698407 68.28511261673685 68.8388573521333 69.39260208752975 69.73100164804981 70.25398278703534 70.90001831166452 71.20765427577366 71.5152902398828 72.00750778245742 72.49972532503205 72.83812488555209 73.29957883171579 73.79179637429041 74.16095953122138 74.68394067020691 75.23768540560337 75.60684856253434 76.2221204907526 76.77586522614905 77.20655557590185 77.85259110053104 78.28328145028382 78.8985533785021 79.72917048159677 80.31367881340414 80.71360556674601 81.20582310932063 81.63651345907343 82.2517853872917 82.95934810474272 83.48232924372826 84.06683757553562 84.49752792528841 85.05127266068484 85.45119941402672 85.97418055301226 86.43563449917598 86.83556125251785 87.26625160227064 87.63541475920161 87.88152353048892 88.18915949459806 88.31221388024171 88.40450466947445 88.46603186229628 88.46603186229628 88.46603186229628 88.46603186229628 88.43526826588536 88.37374107306354 88.31221388024171 88.2814502838308 88.2814502838308 88.25068668741989 88.18915949459806 88.18915949459806 88.21992309100898 88.21992309100898 88.18915949459806 88.21992309100898 88.21992309100898 88.21992309100898 88.21992309100898 88.25068668741989 88.25068668741989 88.37374107306354 88.4967954587072 88.55832265152901 88.68137703717267 88.77366782640541 88.92748580845998 89.05054019410363 89.14283098333638 89.26588536898004 89.29664896539094 89.32741256180186 89.38893975462369 89.4197033510346 89.4197033510346 89.4197033510346 89.4197033510346 89.4197033510346 89.4197033510346 89.4197033510346 89.45046694744552 89.45046694744552 89.45046694744552 89.4197033510346 89.4197033510346 89.45046694744552 89.4197033510346 89.4197033510346 89.4197033510346 89.4197033510346 89.4197033510346 89.4197033510346 89.4197033510346 89.45046694744552 89.48123054385643 89.51199414026735 89.51199414026735 89.51199414026735 89.51199414026735 89.51199414026735 89.51199414026735 89.51199414026735 89.51199414026735 89.54275773667825 89.51199414026735 89.51199414026735 89.51199414026735 89.51199414026735 89.51199414026735 89.51199414026735 89.51199414026735 89.51199414026735 89.51199414026735 89.51199414026735 89.51199414026735 89.54275773667825 89.57352133308916 89.57352133308916 89.57352133308916 89.60428492950008 89.57352133308916 89.57352133308916 89.57352133308916 89.54275773667825 89.54275773667825 89.54275773667825 89.54275773667825 89.54275773667825 89.54275773667825 89.54275773667825 89.48123054385643 89.48123054385643 89.48123054385643 89.48123054385643 89.48123054385643 89.48123054385643 89.48123054385643 89.48123054385643 89.48123054385643 89.48123054385643 89.45046694744552 89.45046694744552 89.45046694744552 89.48123054385643 89.45046694744552 89.45046694744552 89.4197033510346 89.45046694744552 89.4197033510346 89.4197033510346 89.38893975462369 89.35817615821279 89.35817615821279 89.35817615821279 89.32741256180186 89.29664896539094 89.29664896539094 89.29664896539094 89.29664896539094 89.29664896539094 89.29664896539094 89.29664896539094 89.29664896539094 89.29664896539094 89.32741256180186 89.32741256180186 89.35817615821279 89.32741256180186 89.32741256180186 89.32741256180186 89.35817615821279 89.35817615821279 89.35817615821279 89.32741256180186 89.35817615821279 89.32741256180186 89.35817615821279 89.32741256180186 89.35817615821279 89.32741256180186 89.35817615821279 89.32741256180186 89.32741256180186 89.32741256180186 89.35817615821279 89.32741256180186 89.32741256180186 89.35817615821279 89.32741256180186 89.32741256180186 89.32741256180186 89.32741256180186 89.32741256180186 89.32741256180186 89.35817615821279 89.32741256180186 89.32741256180186 89.32741256180186 89.32741256180186 89.32741256180186 89.32741256180186 89.32741256180186 89.32741256180186 89.32741256180186 89.32741256180186 89.32741256180186 89.29664896539094 89.32741256180186 89.32741256180186 89.29664896539094 89.29664896539094 89.32741256180186 89.32741256180186 89.29664896539094 89.29664896539094 89.32741256180186 89.32741256180186 89.29664896539094 89.29664896539094 89.29664896539094 89.29664896539094 89.29664896539094 89.32741256180186 89.29664896539094 89.29664896539094 89.29664896539094 89.29664896539094 89.29664896539094 89.29664896539094 89.29664896539094 89.29664896539094 89.29664896539094 89.32741256180186 89.29664896539094 89.29664896539094 89.29664896539094 89.32741256180186 89.32741256180186 89.29664896539094 89.29664896539094 89.29664896539094 89.32741256180186 89.32741256180186 89.32741256180186 89.32741256180186 89.32741256180186 89.32741256180186 89.35817615821279 89.32741256180186 89.32741256180186 89.32741256180186 89.32741256180186 89.32741256180186 89.32741256180186 89.32741256180186 89.29664896539094 89.29664896539094 89.29664896539094 89.29664896539094 89.29664896539094 89.26588536898004 89.20435817615821 89.14283098333638 89.05054019410363 88.92748580845998 88.7429042299945 88.4967954587072 88.37374107306354 88.12763230177623 87.97381431972167 87.81999633766708 87.60465116279069 87.35854239150339 87.08167002380517 86.83556125251785 86.65097967405237 86.34334370994324 86.12799853506684 85.78959897454678 85.29738143197216 85.02050906427394 84.74363669657572 84.40523713605566 84.12836476835744 83.75920161142648 83.45156564731735 83.11316608679729 82.68247573704448 82.40560336934627 82.0056766160044 81.5749862662516 81.23658670573155 80.80589635597875 80.4674967954587 80.006042849295 79.51382530672038 79.17542574620032 78.52939022157113 78.0064090825856 77.82182750412012 77.32960996154551 76.80662882255997 76.34517487639626 75.85295733382165 75.39150338765793 75.05310382713789 74.53012268815235 74.16095953122138 73.69950558505768 73.29957883171579 72.83812488555209 72.37667093938839 72.03827137886833 71.54605383629371 71.17689067936274 70.68467313678812 70.13092840139169 69.76176524446072 69.23878410547519 68.43893059879143 67.94671305621681 67.54678630287492 67.20838674235489 66.5931148141366 66.00860648232924 65.30104376487822 64.68577183665994 64.07049990844168 63.48599157663431 62.99377403405969 62.53232008789599 61.8862845632668 61.27101263504852 60.74803149606299 60.16352316425563 59.54825123603735 59.117560886284565 58.28694378318989 57.8562534334371 57.39479948727339 56.748763962644205 56.31807361289141 55.70280168467313 54.90294817798937 54.5030214246475 53.88774949642922 53.48782274308734 52.903314411279986 52.503387657938106 51.85735213330892 51.27284380150155 50.688335469694195 50.19611792711957 49.73466398095587 49.334737227613985 48.565647317341146 48.13495696758835 47.765793810657385 47.27357626808276 46.750595129097235 46.41219556857718 45.70463285112616 45.36623329060612 44.874015748031496 44.381798205456874 44.10492583775865 43.73576268082768 43.12049075260941 42.78209119208936 42.32063724592565 42.013001281816514 41.61307452847464 41.336202160776416 40.87474821461271 40.413294268449 40.07489470792895 39.582677165354326 39.09045962277971 38.75206006225966 38.19831532686321 37.67533418787768 37.36769822376854 36.93700787401575 36.62937190990661 36.22944515656473 35.89104559604468 35.61417322834646 35.39882805347006 35.27577366782641 35.183482878593665 35.06042849295001 34.87584691448453 34.75279252884087 34.537447353964474 34.44515656473173 34.29133858267716 34.137520600622594 33.95293902215711 33.67606665445889 33.49148507599341 33.18384911188427 32.906976744186046 32.72239516572056 32.507049990844166 32.29170481596777 32.168650430324114 32.04559604468046 31.984068851858634 31.922541659036806 31.830250869804065 31.830250869804065 31.737960080571323 31.614905694927668 31.55337850210584 31.430324116462188 31.245742537996705 31.12268815235305 30.999633766709394 30.907342977476652 30.72276139901117 30.538179820545686 30.415125434902034 30.199780260025637 30.07672587438198 30.015198681560154 29.953671488738326 29.922907892327412 29.861380699505585 29.83061710309467 29.769089910272843 29.73832631386193 29.73832631386193 29.73832631386193 29.73832631386193 29.73832631386193 29.73832631386193 29.73832631386193 29.73832631386193 29.73832631386193 29.707562717451015 29.707562717451015 29.707562717451015 29.707562717451015 29.707562717451015 29.707562717451015 29.707562717451015 29.707562717451015 29.707562717451015 29.707562717451015 29.707562717451015 29.707562717451015 29.707562717451015 29.707562717451015 29.707562717451015 29.707562717451015 29.707562717451015 29.707562717451015 29.6767991210401 29.707562717451015 29.6767991210401 29.6767991210401 29.6767991210401 29.6767991210401 29.6767991210401 29.6767991210401 29.707562717451015 29.6767991210401 29.6767991210401 29.6767991210401 29.6767991210401 29.6767991210401 29.6767991210401 29.6767991210401 29.6767991210401 29.6767991210401 29.6767991210401 29.6767991210401 29.6767991210401 29.6767991210401 29.6767991210401 29.6767991210401 29.6767991210401 29.6767991210401 29.6767991210401 29.6767991210401 29.6767991210401 29.6767991210401 29.6767991210401 29.6767991210401 29.6767991210401 29.6767991210401 29.6767991210401 29.6767991210401 29.6767991210401 29.6767991210401 29.6767991210401 29.6767991210401 29.6767991210401 29.6767991210401 29.6767991210401 29.6767991210401 29.6767991210401 29.6767991210401 29.6767991210401 29.6767991210401 29.6767991210401 29.6767991210401 29.6767991210401 29.6767991210401 29.6767991210401 29.6767991210401 29.6767991210401 29.6767991210401 29.646035524629188 29.6767991210401 29.646035524629188 29.6767991210401 29.646035524629188 29.6767991210401 29.646035524629188 29.646035524629188 29.646035524629188 29.646035524629188 29.646035524629188 29.646035524629188 29.646035524629188 29.646035524629188 29.646035524629188 29.646035524629188 29.646035524629188 29.646035524629188 29.646035524629188 29.646035524629188 29.646035524629188 29.646035524629188 29.646035524629188 29.646035524629188 29.646035524629188 29.646035524629188 29.646035524629188 29.646035524629188 29.646035524629188 29.646035524629188 29.646035524629188 29.646035524629188 29.646035524629188 29.615271928218274 29.646035524629188 29.646035524629188 29.646035524629188 29.646035524629188 29.646035524629188 29.615271928218274 29.615271928218274 29.615271928218274 29.615271928218274 29.615271928218274 29.615271928218274 29.615271928218274 29.615271928218274 29.615271928218274 29.615271928218274 29.615271928218274 29.615271928218274 29.615271928218274 29.615271928218274 29.615271928218274 29.615271928218274 29.646035524629188 29.615271928218274 29.615271928218274 29.615271928218274 29.615271928218274 29.615271928218274 29.615271928218274 29.615271928218274 29.615271928218274 29.615271928218274 29.615271928218274 29.615271928218274 29.615271928218274 29.615271928218274 29.615271928218274 29.615271928218274 29.615271928218274 29.615271928218274 29.615271928218274 29.58450833180736 29.58450833180736 29.58450833180736 29.58450833180736 29.58450833180736 29.58450833180736 29.58450833180736 29.58450833180736 29.58450833180736 29.58450833180736 29.58450833180736 29.58450833180736 29.58450833180736 29.58450833180736 29.58450833180736 29.58450833180736 29.58450833180736 29.58450833180736 29.58450833180736 29.58450833180736 29.58450833180736 29.58450833180736 29.58450833180736 29.58450833180736 29.58450833180736 29.58450833180736 29.58450833180736 29.58450833180736 29.58450833180736 29.58450833180736 29.58450833180736 29.58450833180736 29.58450833180736 29.58450833180736 29.58450833180736 29.58450833180736 29.58450833180736 29.58450833180736 29.58450833180736 29.58450833180736 29.58450833180736 29.58450833180736 29.58450833180736 29.58450833180736 29.58450833180736 29.58450833180736 29.58450833180736 29.58450833180736 29.58450833180736 29.58450833180736 29.615271928218274 29.615271928218274 29.615271928218274 29.615271928218274 29.615271928218274 29.646035524629188 29.646035524629188 29.6767991210401 29.6767991210401 29.707562717451015 29.707562717451015 29.73832631386193 29.769089910272843 29.83061710309467 29.861380699505585 29.922907892327412 30.045962277971068 30.13825306720381 30.29207104925838 30.353598242080206 30.38436183849112 30.47665262772386 30.538179820545686 30.630470609778428 30.784288591832997 30.87657938106574 31.030397363120308 31.153451748763963 31.21497894158579 31.338033327229446 31.461087712873102 31.676432887749495 31.768723676982237 31.891778062625892 32.04559604468046 32.19941402673503 32.32246841237868 32.507049990844166 32.660867972898735 32.906976744186046 33.18384911188427 33.368430690349754 33.64530305804798 33.983702618568024 34.19904779344442 34.5989745467863 34.87584691448453 35.30653726423732 35.76799121040103 36.29097234938656 36.78318989196118 37.18311664530306 37.521516205823104 37.9522065555759 38.475187694561434 38.967405237136056 39.49038637612159 39.85954953305256 40.413294268449 40.843984618201794 41.36696575718733 41.951474088994686 42.32063724592565 42.93590917414393 43.52041750595129 43.95110785570408 44.56637978392236 45.02783373008606 45.91997802600257 46.38143197216627 46.84288591832997 47.519685039370074 48.473356528108404 48.75022889580663 49.642373191723124 50.16535433070866 50.78062625892693 51.242080205090645 51.91887932613075 52.59567844717085 53.27247756821095 53.76469511078557 54.5030214246475 55.179820545687605 55.79509247390588 56.47189159494598 56.964109137520595 57.67167185497162 58.34847097601172 58.84068851858633 59.732832814502835 60.16352316425563 60.594213514008416 61.240249038637614 61.6709393883904 62.31697491301959 63.08606482329243 63.516755173045226 64.1012635048526 64.5627174510163 65.0549349935909 65.42409815052187 65.97784288591834 66.50082402490386 66.86998718183483 67.36220472440945 67.82365867057315 68.19282182750412 68.77733015931148 69.05420252700969 69.39260208752975 69.85405603369347 70.22321919062442 70.59238234755539 71.17689067936274 71.45376304706097 71.88445339681377 72.19208936092289 72.46896172862114 72.86888848196301 73.29957883171579 73.66874198864676 74.06866874198865 74.40706830250869 74.80699505585056 75.17615821278153 75.48379417689067 75.88372093023256 76.1913568943417 76.59128364768358 77.02197399743636 77.39113715436733 77.91411829335286 78.34480864310567 78.68320820362571 78.96008057132393 79.26771653543307 79.69840688518586 80.25215162058231 80.49826039186962 80.8981871452115 81.29811389855337 81.6057498626625 81.88262223036074 82.12873100164805 82.59018494781176 82.95934810474272 83.20545687603003 83.63614722578282 84.00531038271379 84.282182750412 84.65134590734297 84.92821827504119 85.32814502838306 85.72807178172496 86.03570774583409 86.40487090276505 86.92785204175058 87.1739608130379 87.48159677714705 87.75846914484526 88.12763230177623 88.46603186229628 88.68137703717267 89.14283098333638 89.38893975462369 89.60428492950008 89.91192089360922 90.0657388756638 90.25032045412928 90.40413843618384 90.5579564182384 90.77330159311481 90.86559238234756 91.08093755722395 91.32704632851126 91.48086431056583 91.72697308185315 91.97308185314044 92.12689983519502 92.34224501007142 92.46529939571508 92.68064457059145 92.7729353598242 92.86522614905695 93.01904413111153 93.17286211316609 93.2343893059879 93.29591649880975 93.35744369163156 93.44973448086432 93.51126167368614 93.57278886650798 93.60355246291888 93.6650796557407 93.6650796557407 93.6650796557407 93.6650796557407 93.6650796557407 93.6650796557407 93.69584325215162 93.6650796557407 93.6650796557407 93.6650796557407 93.69584325215162 93.6650796557407 93.6650796557407 93.6650796557407 93.6650796557407 93.6650796557407 93.6650796557407 93.6650796557407 93.6650796557407 93.6650796557407 93.6650796557407 93.6650796557407 93.6650796557407 93.6650796557407 93.6650796557407 93.69584325215162 93.69584325215162 93.69584325215162 93.6650796557407 93.6650796557407 93.6650796557407 93.6650796557407 93.6650796557407 93.6650796557407 93.6650796557407 93.6650796557407 93.6650796557407 93.6650796557407 93.6650796557407 93.6650796557407 93.6650796557407 93.63431605932979 93.60355246291888 93.63431605932979 93.60355246291888 93.60355246291888 93.60355246291888 93.57278886650798 93.57278886650798 93.54202527009704 93.54202527009704 93.54202527009704 93.54202527009704 93.51126167368614 93.54202527009704 93.51126167368614 93.51126167368614 93.51126167368614 93.51126167368614 93.51126167368614 93.51126167368614 93.51126167368614 93.51126167368614 93.51126167368614 93.51126167368614 93.51126167368614 93.54202527009704 93.51126167368614 93.51126167368614 93.51126167368614 93.54202527009704 93.51126167368614 93.51126167368614 93.51126167368614 93.51126167368614 93.51126167368614 93.54202527009704 93.51126167368614 93.51126167368614 93.51126167368614 93.51126167368614 93.54202527009704 93.51126167368614 93.51126167368614 93.51126167368614 93.51126167368614 93.48049807727523 93.41897088445339 93.41897088445339 93.35744369163156 93.32668009522065 93.32668009522065 93.32668009522065 93.32668009522065 93.29591649880975 93.29591649880975 93.29591649880975 93.29591649880975 93.29591649880975 93.29591649880975 93.29591649880975 93.29591649880975 93.29591649880975 93.29591649880975 93.29591649880975 93.29591649880975 93.32668009522065 93.29591649880975 93.29591649880975 93.29591649880975 93.29591649880975 93.29591649880975 93.29591649880975 93.29591649880975 93.29591649880975 93.29591649880975 93.29591649880975 93.29591649880975 93.29591649880975 93.29591649880975 93.29591649880975 93.29591649880975 93.29591649880975 93.26515290239884 93.29591649880975 93.29591649880975 93.29591649880975 93.29591649880975 93.29591649880975 93.29591649880975 93.29591649880975 93.32668009522065 93.29591649880975 93.29591649880975 93.29591649880975 93.29591649880975 93.29591649880975 93.29591649880975 93.29591649880975 93.29591649880975 93.29591649880975 93.29591649880975 93.2343893059879 93.2343893059879 93.2343893059879 93.203625709577 93.2343893059879 93.203625709577 93.203625709577 93.203625709577 93.203625709577 93.203625709577 93.203625709577 93.203625709577 93.203625709577 93.203625709577 93.203625709577 93.2343893059879 93.2343893059879 93.203625709577 93.203625709577 93.203625709577 93.203625709577 93.2343893059879 93.2343893059879 93.2343893059879 93.2343893059879 93.2343893059879 93.2343893059879 93.203625709577 93.2343893059879 93.2343893059879 93.2343893059879 93.203625709577 93.203625709577 93.2343893059879 93.2343893059879 93.2343893059879 93.2343893059879 93.203625709577 93.2343893059879 93.203625709577 93.203625709577 93.2343893059879 93.203625709577 93.203625709577 93.203625709577 93.203625709577 93.17286211316609 93.203625709577 93.203625709577 93.203625709577 93.17286211316609 93.17286211316609 93.14209851675518 93.08057132393334 93.04980772752243 93.04980772752243 93.01904413111153 93.01904413111153 93.01904413111153 93.01904413111153 93.01904413111153 92.98828053470059 92.98828053470059 92.98828053470059 92.98828053470059 92.98828053470059 92.98828053470059 92.98828053470059 92.98828053470059 93.01904413111153 92.98828053470059 92.98828053470059 92.98828053470059 92.95751693828969 92.95751693828969 92.92675334187877 92.92675334187877 92.92675334187877 92.92675334187877 92.92675334187877 92.89598974546786 92.92675334187877 92.89598974546786 92.89598974546786 92.92675334187877 92.92675334187877 92.92675334187877 92.92675334187877 92.92675334187877 92.92675334187877 92.92675334187877 92.92675334187877 92.92675334187877 92.92675334187877 92.92675334187877 92.92675334187877 92.92675334187877 92.89598974546786 92.89598974546786 92.86522614905695 92.86522614905695 92.86522614905695 92.80369895623511 92.80369895623511 92.7729353598242 92.7729353598242 92.7729353598242 92.7729353598242 92.7729353598242 92.7729353598242 92.7729353598242 92.7729353598242 92.7729353598242 92.7729353598242 92.7729353598242 92.80369895623511 92.80369895623511 92.80369895623511 92.80369895623511 92.80369895623511 92.80369895623511 92.80369895623511 92.80369895623511 92.80369895623511 92.7729353598242 92.80369895623511 92.7729353598242 92.7729353598242 92.7729353598242 92.7729353598242 92.7729353598242 92.7421717634133 92.68064457059145 92.61911737776964 92.58835378135873 92.49606299212599 92.37300860648233 92.24995422083867 92.00384544955136 91.91155466031861 91.75773667826405 91.57315509979856 91.4501007141549 91.2039919428676 91.08093755722395 90.95788317158029 90.71177440029297 90.58872001464934 90.46566562900567 90.28108405054019 90.0657388756638 89.81963010437647 89.60428492950008 89.38893975462369 89.11206738692547 88.89672221204907 88.61984984435085 88.34297747665262 88.12763230177623 87.850759934078 87.57388756637978 87.26625160227064 87.05090642739424 86.7125068668742 86.4971616919978 86.12799853506684 85.88188976377953 85.48196301043765 84.89745467863028 84.62058231093206 84.282182750412 83.66691082219373 83.51309284013917 82.99011170115364 82.43636696575717 81.88262223036074 81.32887749496429 80.9289507416224 80.34444240981506 79.75993407800769 79.36000732466582 78.77549899285845 78.34480864310567 77.72953671488739 77.08350119025819 76.62204724409449 75.79143014099981 75.20692180919245 74.99157663431606 74.37630470609778 73.94561435634498 73.26881523530488 72.37667093938839 71.91521699322467 71.26918146859549 70.80772752243178 70.31550997985717 69.70023805163889 69.05420252700969 68.3774034059696 67.73136788134042 67.2699139351767 66.56235121772569 66.07013367515107 65.36257095770006 64.65500824024903 64.19355429408533 63.48599157663431 62.77842885918329 62.28621131660868 61.57864859915766 60.87108588170665 60.132759567844715 59.67130562168101 59.14832448269547 58.37923457242263 57.6409082585607 56.841054751876946 56.13349203442593 55.61051089544039 54.841420985167545 54.31843984618202 53.580113532320084 52.84178721845816 52.13422450100714 51.61124336202161 50.934444240981506 50.442226698406884 49.79619117377769 49.119392052737595 48.65793810657389 47.98113898553378 47.33510346090459 46.904413111151804 46.2276139901117 45.735396447537084 44.96630653726424 44.56637978392236 44.135689434169564 43.52041750595129 42.72056399926753 42.22834645669291 41.797656106940124 41.39772935359824 40.81322102179088 40.413294268449 39.79802234023072 39.275041201245195 38.721296465848745 38.38289690532869 37.921442959164985 37.61380699505585 37.12158945248123 36.66013550631752 36.32173594579747 35.89104559604468 35.583409631935545 35.21424647500458 34.84508331807361 34.69126533601904 34.50668375755356 34.32210217908808 34.229811389855335 34.04522981138985 33.829884636513455 33.614539461637065 33.33766709393884 33.15308551547336 32.93774034059696 32.814685954953305 32.63010437648782 32.44552279802234 32.32246841237868 32.19941402673503 32.04559604468046 31.984068851858634 31.86101446621498 31.737960080571323 31.64566929133858 31.491851309284012 31.399560520051274 31.245742537996705 31.091924555942136 30.999633766709394 30.87657938106574 30.784288591832997 30.691997802600255 30.630470609778428 30.5689434169566 30.507416224134772 30.445889031312948 30.38436183849112 30.353598242080206 30.29207104925838 30.261307452847465 30.199780260025637 30.13825306720381 30.107489470792896 30.07672587438198 30.07672587438198 30.045962277971068 30.015198681560154 29.98443508514924 29.953671488738326 29.953671488738326 29.922907892327412 29.922907892327412 29.922907892327412 29.8921442959165 29.8921442959165 29.8921442959165 29.8921442959165 29.8921442959165 29.8921442959165 29.8921442959165 29.8921442959165 29.8921442959165 29.8921442959165 29.8921442959165 29.8921442959165 29.8921442959165 29.8921442959165 29.8921442959165 29.8921442959165 29.861380699505585 29.8921442959165 29.8921442959165 29.8921442959165 29.8921442959165 29.8921442959165 29.861380699505585 29.8921442959165 29.861380699505585 29.861380699505585 29.8921442959165 29.861380699505585 29.861380699505585 29.8921442959165 29.861380699505585 29.861380699505585 29.861380699505585 29.861380699505585 29.861380699505585 29.861380699505585 29.861380699505585 29.861380699505585 29.861380699505585 29.861380699505585 29.861380699505585 29.861380699505585 29.861380699505585 29.861380699505585 29.861380699505585 29.861380699505585 29.83061710309467 29.861380699505585 29.861380699505585 29.861380699505585 29.861380699505585 29.861380699505585 29.861380699505585 29.861380699505585 29.861380699505585 29.83061710309467 29.861380699505585 29.861380699505585 29.861380699505585 29.861380699505585 29.83061710309467 29.861380699505585 29.861380699505585 29.861380699505585 29.83061710309467 29.83061710309467 29.861380699505585 29.861380699505585 29.861380699505585 29.861380699505585 29.83061710309467 29.83061710309467 29.83061710309467 29.83061710309467 29.83061710309467 29.83061710309467 29.83061710309467 29.83061710309467 29.83061710309467 29.861380699505585 29.83061710309467 29.83061710309467 29.83061710309467 29.861380699505585 29.83061710309467 29.83061710309467 29.83061710309467 29.83061710309467 29.83061710309467 29.83061710309467 29.83061710309467 29.83061710309467 29.83061710309467 29.83061710309467 29.83061710309467 29.83061710309467 29.83061710309467 29.83061710309467 29.83061710309467 29.83061710309467 29.83061710309467 29.83061710309467 29.83061710309467 29.83061710309467 29.83061710309467 29.83061710309467 29.83061710309467 29.83061710309467 29.83061710309467 29.83061710309467 29.83061710309467 29.83061710309467 29.83061710309467 29.83061710309467 29.83061710309467 29.83061710309467 29.83061710309467 29.83061710309467 29.83061710309467 29.83061710309467 29.83061710309467 29.83061710309467 29.83061710309467 29.83061710309467 29.83061710309467 29.83061710309467 29.83061710309467 29.799853506683757 29.83061710309467 29.83061710309467 29.799853506683757 29.799853506683757 29.799853506683757 29.83061710309467 29.799853506683757 29.799853506683757 29.799853506683757 29.799853506683757 29.799853506683757 29.799853506683757 29.799853506683757 29.799853506683757 29.799853506683757 29.799853506683757 29.799853506683757 29.799853506683757 29.799853506683757 29.799853506683757 29.799853506683757 29.799853506683757 29.799853506683757 29.799853506683757 29.799853506683757 29.769089910272843 29.799853506683757 29.799853506683757 29.799853506683757 29.799853506683757 29.799853506683757 29.799853506683757 29.799853506683757 29.799853506683757 29.799853506683757 29.799853506683757 29.799853506683757 29.799853506683757 29.799853506683757 29.799853506683757 29.799853506683757 29.799853506683757 29.799853506683757 29.799853506683757 29.799853506683757 29.799853506683757 29.799853506683757 29.799853506683757 29.799853506683757 29.799853506683757 29.799853506683757 29.799853506683757 29.799853506683757 29.799853506683757 29.799853506683757 29.799853506683757 29.799853506683757 29.799853506683757 29.799853506683757 29.799853506683757 29.799853506683757 29.799853506683757 29.799853506683757 29.799853506683757 29.799853506683757 29.799853506683757 29.83061710309467 29.83061710309467 29.83061710309467 29.799853506683757 29.83061710309467 29.799853506683757 29.83061710309467 29.83061710309467 29.83061710309467 29.83061710309467 29.83061710309467 29.83061710309467 29.83061710309467 29.861380699505585 29.83061710309467 29.861380699505585 29.861380699505585 29.861380699505585 29.83061710309467 29.861380699505585 29.861380699505585 29.861380699505585 29.861380699505585 29.861380699505585 29.861380699505585 29.861380699505585 29.861380699505585 29.861380699505585 29.8921442959165 29.861380699505585 29.8921442959165 29.8921442959165 29.8921442959165 29.8921442959165 29.8921442959165 29.922907892327412 29.8921442959165 29.922907892327412 29.922907892327412 29.953671488738326 29.953671488738326 29.953671488738326 29.98443508514924 29.98443508514924 30.015198681560154 30.045962277971068 30.045962277971068 30.07672587438198 30.107489470792896 30.13825306720381 30.169016663614723 30.23054385643655 30.29207104925838 30.322834645669293 30.38436183849112 30.445889031312948 30.5689434169566 30.5689434169566 30.66123420618934 30.753524995422083 30.784288591832997 30.87657938106574 31.030397363120308 31.184215345174877 31.36879692364036 31.522614905694926 31.768723676982237 31.922541659036806 32.107123237502286 32.32246841237868 32.47628639443325 32.69163156930965 32.93774034059696 33.15308551547336 33.64530305804798 33.95293902215711 34.26057498626625 34.72202893242996 35.06042849295001 35.583409631935545 36.29097234938656 36.62937190990661 37.18311664530306 37.67533418787768 38.167551730452296 38.69053286943783 39.09045962277971 39.644204358176154 40.136421900750776 40.536348654092656 41.090093389489105 41.490020142830986 42.259110053103825 42.659036806445705 43.058963559787585 43.67423548800586 44.32027101263505 44.81248855520967 45.735396447537084 46.28914118293353 46.93517670756272 47.39663065372642 47.91961179271196 48.6887017029848 49.76542757736678 50.288408716352315 51.11902581944699 51.85735213330892 52.53415125434902 53.3955319538546 53.980040285661964 54.872184581578466 55.73356528108405 56.348837209302324 57.240981505218826 58.13312580113532 58.99450650064091 59.54825123603735 60.132759567844715 60.96337667093938 61.51712140633583 62.347738509430506 63.14759201611426 64.00897271561985 64.80882622230361 65.39333455411096 65.88555209668559 66.96227797106756 67.48525911005311 68.28511261673685 69.05420252700969 69.73100164804981 70.377037172679 70.90001831166452 71.54605383629371 72.22285295733383 72.71507049990844 73.33034242812671 73.97637795275591 74.40706830250869 74.99157663431606 75.51455777330159 75.82219373741073 76.28364768357443 76.59128364768358 77.05273759384727 77.45266434718914 77.7603003112983 78.37557223951657 78.83702618568027 78.99084416773485 79.66764328877494 80.0368064457059 80.62131477751328 81.17505951290971 81.66727705548433 82.2517853872917 82.83629371909906 83.23622047244095 83.88225599707013 84.37447353964475 84.92821827504119 85.54349020325947 85.94341695660134 86.52792528840871 87.08167002380517 87.48159677714705 87.97381431972167 88.37374107306354 88.92748580845998 89.35817615821279 89.60428492950008 89.94268449002014 90.28108405054019 90.34261124336201 90.58872001464934 90.80406518952573 90.98864676799121 91.17322834645668 91.29628273210034 91.41933711774399 91.48086431056583 91.54239150338765 91.60391869620949 91.6654458890313 91.72697308185315 91.78850027467496 91.85002746749679 91.88079106390771 91.91155466031861 91.94231825672954 91.97308185314044 91.97308185314044 91.97308185314044 91.97308185314044 92.00384544955136 91.97308185314044 91.97308185314044 91.97308185314044 92.00384544955136 91.97308185314044 91.97308185314044 91.97308185314044 91.97308185314044 91.97308185314044 91.97308185314044 91.97308185314044 91.97308185314044 91.97308185314044 91.97308185314044 91.97308185314044 91.97308185314044 91.97308185314044 91.94231825672954 91.94231825672954 91.94231825672954 91.94231825672954 91.94231825672954 91.94231825672954 91.94231825672954 91.94231825672954 91.94231825672954 91.94231825672954 91.94231825672954 91.94231825672954 91.94231825672954 91.91155466031861 91.94231825672954 91.91155466031861 91.91155466031861 91.94231825672954 91.91155466031861 91.91155466031861 91.94231825672954 91.91155466031861 91.91155466031861 91.94231825672954 91.91155466031861 91.88079106390771 91.85002746749679 91.85002746749679 91.78850027467496 91.75773667826405 91.69620948544222 91.69620948544222 91.69620948544222 91.69620948544222 91.69620948544222 91.69620948544222 91.69620948544222 91.69620948544222 91.69620948544222 91.69620948544222 91.72697308185315 91.69620948544222 91.69620948544222 91.69620948544222 91.69620948544222 91.69620948544222 91.72697308185315 91.75773667826405 91.72697308185315 91.69620948544222 91.69620948544222 91.69620948544222 91.6654458890313 91.6654458890313 91.6654458890313 91.6654458890313 91.6654458890313 91.6654458890313 91.6654458890313 91.6346822926204 91.6346822926204 91.6346822926204 91.6346822926204 91.6346822926204 91.6346822926204 91.6346822926204 91.6346822926204 91.6346822926204 91.6346822926204 91.60391869620949 91.60391869620949 91.60391869620949 91.57315509979856 91.57315509979856 91.57315509979856 91.57315509979856 91.57315509979856 91.57315509979856 91.51162790697674 91.51162790697674 91.51162790697674 91.48086431056583 91.48086431056583 91.48086431056583 91.48086431056583 91.48086431056583 91.48086431056583 91.48086431056583 91.48086431056583 91.48086431056583 91.48086431056583 91.48086431056583 91.48086431056583 91.48086431056583 91.48086431056583 91.48086431056583 91.48086431056583 91.4501007141549 91.35780992492217 91.32704632851126 91.26551913568943 91.26551913568943 91.2039919428676 91.2039919428676 91.14246475004578 91.14246475004578 91.14246475004578 91.11170115363487 91.11170115363487 91.11170115363487 91.08093755722395 91.11170115363487 91.11170115363487 91.11170115363487 91.11170115363487 91.11170115363487 91.11170115363487 91.11170115363487 91.11170115363487 91.11170115363487 91.11170115363487 91.08093755722395 91.11170115363487 91.11170115363487 91.11170115363487 91.11170115363487 91.11170115363487 91.11170115363487 91.11170115363487 91.11170115363487 91.11170115363487 91.11170115363487 91.11170115363487 91.11170115363487 91.11170115363487 91.14246475004578 91.11170115363487 91.11170115363487 91.11170115363487 91.11170115363487 91.11170115363487 91.11170115363487 91.11170115363487 91.11170115363487 91.11170115363487 91.11170115363487 91.11170115363487 91.11170115363487 91.08093755722395 91.11170115363487 91.08093755722395 91.11170115363487 91.08093755722395 91.08093755722395 91.08093755722395 91.08093755722395 91.08093755722395 91.08093755722395 91.05017396081303 91.08093755722395 91.08093755722395 91.08093755722395 91.08093755722395 91.08093755722395 91.08093755722395 91.11170115363487 91.11170115363487 91.11170115363487 91.11170115363487 91.11170115363487 91.11170115363487 91.11170115363487 91.11170115363487 91.11170115363487 91.11170115363487 91.11170115363487 91.11170115363487 91.11170115363487 91.11170115363487 91.11170115363487 91.11170115363487 91.11170115363487 91.11170115363487 91.11170115363487 91.14246475004578 91.14246475004578 91.14246475004578 91.11170115363487 91.05017396081303 91.01941036440212 90.98864676799121 91.01941036440212 90.98864676799121 90.98864676799121 90.98864676799121 90.98864676799121 90.98864676799121 90.98864676799121 90.98864676799121 90.98864676799121 90.98864676799121 90.98864676799121 90.98864676799121 90.98864676799121 90.98864676799121 90.98864676799121 90.95788317158029 90.92711957516937 90.86559238234756 90.80406518952573 90.77330159311481 90.71177440029297 90.65024720747115 90.61948361106025 90.58872001464934 90.5271928218275 90.46566562900567 90.43490203259475 90.40413843618384 90.37337483977294 90.34261124336201 90.3118476469511 90.28108405054019 90.28108405054019 90.28108405054019 90.3118476469511 90.3118476469511 90.3118476469511 90.3118476469511 90.3118476469511 90.34261124336201 90.34261124336201 90.34261124336201 90.34261124336201 90.34261124336201 90.34261124336201 90.34261124336201 90.34261124336201 90.34261124336201 90.34261124336201 90.3118476469511 90.34261124336201 90.34261124336201 90.3118476469511 90.34261124336201 90.34261124336201 90.34261124336201 90.34261124336201 90.34261124336201 90.3118476469511 90.34261124336201 90.34261124336201 90.34261124336201 90.34261124336201 90.34261124336201 90.34261124336201 90.34261124336201 90.34261124336201 90.34261124336201 90.3118476469511 90.3118476469511 90.3118476469511 90.3118476469511 90.25032045412928 90.15802966489653 90.0657388756638 90.00421168284197 89.85039370078741 89.69657571873282 89.48123054385643 89.20435817615821 88.98901300128182 88.65061344076176 88.37374107306354 87.78923274125617 87.32777879509247 87.02014283098333 86.65097967405237 86.09723493865592 85.66654458890312 84.80516388939753 84.34370994323385 83.60538362937191 82.95934810474272 82.49789415857902 81.75956784471708 81.20582310932063 80.65207837392418 80.0368064457059 79.42153451748763 79.02160776414576 78.49862662516023 78.16022706464017 77.48342794360008 77.14502838308002 76.8681560153818 76.40670206921808 76.06830250869804 75.57608496612343 74.93004944149423 74.59164988097417 74.09943233839957 73.57645119941402 73.36110602453763 72.89965207837392 72.56125251785386 71.82292620399194 71.2999450650064 70.93078190807545 70.4078007690899 69.88481963010437 69.54642006958431 69.02343893059879 68.65427577366782 68.13129463468229 67.57754989928584 67.20838674235489 66.68540560336935 65.97784288591834 65.79326130745284 65.2395165720564 64.87035341512544 64.31660867972897 63.79362754074345 63.20911920893609 62.68613806995056 62.16315693096502 61.97857535249954 61.48635780992492 60.994140267350296 60.47115912836477 59.94817798937923 59.60977842885918 59.086797289873644 58.71763413294268 58.04083501190259 57.70243545138253 57.33327229445156 56.841054751876946 56.348837209302324 55.97967405237136 55.48745650979674 55.11829335286578 54.59531221388024 54.072331074894706 53.70316791796374 53.14942318256729 52.38033327229445 52.16498809741805 51.39589818714521 50.96520783739241 50.34993590917414 49.980772752243176 49.39626442043581 48.84251968503936 48.25801135323201 47.82732100347921 47.27357626808276 46.81212232191906 46.350668375755355 45.79692364035891 45.427760483427946 44.90477934444241 44.35103460904596 43.79728987364952 43.305072331074896 42.99743636696576 42.59750961362388 42.07452847463834 41.73612891411829 41.243911371543675 40.597875846914484 40.22871268998352 39.7364951474089 39.367331990477936 38.81358725508149 38.50595129097235 38.04449734480864 37.521516205823104 37.02929866324849 36.69089910272844 36.198681560153815 35.737227613990115 35.39882805347006 35.029664896539096 34.783556125251785 34.537447353964474 34.29133858267716 34.16828419703351 33.89141182933528 33.67606665445889 33.368430690349754 33.18384911188427 32.99926753341879 32.814685954953305 32.59934078007691 32.414759201611425 32.23017762314594 32.107123237502286 32.04559604468046 31.984068851858634 31.922541659036806 31.891778062625892 31.830250869804065 31.768723676982237 31.70719648416041 31.64566929133858 31.55337850210584 31.491851309284012 31.461087712873102 31.36879692364036 31.307269730818533 31.153451748763963 30.999633766709394 30.907342977476652 30.753524995422083 30.66123420618934 30.5689434169566 30.445889031312948 30.38436183849112 30.29207104925838 30.23054385643655 30.199780260025637 30.169016663614723 30.13825306720381 30.13825306720381 30.107489470792896 30.107489470792896 30.07672587438198 30.07672587438198 30.07672587438198 30.045962277971068 30.015198681560154 30.015198681560154 29.98443508514924 29.98443508514924 29.953671488738326 29.922907892327412 29.8921442959165 29.8921442959165 29.861380699505585 29.861380699505585 29.83061710309467 29.83061710309467 29.83061710309467 29.799853506683757 29.83061710309467 29.799853506683757 29.799853506683757 29.799853506683757 29.799853506683757 29.799853506683757 29.799853506683757 29.799853506683757 29.799853506683757 29.799853506683757 29.799853506683757 29.799853506683757 29.799853506683757 29.799853506683757 29.799853506683757 29.799853506683757 29.799853506683757 29.799853506683757 29.799853506683757 29.799853506683757 29.799853506683757 29.799853506683757 29.799853506683757 29.799853506683757 29.799853506683757 29.799853506683757 29.799853506683757 29.799853506683757 29.799853506683757 29.769089910272843 29.799853506683757 29.799853506683757 29.799853506683757 29.799853506683757 29.799853506683757 29.769089910272843 29.799853506683757 29.799853506683757 29.799853506683757 29.799853506683757 29.769089910272843 29.799853506683757 29.769089910272843 29.769089910272843 29.769089910272843 29.769089910272843 29.769089910272843 29.769089910272843 29.769089910272843 29.769089910272843 29.769089910272843 29.769089910272843 29.769089910272843 29.769089910272843 29.769089910272843 29.769089910272843 29.73832631386193 29.769089910272843 29.769089910272843 29.769089910272843 29.73832631386193 29.73832631386193 29.73832631386193 29.73832631386193 29.73832631386193 29.73832631386193 29.73832631386193 29.73832631386193 29.73832631386193 29.73832631386193 29.73832631386193 29.73832631386193 29.73832631386193 29.73832631386193 29.73832631386193 29.73832631386193 29.73832631386193 29.73832631386193 29.73832631386193 29.73832631386193 29.73832631386193 29.73832631386193 29.73832631386193 29.73832631386193 29.73832631386193 29.73832631386193 29.73832631386193 29.73832631386193 29.73832631386193 29.73832631386193 29.73832631386193 29.73832631386193 29.73832631386193 29.73832631386193 29.73832631386193 29.73832631386193 29.73832631386193 29.73832631386193 29.73832631386193 29.73832631386193 29.73832631386193 29.73832631386193 29.73832631386193 29.73832631386193 29.73832631386193 29.73832631386193 29.73832631386193 29.73832631386193 29.73832631386193 29.73832631386193 29.73832631386193 29.73832631386193 29.73832631386193 29.73832631386193 29.73832631386193 29.73832631386193 29.73832631386193 29.73832631386193 29.73832631386193 29.73832631386193 29.73832631386193 29.73832631386193 29.73832631386193 29.73832631386193 29.73832631386193 29.73832631386193 29.73832631386193 29.73832631386193 29.73832631386193 29.73832631386193 29.73832631386193 29.73832631386193 29.73832631386193 29.73832631386193 29.73832631386193 29.73832631386193 29.73832631386193 29.73832631386193 29.73832631386193 29.73832631386193 29.73832631386193 29.73832631386193 29.73832631386193 29.73832631386193 29.73832631386193 29.73832631386193 29.73832631386193 29.73832631386193 29.73832631386193 29.73832631386193 29.73832631386193 29.73832631386193 29.73832631386193 29.73832631386193 29.73832631386193 29.73832631386193 29.73832631386193 29.73832631386193 29.73832631386193 29.73832631386193 29.73832631386193 29.73832631386193 29.73832631386193 29.73832631386193 29.73832631386193 29.73832631386193 29.73832631386193 29.73832631386193 29.73832631386193 29.73832631386193 29.73832631386193 29.73832631386193 29.73832631386193 29.73832631386193 29.73832631386193 29.707562717451015 29.73832631386193 29.73832631386193 29.73832631386193 29.73832631386193 29.73832631386193 29.73832631386193 29.73832631386193 29.73832631386193 29.707562717451015 29.73832631386193 29.73832631386193 29.73832631386193 29.73832631386193 29.73832631386193 29.73832631386193 29.73832631386193 29.73832631386193 29.73832631386193 29.73832631386193 29.73832631386193 29.73832631386193 29.73832631386193 29.707562717451015 29.73832631386193 29.73832631386193 29.73832631386193 29.73832631386193 29.73832631386193 29.73832631386193 29.73832631386193 29.73832631386193 29.73832631386193 29.73832631386193 29.73832631386193 29.73832631386193 29.73832631386193 29.73832631386193 29.73832631386193 29.73832631386193 29.73832631386193 29.73832631386193 29.73832631386193 29.73832631386193 29.73832631386193 29.73832631386193 29.73832631386193 29.73832631386193 29.73832631386193 29.73832631386193 29.73832631386193 29.769089910272843 29.73832631386193 29.769089910272843 29.769089910272843 29.769089910272843 29.799853506683757 29.799853506683757 29.799853506683757 29.83061710309467 29.83061710309467 29.861380699505585 29.8921442959165 29.922907892327412 29.953671488738326 29.98443508514924 30.045962277971068 30.13825306720381 30.23054385643655 30.353598242080206 30.507416224134772 30.691997802600255 30.81505218824391 30.938106573887566 31.153451748763963 31.430324116462188 31.70719648416041 31.95330525544772 32.260941219556855 32.47628639443325 32.69163156930965 32.93774034059696 33.18384911188427 33.49148507599341 33.922175425746204 34.19904779344442 34.8143197216627 35.21424647500458 35.61417322834646 36.106390770921074 36.53708112067387 37.21388024171397 38.10602453763047 38.629005676616 39.367331990477936 39.921076725874386 40.75169382896905 41.27467496795458 41.82841970335103 42.78209119208936 43.52041750595129 44.04339864493682 44.874015748031496 45.427760483427946 46.2276139901117 47.02746749679545 47.550448635780995 48.319538546053835 49.08862845632668 49.61160959531221 50.31917231276323 51.08826222303607 51.79582494048709 52.22651529023988 52.68796923640359 53.364768357443694 54.01080388207288 54.68760300311298 55.30287493133125 55.73356528108405 56.348837209302324 56.964109137520595 57.39479948727339 58.071598608313494 58.65610694012086 59.117560886284565 59.82512360373558 60.28657754989928 60.994140267350296 61.76323017762314 62.31697491301959 63.08606482329243 63.916681926387106 64.50119025819447 65.27028016846731 65.88555209668559 66.93151437465664 67.48525911005311 68.00824024903864 69.05420252700969 69.66947445522797 70.28474638344625 70.96154550448635 71.4845266434719 72.25361655374473 72.99194286760667 73.5456876030031 74.34554110968686 74.89928584508331 75.57608496612343 76.34517487639626 76.80662882255997 77.45266434718914 78.09869987181834 78.52939022157113 79.02160776414576 79.39077092107672 80.06757004211681 80.49826039186962 80.86742354880059 81.17505951290971 81.54422266984068 81.8210950375389 82.34407617652444 82.62094854422267 82.92858450833181 83.26698406885185 83.51309284013917 83.94378318989196 84.31294634682291 84.62058231093206 85.05127266068484 85.42043581761581 85.72807178172496 86.09723493865592 86.37410730635415 86.92785204175058 87.23548800585974 87.45083318073613 87.850759934078 88.12763230177623 88.65061344076176 89.05054019410363 89.35817615821279 89.69657571873282 90.0965024720747 90.21955685771836 90.68101080388206 90.89635597875846 91.23475553927851 91.51162790697674 91.6654458890313 91.94231825672954 92.34224501007142 92.49606299212599 92.61911737776964 92.80369895623511 92.98828053470059 93.203625709577 93.32668009522065 93.54202527009704 93.60355246291888 93.6650796557407 93.72660684856253 93.75737044497345 93.75737044497345 93.72660684856253 93.75737044497345 93.75737044497345 93.75737044497345 93.78813404138435 93.75737044497345 93.75737044497345 93.75737044497345 93.75737044497345 93.75737044497345 93.78813404138435 93.81889763779527 93.81889763779527 93.84966123420618 93.84966123420618 93.84966123420618 93.84966123420618 93.84966123420618 93.84966123420618 93.84966123420618 93.84966123420618 93.84966123420618 93.84966123420618 93.84966123420618 93.84966123420618 93.84966123420618 93.84966123420618 93.84966123420618 93.84966123420618 93.84966123420618 93.84966123420618 93.81889763779527 93.84966123420618 93.84966123420618 93.81889763779527 93.84966123420618 93.81889763779527 93.84966123420618 93.84966123420618 93.84966123420618 93.84966123420618 93.81889763779527 93.84966123420618 93.84966123420618 93.81889763779527 93.84966123420618 93.84966123420618 93.84966123420618 93.81889763779527 93.81889763779527 93.81889763779527 93.84966123420618 93.81889763779527 93.81889763779527 93.84966123420618 93.84966123420618 93.84966123420618 93.81889763779527 93.81889763779527 93.84966123420618 93.81889763779527 93.78813404138435 93.78813404138435 93.78813404138435 93.78813404138435 93.78813404138435 93.78813404138435 93.75737044497345 93.72660684856253 93.72660684856253 93.72660684856253 93.72660684856253 93.72660684856253 93.72660684856253 93.72660684856253 93.72660684856253 93.72660684856253 93.72660684856253 93.72660684856253 93.72660684856253 93.72660684856253 93.72660684856253 93.72660684856253 93.72660684856253 93.75737044497345 93.72660684856253 93.72660684856253 93.72660684856253 93.72660684856253 93.72660684856253 93.72660684856253 93.72660684856253 93.72660684856253 93.72660684856253 93.72660684856253 93.72660684856253 93.69584325215162 93.69584325215162 93.69584325215162 93.6650796557407 93.6650796557407 93.6650796557407 93.6650796557407 93.6650796557407 93.69584325215162 93.6650796557407 93.6650796557407 93.69584325215162 93.69584325215162 93.69584325215162 93.69584325215162 93.6650796557407 93.69584325215162 93.6650796557407 93.69584325215162 93.6650796557407 93.6650796557407 93.6650796557407 93.6650796557407 93.6650796557407 93.6650796557407 93.6650796557407 93.6650796557407 93.6650796557407 93.6650796557407 93.6650796557407 93.6650796557407 93.6650796557407 93.6650796557407 93.6650796557407 93.6650796557407 93.6650796557407 93.6650796557407 93.6650796557407 93.6650796557407 93.6650796557407 93.6650796557407 93.6650796557407 93.6650796557407 93.6650796557407 93.63431605932979 93.63431605932979 93.60355246291888 93.60355246291888 93.60355246291888 93.57278886650798 93.54202527009704 93.54202527009704 93.48049807727523 93.48049807727523 93.44973448086432 93.38820728804248 93.35744369163156 93.29591649880975 93.2343893059879 93.14209851675518 93.04980772752243 93.01904413111153 92.98828053470059 92.92675334187877 92.92675334187877 92.86522614905695 92.86522614905695 92.86522614905695 92.83446255264604 92.83446255264604 92.80369895623511 92.80369895623511 92.80369895623511 92.80369895623511 92.80369895623511 92.80369895623511 92.80369895623511 92.83446255264604 92.83446255264604 92.83446255264604 92.80369895623511 92.83446255264604 92.83446255264604 92.86522614905695 92.83446255264604 92.83446255264604 92.83446255264604 92.86522614905695 92.83446255264604 92.83446255264604 92.83446255264604 92.83446255264604 92.83446255264604 92.86522614905695 92.83446255264604 92.86522614905695 92.86522614905695 92.83446255264604 92.86522614905695 92.86522614905695 92.83446255264604 92.86522614905695 92.86522614905695 92.86522614905695 92.86522614905695 92.83446255264604 92.86522614905695 92.86522614905695 92.86522614905695 92.83446255264604 92.86522614905695 92.86522614905695 92.86522614905695 92.83446255264604 92.83446255264604 92.80369895623511 92.86522614905695 92.83446255264604 92.83446255264604 92.83446255264604 92.83446255264604 92.86522614905695 92.83446255264604 92.83446255264604 92.83446255264604 92.80369895623511 92.83446255264604 92.83446255264604 92.83446255264604 92.83446255264604 92.83446255264604 92.83446255264604 92.83446255264604 92.83446255264604 92.80369895623511 92.80369895623511 92.80369895623511 92.83446255264604 92.80369895623511 92.83446255264604 92.80369895623511 92.83446255264604 92.80369895623511 92.83446255264604 92.80369895623511 92.80369895623511 92.83446255264604 92.80369895623511 92.80369895623511 92.80369895623511 92.80369895623511 92.80369895623511 92.80369895623511 92.7729353598242 92.7421717634133 92.68064457059145 92.61911737776964 92.58835378135873 92.55759018494781 92.5268265885369 92.49606299212599 92.46529939571508 92.43453579930414 92.40377220289324 92.37300860648233 92.34224501007142 92.31148141366049 92.24995422083867 92.21919062442777 92.18842702801683 92.15766343160593 92.09613623878411 92.00384544955136 91.91155466031861 91.69620948544222 91.57315509979856 91.35780992492217 91.08093755722395 90.86559238234756 90.58872001464934 90.37337483977294 90.12726606848562 89.88115729719831 89.66581212232191 89.35817615821279 89.05054019410363 88.83519501922726 88.46603186229628 88.09686870536532 87.81999633766708 87.32777879509247 87.1739608130379 86.55868888481963 86.25105292071049 85.94341695660134 85.51272660684856 85.05127266068484 84.7128731001648 84.0360739791247 83.66691082219373 83.1746932796191 82.74400292986633 82.40560336934627 81.94414942318257 81.42116828419702 80.9289507416224 80.4367331990478 80.09833363852775 79.60611609595313 79.14466214978941 78.80626258926935 78.34480864310567 78.03717267899651 77.5449551364219 77.08350119025819 76.74510162973814 76.12982970151987 75.7606665445889 75.45303058047976 74.96081303790514 74.56088628456325 74.03790514557772 73.5149240065922 72.96117927119576 72.49972532503205 72.03827137886833 71.63834462552646 70.86925471525362 70.377037172679 69.66947445522797 68.99267533418788 68.50045779161326 67.85442226698407 67.20838674235489 66.77769639260208 66.10089727156199 65.63944332539828 64.93188060794725 64.25508148690716 63.79362754074345 63.08606482329243 62.19392052737594 61.8862845632668 61.240249038637614 60.74803149606299 59.978941585790146 59.2098516755173 58.99450650064091 58.071598608313494 57.39479948727339 57.08716352316425 56.502655191356894 55.79509247390588 55.149056949276684 54.47225782823658 53.980040285661964 53.27247756821095 52.56491485075993 52.103460904596226 51.39589818714521 50.903680644570585 50.288408716352315 49.70390038454495 49.119392052737595 48.719465299395715 48.38106573887566 47.85808459989013 47.36586705731551 47.02746749679545 46.53524995422084 45.91997802600257 45.61234206189343 45.181651712140635 44.874015748031496 44.56637978392236 44.074162241347736 43.7665262772386 43.33583592748581 42.93590917414393 42.659036806445705 42.259110053103825 41.7668925105292 41.42849295000916 41.02856619666728 40.72093023255814 40.25947628639443 39.79802234023072 39.30580479765611 38.8443508514924 38.50595129097235 38.10602453763047 37.82915216993224 37.521516205823104 37.09082585607032 36.506317524262954 36.198681560153815 35.79875480681194 35.46035524629189 35.15271928218275 34.8143197216627 34.537447353964474 34.229811389855335 33.95293902215711 33.79912104010255 33.55301226881524 33.39919428676067 33.09155832265153 32.93774034059696 32.84544955136422 32.660867972898735 32.507049990844166 32.38399560520051 32.107123237502286 32.014832448269544 31.86101446621498 31.768723676982237 31.64566929133858 31.461087712873102 31.307269730818533 31.21497894158579 31.06116095953122 30.907342977476652 30.784288591832997 30.5689434169566 30.445889031312948 30.29207104925838 30.169016663614723 30.07672587438198 30.015198681560154 29.98443508514924 29.922907892327412 29.8921442959165 29.861380699505585 29.861380699505585 29.861380699505585 29.83061710309467 29.861380699505585 29.861380699505585 29.83061710309467 29.861380699505585 29.861380699505585 29.83061710309467 29.83061710309467 29.83061710309467 29.83061710309467 29.83061710309467 29.83061710309467 29.83061710309467 29.799853506683757 29.799853506683757 29.83061710309467 29.799853506683757 29.799853506683757 29.799853506683757 29.799853506683757 29.799853506683757 29.799853506683757 29.799853506683757 29.799853506683757 29.799853506683757 29.799853506683757 29.799853506683757 29.799853506683757 29.799853506683757 29.769089910272843 29.799853506683757 29.799853506683757 29.799853506683757 29.799853506683757 29.769089910272843 29.799853506683757 29.799853506683757 29.769089910272843 29.769089910272843 29.769089910272843 29.73832631386193 29.73832631386193 29.73832631386193 29.73832631386193 29.73832631386193 29.73832631386193 29.73832631386193 29.73832631386193 29.73832631386193 29.73832631386193 29.73832631386193 29.73832631386193 29.707562717451015 29.73832631386193 29.73832631386193 29.73832631386193 29.73832631386193 29.707562717451015 29.73832631386193 29.73832631386193 29.73832631386193 29.73832631386193 29.73832631386193 29.73832631386193 29.707562717451015 29.73832631386193 29.73832631386193 29.73832631386193 29.73832631386193 29.73832631386193 29.73832631386193 29.707562717451015 29.73832631386193 29.73832631386193 29.73832631386193 29.73832631386193 29.73832631386193 29.73832631386193 29.73832631386193 29.707562717451015 29.73832631386193 29.73832631386193 29.73832631386193 29.73832631386193 29.73832631386193 29.73832631386193 29.73832631386193 29.73832631386193 29.73832631386193 29.73832631386193 29.73832631386193 29.707562717451015 29.707562717451015 29.707562717451015 29.707562717451015 29.707562717451015 29.707562717451015 29.707562717451015 29.707562717451015 29.707562717451015 29.707562717451015 29.707562717451015 29.707562717451015 29.707562717451015 29.707562717451015 29.707562717451015 29.707562717451015 29.707562717451015 29.707562717451015 29.707562717451015 29.707562717451015 29.707562717451015 29.707562717451015 29.707562717451015 29.707562717451015 29.707562717451015 29.707562717451015 29.707562717451015 29.6767991210401 29.707562717451015 29.6767991210401 29.707562717451015 29.707562717451015 29.6767991210401 29.707562717451015 29.707562717451015 29.707562717451015 29.707562717451015 29.6767991210401 29.6767991210401 29.6767991210401 29.6767991210401 29.6767991210401 29.6767991210401 29.6767991210401 29.6767991210401 29.6767991210401 29.6767991210401 29.6767991210401 29.6767991210401 29.6767991210401 29.6767991210401 29.6767991210401 29.6767991210401 29.6767991210401 29.6767991210401 29.6767991210401 29.6767991210401 29.6767991210401 29.6767991210401 29.6767991210401 29.6767991210401 29.6767991210401 29.6767991210401 29.6767991210401 29.6767991210401 29.6767991210401 29.6767991210401 29.6767991210401 29.6767991210401 29.6767991210401 29.6767991210401 29.6767991210401 29.6767991210401 29.6767991210401 29.6767991210401 29.6767991210401 29.6767991210401 29.6767991210401 29.6767991210401 29.6767991210401 29.707562717451015 29.707562717451015 29.6767991210401 29.707562717451015 29.707562717451015 29.707562717451015 29.707562717451015 29.73832631386193 29.73832631386193 29.769089910272843 29.769089910272843 29.799853506683757 29.83061710309467 29.861380699505585 29.8921442959165 29.953671488738326 30.015198681560154 30.169016663614723 30.322834645669293 30.415125434902034 30.5689434169566 30.72276139901117 30.845815784654825 31.06116095953122 31.307269730818533 31.55337850210584 31.830250869804065 32.014832448269544 32.23017762314594 32.44552279802234 32.59934078007691 32.814685954953305 33.09155832265153 33.27613990111701 33.614539461637065 33.860648232924376 34.383629371909905 34.69126533601904 35.06042849295001 35.76799121040103 36.32173594579747 36.56784471708478 37.33693462735763 37.798388573521336 38.44442409815052 39.121223219190625 39.61344076176525 40.35176707562717 41.18238417872185 41.73612891411829 42.53598242080205 43.12049075260941 43.79728987364952 44.56637978392236 44.99707013367515 45.735396447537084 46.442959164988096 47.212049075260936 47.95037538912287 48.38106573887566 49.119392052737595 49.580845998901296 50.042299945065004 50.74986266251602 51.457425379967034 52.13422450100714 52.84178721845816 53.364768357443694 54.01080388207288 54.7183665995239 55.179820545687605 55.85661966672771 56.348837209302324 57.02563633034242 57.70243545138253 58.47152536165537 59.14832448269547 59.60977842885918 60.132759567844715 60.84032228529573 61.30177623145944 62.31697491301959 62.99377403405969 63.516755173045226 64.22431789049625 64.74729902948178 65.2395165720564 66.22395165720565 66.71616919978025 67.45449551364219 68.19282182750412 68.71580296648965 69.39260208752975 70.28474638344625 70.59238234755539 71.08459989013001 71.54605383629371 72.19208936092289 72.77659769273026 73.23805163889398 73.97637795275591 74.56088628456325 74.93004944149423 75.36073979124703 75.66837575535615 76.2221204907526 76.8681560153818 77.17579197949092 77.60648232924373 78.0064090825856 78.28328145028382 78.71397180003662 78.96008057132393 79.3292437282549 79.72917048159677 80.0368064457059 80.4367331990478 80.83665995238968 81.23658670573155 81.5749862662516 81.88262223036074 82.31331258011353 82.77476652627723 83.11316608679729 83.72843801501557 84.0360739791247 84.34370994323385 84.80516388939753 85.1435634499176 85.72807178172496 86.09723493865592 86.43563449917598 86.98937923457241 87.32777879509247 87.63541475920161 88.18915949459806 88.4967954587072 88.92748580845998 89.35817615821279 89.66581212232191 90.03497527925288 90.3118476469511 90.71177440029297 91.08093755722395 91.32704632851126 91.6654458890313 91.94231825672954 92.12689983519502 92.34224501007142 92.43453579930414 92.58835378135873 92.61911737776964 92.68064457059145 92.80369895623511 92.86522614905695 92.86522614905695 92.92675334187877 92.92675334187877 92.95751693828969 92.95751693828969 92.98828053470059 92.98828053470059 93.04980772752243 93.04980772752243 93.11133492034425 93.14209851675518 93.17286211316609 93.17286211316609 93.203625709577 93.2343893059879 93.2343893059879 93.2343893059879 93.2343893059879 93.203625709577 93.2343893059879 93.2343893059879 93.203625709577 93.2343893059879 93.2343893059879 93.203625709577 93.2343893059879 93.203625709577 93.203625709577 93.203625709577 93.203625709577 93.203625709577 93.203625709577 93.17286211316609 93.17286211316609 93.17286211316609 93.17286211316609 93.17286211316609 93.17286211316609 93.17286211316609 93.14209851675518 93.14209851675518 93.14209851675518 93.17286211316609 93.14209851675518 93.14209851675518 93.14209851675518 93.14209851675518 93.14209851675518 93.14209851675518 93.14209851675518 93.14209851675518 93.14209851675518 93.14209851675518 93.11133492034425 93.14209851675518 93.11133492034425 93.11133492034425 93.11133492034425 93.11133492034425 93.11133492034425 93.11133492034425 93.11133492034425 93.11133492034425 93.08057132393334 93.08057132393334 93.08057132393334 93.11133492034425 93.08057132393334 93.08057132393334 93.08057132393334 93.04980772752243 93.04980772752243 93.01904413111153 93.01904413111153 93.01904413111153 92.98828053470059 92.98828053470059 92.95751693828969 92.89598974546786 92.89598974546786 92.86522614905695 92.83446255264604 92.83446255264604 92.80369895623511 92.80369895623511 92.80369895623511 92.80369895623511 92.80369895623511 92.80369895623511 92.80369895623511 92.80369895623511 92.80369895623511 92.80369895623511 92.80369895623511 92.80369895623511 92.80369895623511 92.80369895623511 92.7729353598242 92.7421717634133 92.7729353598242 92.7729353598242 92.7729353598242 92.7729353598242 92.7729353598242 92.7421717634133 92.7421717634133 92.7421717634133 92.7421717634133 92.7421717634133 92.7421717634133 92.7421717634133 92.71140816700239 92.64988097418055 92.61911737776964 92.58835378135873 92.49606299212599 92.46529939571508 92.43453579930414 92.43453579930414 92.43453579930414 92.43453579930414 92.43453579930414 92.43453579930414 92.40377220289324 92.43453579930414 92.43453579930414 92.43453579930414 92.43453579930414 92.43453579930414 92.43453579930414 92.43453579930414 92.40377220289324 92.40377220289324 92.37300860648233 92.37300860648233 92.34224501007142 92.34224501007142 92.34224501007142 92.31148141366049 92.31148141366049 92.31148141366049 92.31148141366049 92.28071781724958 92.31148141366049 92.28071781724958 92.31148141366049 92.28071781724958 92.28071781724958 92.28071781724958 92.24995422083867 92.28071781724958 92.28071781724958 92.24995422083867 92.24995422083867 92.28071781724958 92.24995422083867 92.24995422083867 92.24995422083867 92.24995422083867 92.24995422083867 92.28071781724958 92.24995422083867 92.24995422083867 92.24995422083867 92.24995422083867 92.24995422083867 92.24995422083867 92.28071781724958 92.24995422083867 92.28071781724958 92.28071781724958 92.28071781724958 92.28071781724958 92.28071781724958 92.28071781724958 92.28071781724958 92.28071781724958 92.28071781724958 92.31148141366049 92.28071781724958 92.28071781724958 92.28071781724958 92.28071781724958 92.31148141366049 92.28071781724958 92.28071781724958 92.28071781724958 92.28071781724958 92.28071781724958 92.28071781724958 92.28071781724958 92.28071781724958 92.28071781724958 92.28071781724958 92.28071781724958 92.28071781724958 92.28071781724958 92.28071781724958 92.28071781724958 92.31148141366049 92.31148141366049 92.31148141366049 92.31148141366049 92.31148141366049 92.31148141366049 92.31148141366049 92.31148141366049 92.31148141366049 92.31148141366049 92.31148141366049 92.31148141366049 92.31148141366049 92.31148141366049 92.31148141366049 92.31148141366049 92.31148141366049 92.31148141366049 92.31148141366049 92.31148141366049 92.31148141366049 92.31148141366049 92.31148141366049 92.31148141366049 92.34224501007142 92.34224501007142 92.34224501007142 92.37300860648233 92.37300860648233 92.34224501007142 92.34224501007142 92.37300860648233 92.34224501007142 92.37300860648233 92.34224501007142 92.34224501007142 92.37300860648233 92.37300860648233 92.40377220289324 92.40377220289324 92.40377220289324 92.40377220289324 92.37300860648233 92.40377220289324 92.40377220289324 92.40377220289324 92.40377220289324 92.40377220289324 92.37300860648233 92.40377220289324 92.43453579930414 92.40377220289324 92.40377220289324 92.40377220289324 92.43453579930414 92.40377220289324 92.40377220289324 92.40377220289324 92.40377220289324 92.37300860648233 92.31148141366049 92.24995422083867 92.12689983519502 92.09613623878411 91.91155466031861 91.81926387108588 91.75773667826405 91.60391869620949 91.4501007141549 91.29628273210034 91.11170115363487 90.89635597875846 90.65024720747115 90.46566562900567 90.28108405054019 89.88115729719831 89.66581212232191 89.35817615821279 89.05054019410363 88.80443142281632 88.43526826588536 88.03534151254348 87.78923274125617 87.35854239150339 86.9586156381615 86.58945248123054 86.066471342245 85.75883537813587 85.26661783556125 84.77440029298663 84.49752792528841 84.00531038271379 83.69767441860465 83.02087529756454 82.68247573704448 82.34407617652444 81.66727705548433 81.29811389855337 80.95971433803334 80.28291521699322 79.94451565647316 79.51382530672038 79.05237136055666 78.74473539644754 78.31404504669473 77.91411829335286 77.63724592565464 77.26808276872367 76.92968320820361 76.62204724409449 76.25288408716352 75.79143014099981 75.51455777330159 75.14539461637062 74.8377586522615 74.34554110968686 73.97637795275591 73.26881523530488 72.74583409631936 72.22285295733383 71.7306354147592 71.11536348654093 70.90001831166452 70.10016480498078 69.63871085881706 69.08496612342061 68.50045779161326 68.06976744186046 67.45449551364219 66.80845998901299 66.3470060428493 65.76249771104193 65.2395165720564 64.65500824024903 64.00897271561985 63.27064640175792 62.65537447353964 62.19392052737594 61.701702984801315 61.11719465299395 60.655740706830244 59.76359641091375 59.05603369346274 58.37923457242263 57.763962644204355 57.240981505218826 56.748763962644205 55.85661966672771 55.425929316974916 54.74913019593481 54.13385826771653 53.70316791796374 53.14942318256729 52.78026002563632 52.103460904596226 51.703534151254345 51.39589818714521 50.995971433803334 50.534517487639626 50.22688152353049 49.70390038454495 49.45779161325764 49.05786485991577 48.81175608862846 48.53488372093023 48.165720563999265 47.5812122321919 47.212049075260936 46.84288591832997 46.504486357809924 46.0122688152353 45.52005127266068 45.181651712140635 44.68943416956601 44.19721662699139 43.828053470060425 43.33583592748581 43.028199963376665 42.35140084233657 41.951474088994686 41.61307452847464 41.18238417872185 40.690166636147225 40.290239882805345 39.70573155099798 39.09045962277971 38.53671488738326 38.167551730452296 37.798388573521336 37.21388024171397 36.87548068119392 36.56784471708478 36.29097234938656 36.106390770921074 35.86028199963376 35.64493682475737 35.46035524629189 35.183482878593665 35.029664896539096 34.75279252884087 34.475920161142646 34.29133858267716 33.922175425746204 33.55301226881524 33.214612708295185 32.87621314777513 32.53781358725508 32.168650430324114 31.922541659036806 31.79948727339315 31.491851309284012 31.307269730818533 31.184215345174877 30.938106573887566 30.81505218824391 30.630470609778428 30.47665262772386 30.415125434902034 30.322834645669293 30.29207104925838 30.29207104925838 30.29207104925838 30.261307452847465 30.261307452847465 30.261307452847465 30.23054385643655 30.199780260025637 30.13825306720381 30.07672587438198 30.045962277971068 30.015198681560154 29.953671488738326 29.922907892327412 29.8921442959165 29.861380699505585 29.799853506683757 29.799853506683757 29.73832631386193 29.73832631386193 29.707562717451015 29.707562717451015 29.6767991210401 29.6767991210401 29.6767991210401 29.6767991210401 29.6767991210401 29.6767991210401 29.6767991210401 29.6767991210401 29.6767991210401 29.6767991210401 29.6767991210401 29.6767991210401 29.6767991210401 29.6767991210401 29.6767991210401 29.6767991210401 29.6767991210401 29.6767991210401 29.6767991210401 29.6767991210401 29.6767991210401 29.6767991210401 29.646035524629188 29.6767991210401 29.6767991210401 29.6767991210401 29.6767991210401 29.6767991210401 29.6767991210401 29.6767991210401 29.6767991210401 29.6767991210401 29.6767991210401 29.6767991210401 29.6767991210401 29.6767991210401 29.6767991210401 29.6767991210401 29.646035524629188 29.6767991210401 29.646035524629188 29.6767991210401 29.6767991210401 29.6767991210401 29.6767991210401 29.6767991210401 29.646035524629188 29.6767991210401 29.6767991210401 29.646035524629188 29.646035524629188 29.6767991210401 29.646035524629188 29.646035524629188 29.646035524629188 29.646035524629188 29.646035524629188 29.646035524629188 29.646035524629188 29.646035524629188 29.646035524629188 29.646035524629188 29.646035524629188 29.646035524629188 29.646035524629188 29.646035524629188 29.646035524629188 29.646035524629188 29.646035524629188 29.6767991210401 29.646035524629188 29.646035524629188 29.646035524629188 29.646035524629188 29.646035524629188 29.646035524629188 29.646035524629188 29.646035524629188 29.646035524629188 29.6767991210401 29.646035524629188 29.646035524629188 29.646035524629188 29.646035524629188 29.646035524629188 29.646035524629188 29.646035524629188 29.646035524629188 29.646035524629188 29.646035524629188 29.646035524629188 29.646035524629188 29.646035524629188 29.646035524629188 29.646035524629188 29.646035524629188 29.646035524629188 29.646035524629188 29.646035524629188 29.646035524629188 29.646035524629188 29.646035524629188 29.646035524629188 29.646035524629188 29.646035524629188 29.646035524629188 29.646035524629188 29.646035524629188 29.646035524629188 29.646035524629188 29.6767991210401 29.646035524629188 29.646035524629188 29.646035524629188 29.646035524629188 29.646035524629188 29.646035524629188 29.646035524629188 29.646035524629188 29.646035524629188 29.646035524629188 29.646035524629188 29.646035524629188 29.646035524629188 29.646035524629188 29.646035524629188 29.646035524629188 29.6767991210401 29.646035524629188 29.646035524629188 29.646035524629188 29.646035524629188 29.646035524629188 29.646035524629188 29.646035524629188 29.646035524629188 29.646035524629188 29.646035524629188 29.646035524629188 29.646035524629188 29.646035524629188 29.646035524629188 29.646035524629188 29.646035524629188 29.646035524629188 29.646035524629188 29.646035524629188 29.646035524629188 29.646035524629188 29.646035524629188 29.646035524629188 29.646035524629188 29.646035524629188 29.646035524629188 29.646035524629188 29.646035524629188 29.646035524629188 29.646035524629188 29.646035524629188 29.646035524629188 29.646035524629188 29.646035524629188 29.646035524629188 29.646035524629188 29.646035524629188 29.6767991210401 29.646035524629188 29.646035524629188 29.646035524629188 29.646035524629188 29.646035524629188 29.646035524629188 29.646035524629188 29.646035524629188 29.646035524629188 29.6767991210401 29.646035524629188 29.646035524629188 29.646035524629188 29.646035524629188 29.646035524629188 29.646035524629188 29.6767991210401 29.6767991210401 29.6767991210401 29.646035524629188 29.6767991210401 29.6767991210401 29.646035524629188 29.6767991210401 29.6767991210401 29.6767991210401 29.6767991210401 29.6767991210401 29.6767991210401 29.6767991210401 29.6767991210401 29.6767991210401 29.6767991210401 29.6767991210401 29.6767991210401 29.6767991210401 29.6767991210401 29.6767991210401 29.6767991210401 29.707562717451015 29.707562717451015 29.707562717451015 29.707562717451015 29.73832631386193 29.73832631386193 29.769089910272843 29.769089910272843 29.799853506683757 29.799853506683757 29.83061710309467 29.83061710309467 29.861380699505585 29.8921442959165 29.922907892327412 29.953671488738326 29.98443508514924 30.045962277971068 30.07672587438198 30.13825306720381 30.199780260025637 30.29207104925838 30.38436183849112 30.445889031312948 30.507416224134772 30.5689434169566 30.630470609778428 30.72276139901117 30.753524995422083 30.845815784654825 30.938106573887566 30.999633766709394 31.153451748763963 31.245742537996705 31.27650613440762 31.399560520051274 31.461087712873102 31.584142098516754 31.70719648416041 31.86101446621498 32.07635964109137 32.23017762314594 32.3532320087896 32.53781358725508 32.69163156930965 32.87621314777513 33.09155832265153 33.2453763047061 33.460721479582496 33.7068302508698 33.860648232924376 34.10675700421168 34.26057498626625 34.537447353964474 34.8143197216627 34.99890130012818 35.337300860648234 35.64493682475737 35.89104559604468 36.198681560153815 36.47555392785204 37.02929866324849 37.42922541659037 37.58304339864493 38.10602453763047 38.44442409815052 38.721296465848745 39.24427760483428 39.582677165354326 40.01336751510712 40.444057864859914 40.81322102179088 41.27467496795458 41.61307452847464 42.07452847463834 42.505218824391136 42.812854788500275 43.305072331074896 43.7665262772386 44.25874381981322 44.72019776597693 45.02783373008606 45.36623329060612 45.85845083318073 46.196850393700785 46.81212232191906 47.27357626808276 47.61197582860282 48.04266617835561 48.38106573887566 48.81175608862846 49.24244643838125 49.55008240249039 49.95000915583226 50.34993590917414 50.65757187328328 51.02673503021424 51.457425379967034 51.826588536898 52.07269730818531 52.34956967588353 52.718732832814496 53.118659586156376 53.54934993590917 53.980040285661964 54.31843984618202 54.81065738875664 55.149056949276684 55.48745650979674 56.195019227247755 56.748763962644205 57.14869071598608 57.763962644204355 58.25618018677898 58.809924922175426 59.45596044680461 59.94817798937923 60.56344991759751 61.055667460172124 61.701702984801315 62.31697491301959 62.77842885918329 63.670573155099795 64.16279069767441 64.5627174510163 65.20875297564548 65.67020692180918 66.28547885002746 67.30067753158761 67.48525911005311 68.10053103827138 68.53122138802416 68.90038454495513 69.70023805163889 70.03863761215894 70.59238234755539 71.17689067936274 71.63834462552646 72.16132576451199 72.74583409631936 73.14576084966123 73.69950558505768 74.13019593481047 74.653177073796 75.14539461637062 75.51455777330159 76.03753891228712 76.6528108405054 77.05273759384727 77.32960996154551 77.66800952206555 78.16022706464017 78.40633583592748 78.77549899285845 79.17542574620032 79.54458890313128 79.88298846365134 80.2213880241714 80.49826039186962 80.86742354880059 81.26735030214246 81.54422266984068 81.88262223036074 82.28254898370261 82.52865775498992 82.89782091192089 83.1439296832082 83.45156564731735 83.78996520783738 84.0360739791247 84.31294634682291 84.58981871452116 84.80516388939753 85.05127266068484 85.29738143197216 85.60501739608131 85.91265336019043 86.12799853506684 86.43563449917598 86.7125068668742 86.9586156381615 87.3893059879143 87.66617835561252 88.03534151254348 88.37374107306354 88.7429042299945 89.08130379051455 89.35817615821279 89.78886650796557 90.18879326130745 90.49642922541659 90.89635597875846 91.26551913568943 91.6654458890313 91.97308185314044 92.18842702801683 92.34224501007142 92.5268265885369 92.68064457059145 92.80369895623511 92.89598974546786 92.95751693828969 92.98828053470059 93.01904413111153 93.01904413111153 93.01904413111153 93.01904413111153 93.01904413111153 93.01904413111153 93.01904413111153 93.04980772752243 93.01904413111153 93.04980772752243 93.04980772752243 93.04980772752243 93.04980772752243 93.04980772752243 93.04980772752243 93.01904413111153 93.01904413111153 93.04980772752243 93.01904413111153 93.04980772752243 93.08057132393334 93.14209851675518 93.17286211316609 93.203625709577 93.203625709577 93.2343893059879 93.2343893059879 93.2343893059879 93.2343893059879 93.2343893059879 93.2343893059879 93.2343893059879 93.2343893059879 93.2343893059879 93.2343893059879 93.2343893059879 93.2343893059879 93.2343893059879 93.2343893059879 93.2343893059879 93.2343893059879 93.2343893059879 93.2343893059879 93.2343893059879 93.2343893059879 93.2343893059879 93.2343893059879 93.2343893059879 93.2343893059879 93.2343893059879 93.2343893059879 93.2343893059879 93.2343893059879 93.2343893059879 93.2343893059879 93.2343893059879 93.2343893059879 93.2343893059879 93.2343893059879 93.2343893059879 93.2343893059879 93.2343893059879 93.2343893059879 93.2343893059879 93.2343893059879 93.2343893059879 93.2343893059879 93.2343893059879 93.2343893059879 93.2343893059879 93.2343893059879 93.2343893059879 93.2343893059879 93.2343893059879 93.2343893059879 93.2343893059879 93.2343893059879 93.2343893059879 93.2343893059879 93.2343893059879 93.2343893059879 93.2343893059879 93.2343893059879 93.2343893059879 93.2343893059879 93.2343893059879 93.2343893059879 93.2343893059879 93.2343893059879 93.2343893059879 93.2343893059879 93.2343893059879 93.2343893059879 93.2343893059879 93.2343893059879 93.2343893059879 93.2343893059879 93.26515290239884 93.2343893059879 93.2343893059879 93.2343893059879 93.2343893059879 93.2343893059879 93.2343893059879 93.2343893059879 93.2343893059879 93.2343893059879 93.2343893059879 93.2343893059879 93.2343893059879 93.2343893059879 93.2343893059879 93.2343893059879 93.2343893059879 93.2343893059879 93.2343893059879 93.2343893059879 93.2343893059879 93.2343893059879 93.2343893059879 93.2343893059879 93.2343893059879 93.2343893059879 93.2343893059879 93.2343893059879 93.2343893059879 93.2343893059879 93.2343893059879 93.2343893059879 93.2343893059879 93.2343893059879 93.2343893059879 93.2343893059879 93.2343893059879 93.2343893059879 93.203625709577 93.2343893059879 93.2343893059879 93.2343893059879 93.2343893059879 93.2343893059879 93.2343893059879 93.2343893059879 93.2343893059879 93.2343893059879 93.2343893059879 93.2343893059879 93.2343893059879 93.2343893059879 93.2343893059879 93.2343893059879 93.2343893059879 93.2343893059879 93.2343893059879 93.2343893059879 93.2343893059879 93.2343893059879 93.203625709577 93.2343893059879 93.2343893059879 93.2343893059879 93.2343893059879 93.2343893059879 93.2343893059879 93.2343893059879 93.2343893059879 93.2343893059879 93.2343893059879 93.2343893059879 93.2343893059879 93.2343893059879 93.2343893059879 93.203625709577 93.203625709577 93.203625709577 93.2343893059879 93.2343893059879 93.2343893059879 93.203625709577 93.2343893059879 93.203625709577 93.203625709577 93.203625709577 93.203625709577 93.203625709577 93.203625709577 93.203625709577 93.203625709577 93.203625709577 93.203625709577 93.203625709577 93.203625709577 93.17286211316609 93.2343893059879 93.203625709577 93.203625709577 93.203625709577 93.17286211316609 93.17286211316609 93.17286211316609 93.17286211316609 93.17286211316609 93.17286211316609 93.17286211316609 93.17286211316609 93.17286211316609 93.14209851675518 93.17286211316609 93.17286211316609 93.17286211316609 93.14209851675518 93.14209851675518 93.14209851675518 93.14209851675518 93.14209851675518 93.14209851675518 93.17286211316609 93.14209851675518 93.17286211316609 93.17286211316609 93.14209851675518 93.14209851675518 93.14209851675518 93.14209851675518 93.17286211316609 93.14209851675518 93.17286211316609 93.14209851675518 93.14209851675518 93.14209851675518 93.17286211316609 93.17286211316609 93.17286211316609 93.14209851675518 93.14209851675518 93.14209851675518 93.14209851675518 93.14209851675518 93.14209851675518 93.14209851675518 93.14209851675518 93.11133492034425 93.11133492034425 93.11133492034425 93.11133492034425 93.11133492034425 93.11133492034425 93.11133492034425 93.11133492034425 93.11133492034425 93.11133492034425 93.11133492034425 93.14209851675518 93.14209851675518 93.11133492034425 93.11133492034425 93.11133492034425 93.11133492034425 93.11133492034425 93.14209851675518 93.11133492034425 93.11133492034425 93.11133492034425 93.11133492034425 93.11133492034425 93.11133492034425 93.11133492034425 93.11133492034425 93.11133492034425 93.11133492034425 93.11133492034425 93.11133492034425 93.11133492034425 93.11133492034425 93.11133492034425 93.11133492034425 93.11133492034425 93.11133492034425 93.11133492034425 93.11133492034425 93.11133492034425 93.11133492034425 93.08057132393334 93.11133492034425 93.11133492034425 93.11133492034425 93.11133492034425 93.11133492034425 93.04980772752243 93.04980772752243 92.98828053470059 92.98828053470059 92.92675334187877 92.86522614905695 92.7729353598242 92.7421717634133 92.64988097418055 92.55759018494781 92.46529939571508 92.37300860648233 92.31148141366049 92.21919062442777 92.15766343160593 92.09613623878411 92.00384544955136 91.94231825672954 91.85002746749679 91.78850027467496 91.75773667826405 91.6654458890313 91.6346822926204 91.60391869620949 91.54239150338765 91.51162790697674 91.4501007141549 91.35780992492217 91.32704632851126 91.26551913568943 91.14246475004578 91.11170115363487 90.98864676799121 90.80406518952573 90.5579564182384 90.28108405054019 90.0657388756638 89.75810291155466 89.45046694744552 89.32741256180186 89.11206738692547 88.89672221204907 88.68137703717267 88.37374107306354 88.12763230177623 87.69694195202344 87.29701519868155 87.1739608130379 86.83556125251785 86.58945248123054 86.25105292071049 85.75883537813587 85.51272660684856 85.1435634499176 84.86669108221938 84.62058231093206 84.06683757553562 83.75920161142648 83.42080205090642 82.99011170115364 82.68247573704448 82.28254898370261 81.91338582677164 81.51345907342977 81.05200512726607 80.74436916315693 80.28291521699322 79.85222486724042 79.51382530672038 79.05237136055666 78.59091741439296 78.22175425746201 77.97564548617468 77.72953671488739 77.23731917231275 76.8989196117927 76.6528108405054 76.28364768357443 76.00677531587621 75.69913935176706 75.3299761948361 75.05310382713789 74.77623145943966 74.46859549533052 74.1917231276323 73.88408716352316 73.57645119941402 73.26881523530488 72.89965207837392 72.6227797106757 72.19208936092289 71.76139901117011 71.33070866141732 70.93078190807545 70.68467313678812 70.13092840139169 69.82329243728255 69.45412928035158 68.65427577366782 68.25434902032595 67.85442226698407 67.39296832082036 67.02380516388939 66.43929683208202 65.82402490386376 65.36257095770006 64.74729902948178 64.1012635048526 63.63980955868888 63.024537630470604 62.347738509430506 61.91704815967771 61.39406702069218 60.994140267350296 60.40963193554294 60.040468778611974 59.332906061160955 58.87145211499725 58.59457974729903 58.163889397546235 57.8562534334371 57.61014466214979 57.14869071598608 56.87181834828786 56.53341878776781 56.195019227247755 55.948910455960444 55.61051089544039 55.24134773850943 54.9644753708112 54.68760300311298 54.41073063541476 54.0415674784838 53.67240432155283 53.364768357443694 52.84178721845816 52.53415125434902 52.257278886650795 51.826588536898 51.54971616919978 51.149789415857896 50.596044680461446 50.31917231276323 49.888481963010435 49.48855520966856 49.1501556491485 48.75022889580663 48.44259293169749 48.04266617835561 47.64273942501373 47.33510346090459 46.965940303973625 46.62754074345358 46.350668375755355 46.104559604468044 45.88921442959165 45.5508148690716 45.27394250137337 45.05859732649698 44.781724958798755 44.381798205456874 44.19721662699139 43.95110785570408 43.73576268082768 43.42812671671855 43.0897271561985 42.75132759567845 42.412928035158394 42.07452847463834 41.85918329976195 41.459256546420065 41.21314777513276 40.81322102179088 40.413294268449 40.10565830433986 39.70573155099798 39.39809558688884 39.028932429957884 38.69053286943783 38.44442409815052 38.10602453763047 37.82915216993224 37.61380699505585 37.36769822376854 37.21388024171397 36.96777147042666 36.752426295550265 36.598608313495696 36.32173594579747 36.106390770921074 35.952572788866505 35.737227613990115 35.55264603552463 35.30653726423732 35.06042849295001 34.87584691448453 34.5989745467863 34.35286577549899 34.16828419703351 33.860648232924376 33.64530305804798 33.368430690349754 33.15308551547336 33.0300311298297 32.84544955136422 32.660867972898735 32.414759201611425 32.260941219556855 32.1378868339132 32.014832448269544 31.922541659036806 31.830250869804065 31.737960080571323 31.614905694927668 31.55337850210584 31.461087712873102 31.36879692364036 31.27650613440762 31.184215345174877 31.12268815235305 31.030397363120308 30.938106573887566 30.87657938106574 30.784288591832997 30.691997802600255 30.599707013367514 30.538179820545686 30.507416224134772 30.415125434902034 30.353598242080206 30.261307452847465 30.23054385643655 30.199780260025637 30.169016663614723 30.169016663614723 30.13825306720381 30.13825306720381 30.13825306720381 30.13825306720381 30.107489470792896 30.107489470792896 30.07672587438198 30.045962277971068 30.045962277971068 30.045962277971068 30.045962277971068 30.015198681560154 29.98443508514924 29.98443508514924 29.953671488738326 29.953671488738326 29.953671488738326 29.922907892327412 29.922907892327412 29.922907892327412 29.861380699505585 29.8921442959165 29.861380699505585 29.861380699505585 29.861380699505585 29.861380699505585 29.861380699505585 29.83061710309467 29.861380699505585 29.83061710309467 29.83061710309467 29.83061710309467 29.83061710309467 29.83061710309467 29.83061710309467 29.83061710309467 29.83061710309467 29.83061710309467 29.83061710309467 29.83061710309467 29.83061710309467 29.83061710309467 29.83061710309467 29.83061710309467 29.83061710309467 29.83061710309467 29.83061710309467 29.83061710309467 29.83061710309467 29.83061710309467 29.83061710309467 29.83061710309467 29.83061710309467 29.83061710309467 29.83061710309467 29.83061710309467 29.83061710309467 29.83061710309467 29.83061710309467 29.83061710309467 29.83061710309467 29.83061710309467 29.799853506683757 29.799853506683757 29.83061710309467 29.83061710309467 29.83061710309467 29.83061710309467 29.83061710309467 29.83061710309467 29.83061710309467 29.83061710309467 29.83061710309467 29.799853506683757 29.799853506683757 29.83061710309467 29.83061710309467 29.83061710309467 29.799853506683757 29.83061710309467 29.799853506683757 29.83061710309467 29.799853506683757 29.83061710309467 29.83061710309467 29.799853506683757 29.799853506683757 29.799853506683757 29.83061710309467 29.799853506683757 29.799853506683757 29.799853506683757 29.769089910272843 29.769089910272843 29.769089910272843 29.769089910272843 29.769089910272843 29.73832631386193 29.73832631386193 29.73832631386193 29.73832631386193 29.73832631386193 29.707562717451015 29.707562717451015 29.707562717451015 29.707562717451015 29.6767991210401 29.6767991210401 29.6767991210401 29.6767991210401 29.707562717451015 29.6767991210401 29.6767991210401 29.6767991210401 29.6767991210401 29.6767991210401 29.6767991210401 29.6767991210401 29.6767991210401 29.6767991210401 29.6767991210401 29.6767991210401 29.6767991210401 29.6767991210401 29.6767991210401 29.6767991210401 29.6767991210401 29.6767991210401 29.6767991210401 29.6767991210401 29.6767991210401 29.6767991210401 29.6767991210401 29.6767991210401 29.6767991210401 29.6767991210401 29.6767991210401 29.6767991210401 29.6767991210401 29.6767991210401 29.6767991210401 29.6767991210401 29.6767991210401 29.6767991210401 29.6767991210401 29.6767991210401 29.646035524629188 29.646035524629188 29.6767991210401 29.6767991210401 29.6767991210401 29.646035524629188 29.6767991210401 29.6767991210401 29.6767991210401 29.646035524629188 29.646035524629188 29.646035524629188 29.646035524629188 29.6767991210401 29.6767991210401 29.646035524629188 29.6767991210401 29.646035524629188 29.6767991210401 29.6767991210401 29.646035524629188 29.646035524629188 29.6767991210401 29.646035524629188 29.646035524629188 29.646035524629188 29.6767991210401 29.6767991210401 29.646035524629188 29.646035524629188 29.646035524629188 29.646035524629188 29.6767991210401 29.646035524629188 29.646035524629188 29.646035524629188 29.646035524629188 29.646035524629188 29.6767991210401 29.646035524629188 29.646035524629188 29.6767991210401 29.6767991210401 29.646035524629188 29.6767991210401 29.646035524629188 29.6767991210401 29.646035524629188 29.646035524629188 29.646035524629188 29.6767991210401 29.646035524629188 29.646035524629188 29.646035524629188 29.6767991210401 29.646035524629188 29.646035524629188 29.646035524629188 29.646035524629188 29.646035524629188 29.646035524629188 29.646035524629188 29.646035524629188 29.646035524629188 29.646035524629188 29.646035524629188 29.646035524629188 29.646035524629188 29.646035524629188 29.646035524629188 29.6767991210401 29.646035524629188 29.646035524629188 29.646035524629188 29.646035524629188 29.646035524629188 29.646035524629188 29.646035524629188 29.646035524629188 29.646035524629188 29.646035524629188 29.646035524629188 29.646035524629188 29.646035524629188 29.646035524629188 29.646035524629188 29.646035524629188 29.646035524629188 29.646035524629188 29.646035524629188 29.646035524629188 29.646035524629188 29.646035524629188 29.646035524629188 29.646035524629188 29.646035524629188 29.646035524629188 29.646035524629188 29.646035524629188 29.646035524629188 29.646035524629188 29.646035524629188 29.646035524629188 29.646035524629188 29.646035524629188 29.646035524629188 29.646035524629188 29.646035524629188 29.646035524629188 29.646035524629188 29.646035524629188 29.6767991210401 29.646035524629188 29.646035524629188 29.646035524629188 29.6767991210401 29.6767991210401 29.646035524629188 29.646035524629188 29.646035524629188 29.6767991210401 29.646035524629188 29.6767991210401 29.6767991210401 29.646035524629188 29.6767991210401 29.6767991210401 29.646035524629188 29.6767991210401 29.707562717451015 29.707562717451015 29.73832631386193 29.73832631386193 29.769089910272843 29.769089910272843 29.799853506683757 29.83061710309467 29.861380699505585 29.861380699505585 29.8921442959165 29.8921442959165 29.8921442959165 29.953671488738326 29.953671488738326 30.015198681560154 30.015198681560154 30.045962277971068 30.045962277971068 30.07672587438198 30.13825306720381 30.169016663614723 30.199780260025637 30.261307452847465 30.353598242080206 30.38436183849112 30.445889031312948 30.538179820545686 30.599707013367514 30.72276139901117 30.81505218824391 30.938106573887566 31.12268815235305 31.245742537996705 31.461087712873102 31.614905694927668 31.86101446621498 32.07635964109137 32.23017762314594 32.53781358725508 32.72239516572056 32.906976744186046 33.18384911188427 33.42995788317158 33.829884636513455 34.41439296832082 34.8143197216627 35.27577366782641 35.64493682475737 36.1679179637429 36.69089910272844 37.09082585607032 37.64457059146676 38.19831532686321 38.629005676616 39.18275041201245 39.582677165354326 40.38253067203809 40.81322102179088 41.243911371543675 41.797656106940124 42.38216443874748 42.812854788500275 43.612708295184035 44.01263504852591 44.59714338033327 45.12012451931881 45.5508148690716 46.25837758652261 46.84288591832997 47.304339864493684 47.88884819630104 48.25801135323201 48.873283281450284 49.48855520966856 49.888481963010435 50.4729902948178 51.02673503021424 51.51895257278886 51.98040651895257 52.38033327229445 52.96484160410181 53.580113532320084 54.0415674784838 54.53378502105841 55.11829335286578 55.73356528108405 56.16425563083684 56.56418238417872 57.302508698040654 57.8562534334371 58.25618018677898 58.96374290422999 59.425196850393704 60.00970518220106 60.655740706830244 61.086431056583045 61.701702984801315 62.28621131660868 62.716901666361466 63.33217359457974 63.73210034792162 64.37813587255081 64.99340780076909 65.63944332539828 66.10089727156199 66.65464200695843 67.08533235671122 67.63907709210767 68.06976744186046 68.8388573521333 69.45412928035158 69.82329243728255 70.4078007690899 70.86925471525362 71.33070866141732 71.9459805896356 72.34590734297747 72.93041567478483 73.48416041018129 73.88408716352316 74.46859549533052 75.20692180919245 75.39150338765793 75.94524812305438 76.31441127998534 76.83739241897088 77.36037355795642 77.85259110053104 78.34480864310567 78.80626258926935 79.02160776414576 79.45229811389855 79.75993407800769 80.34444240981506 80.74436916315693 81.02124153085515 81.45193188060794 81.88262223036074 82.12873100164805 82.59018494781176 82.89782091192089 83.29774766526276 83.69767441860465 83.97454678630287 84.37447353964475 84.98974546786303 85.20509064273942 85.63578099249222 85.97418055301226 86.46639809558688 86.98937923457241 87.32777879509247 87.97381431972167 88.2814502838308 88.61984984435085 89.01977659769273 89.29664896539094 89.75810291155466 90.18879326130745 90.43490203259475 90.71177440029297 90.95788317158029 91.11170115363487 91.35780992492217 91.51162790697674 91.72697308185315 91.88079106390771 92.00384544955136 92.15766343160593 92.24995422083867 92.34224501007142 92.43453579930414 92.46529939571508 92.5268265885369 92.55759018494781 92.5268265885369 92.55759018494781 92.55759018494781 92.55759018494781 92.55759018494781 92.55759018494781 92.55759018494781 92.5268265885369 92.55759018494781 92.5268265885369 92.5268265885369 92.5268265885369 92.5268265885369 92.5268265885369 92.5268265885369 92.49606299212599 92.46529939571508 92.46529939571508 92.46529939571508 92.46529939571508 92.46529939571508 92.46529939571508 92.46529939571508 92.43453579930414 92.43453579930414 92.43453579930414 92.46529939571508 92.46529939571508 92.46529939571508 92.46529939571508 92.46529939571508 92.43453579930414 92.46529939571508 92.43453579930414 92.46529939571508 92.43453579930414 92.43453579930414 92.43453579930414 92.40377220289324 92.40377220289324 92.40377220289324 92.37300860648233 92.34224501007142 92.34224501007142 92.31148141366049 92.31148141366049 92.31148141366049 92.31148141366049 92.31148141366049 92.28071781724958 92.28071781724958 92.24995422083867 92.24995422083867 92.21919062442777 92.18842702801683 92.15766343160593 92.09613623878411 92.06537264237318 92.00384544955136 91.97308185314044 91.91155466031861 91.88079106390771 91.81926387108588 91.75773667826405 91.69620948544222 91.6346822926204 91.60391869620949 91.57315509979856 91.57315509979856 91.57315509979856 91.57315509979856 91.54239150338765 91.54239150338765 91.57315509979856 91.54239150338765 91.54239150338765 91.57315509979856 91.57315509979856 91.57315509979856 91.57315509979856 91.57315509979856 91.57315509979856 91.57315509979856 91.57315509979856 91.60391869620949 91.57315509979856 91.60391869620949 91.60391869620949 91.60391869620949 91.60391869620949 91.6346822926204 91.6346822926204 91.6346822926204 91.6346822926204 91.6346822926204 91.6346822926204 91.6346822926204 91.6346822926204 91.6346822926204 91.6346822926204 91.60391869620949 91.60391869620949 91.6346822926204 91.60391869620949 91.6346822926204 91.6346822926204 91.6346822926204 91.60391869620949 91.60391869620949 91.60391869620949 91.60391869620949 91.6346822926204 91.6346822926204 91.6346822926204 91.6346822926204 91.60391869620949 91.6346822926204 91.6346822926204 91.6346822926204 91.60391869620949 91.60391869620949 91.60391869620949 91.6346822926204 91.6346822926204 91.6346822926204 91.6346822926204 91.60391869620949 91.60391869620949 91.6346822926204 91.6346822926204 91.60391869620949 91.6346822926204 91.6346822926204 91.60391869620949 91.60391869620949 91.6346822926204 91.60391869620949 91.6346822926204 91.6346822926204 91.6346822926204 91.6346822926204 91.6346822926204 91.60391869620949 91.6346822926204 91.6346822926204 91.6346822926204 91.6346822926204 91.6346822926204 91.6346822926204 91.60391869620949 91.6346822926204 91.60391869620949 91.6346822926204 91.6346822926204 91.60391869620949 91.60391869620949 91.60391869620949 91.60391869620949 91.60391869620949 91.57315509979856 91.57315509979856 91.57315509979856 91.57315509979856 91.57315509979856 91.57315509979856 91.60391869620949 91.57315509979856 91.57315509979856 91.57315509979856 91.57315509979856 91.57315509979856 91.57315509979856 91.57315509979856 91.54239150338765 91.51162790697674 91.51162790697674 91.51162790697674 91.51162790697674 91.51162790697674 91.51162790697674 91.51162790697674 91.51162790697674 91.54239150338765 91.51162790697674 91.51162790697674 91.54239150338765 91.51162790697674 91.51162790697674 91.51162790697674 91.51162790697674 91.51162790697674 91.51162790697674 91.51162790697674 91.51162790697674 91.51162790697674 91.51162790697674 91.51162790697674 91.51162790697674 91.51162790697674 91.51162790697674 91.51162790697674 91.51162790697674 91.51162790697674 91.51162790697674 91.51162790697674 91.51162790697674 91.51162790697674 91.51162790697674 91.51162790697674 91.51162790697674 91.51162790697674 91.51162790697674 91.51162790697674 91.51162790697674 91.51162790697674 91.51162790697674 91.51162790697674 91.51162790697674 91.48086431056583 91.4501007141549 91.4501007141549 91.4501007141549 91.4501007141549 91.41933711774399 91.4501007141549 91.41933711774399 91.41933711774399 91.38857352133309 91.32704632851126 91.26551913568943 91.26551913568943 91.2039919428676 91.17322834645668 91.14246475004578 91.11170115363487 91.11170115363487 91.08093755722395 91.11170115363487 91.11170115363487 91.08093755722395 91.11170115363487 91.11170115363487 91.11170115363487 91.11170115363487 91.11170115363487 91.08093755722395 91.11170115363487 91.11170115363487 91.11170115363487 91.11170115363487 91.11170115363487 91.11170115363487 91.11170115363487 91.11170115363487 91.11170115363487 91.11170115363487 91.11170115363487 91.11170115363487 91.11170115363487 91.11170115363487 91.11170115363487 91.11170115363487 91.11170115363487 91.11170115363487 91.08093755722395 91.05017396081303 91.08093755722395 91.05017396081303 91.05017396081303 91.08093755722395 91.08093755722395 91.08093755722395 91.08093755722395 91.05017396081303 91.08093755722395 91.08093755722395 91.08093755722395 91.05017396081303 91.08093755722395 91.08093755722395 91.05017396081303 91.08093755722395 91.08093755722395 91.08093755722395 91.08093755722395 91.08093755722395 91.08093755722395 91.08093755722395 91.08093755722395 91.08093755722395 91.08093755722395 91.08093755722395 91.08093755722395 91.05017396081303 91.08093755722395 91.01941036440212 90.98864676799121 90.95788317158029 90.86559238234756 90.86559238234756 90.83482878593664 90.80406518952573 90.77330159311481 90.77330159311481 90.77330159311481 90.77330159311481 90.77330159311481 90.80406518952573 90.77330159311481 90.80406518952573 90.80406518952573 90.83482878593664 90.83482878593664 90.86559238234756 90.86559238234756 90.86559238234756 90.86559238234756 90.86559238234756 90.86559238234756 90.86559238234756 90.86559238234756 90.86559238234756 90.86559238234756 90.86559238234756 90.86559238234756 90.86559238234756 90.83482878593664 90.83482878593664 90.83482878593664 90.80406518952573 90.7425379967039 90.68101080388206 90.61948361106025 90.5579564182384 90.49642922541659 90.34261124336201 90.25032045412928 90.15802966489653 90.0657388756638 90.00421168284197 89.88115729719831 89.75810291155466 89.635048525911 89.54275773667825 89.51199414026735 89.48123054385643 89.4197033510346 89.4197033510346 89.38893975462369 89.38893975462369 89.38893975462369 89.38893975462369 89.38893975462369 89.38893975462369 89.4197033510346 89.4197033510346 89.45046694744552 89.48123054385643 89.48123054385643 89.51199414026735 89.51199414026735 89.51199414026735 89.51199414026735 89.51199414026735 89.51199414026735 89.51199414026735 89.51199414026735 89.48123054385643 89.38893975462369 89.17359457974729 88.98901300128182 88.80443142281632 88.55832265152901 88.15839589818714 87.91228712689983 87.57388756637978 87.32777879509247 86.98937923457241 86.65097967405237 86.40487090276505 86.03570774583409 85.66654458890312 85.358908624794 84.95898187145211 84.68210950375389 84.0360739791247 83.72843801501557 83.39003845449551 82.92858450833181 82.43636696575717 82.06720380882622 81.39040468778612 81.05200512726607 80.52902398828053 80.19062442776048 79.85222486724042 79.17542574620032 78.83702618568027 78.37557223951657 77.88335469694195 77.48342794360008 76.96044680461453 76.46822926203993 76.09906610510895 75.57608496612343 75.20692180919245 74.71470426661784 74.22248672404322 73.85332356711226 73.33034242812671 72.77659769273026 72.43819813221022 71.91521699322467 71.5152902398828 70.77696392602087 70.377037172679 69.73100164804981 69.14649331624244 68.68503937007873 68.28511261673685 67.36220472440945 66.90075077824574 66.22395165720565 65.51638893975462 64.99340780076909 64.25508148690716 63.48599157663431 62.96301043764878 62.19392052737594 61.6709393883904 60.932613074528476 59.94817798937923 59.363669657571876 58.90221571140816 58.25618018677898 57.73319904779344 56.994872733931516 56.47189159494598 55.45669291338582 54.7183665995239 54.226149056949275 53.580113532320084 52.96484160410181 52.56491485075993 52.0419337117744 51.58047976561069 51.242080205090645 50.78062625892693 50.4729902948178 49.91924555942135 49.673136788134045 49.427028016846734 49.08862845632668 48.84251968503936 48.50412012451932 47.98113898553378 47.73503021424648 47.42739425013734 47.05823109320637 46.904413111151804 46.53524995422084 46.25837758652261 45.61234206189343 45.15088811572972 44.81248855520967 44.25874381981322 43.79728987364952 43.274308734663975 42.659036806445705 42.197582860282 41.55154733565281 40.90551181102362 40.38253067203809 39.70573155099798 39.028932429957884 38.53671488738326 37.9522065555759 37.4907526094122 36.906244277604834 36.29097234938656 35.64493682475737 35.029664896539096 34.56821095037539 33.983702618568024 33.64530305804798 33.368430690349754 33.060794726240616 32.69163156930965 32.507049990844166 32.32246841237868 32.168650430324114 32.014832448269544 31.95330525544772 31.891778062625892 31.830250869804065 31.70719648416041 31.614905694927668 31.430324116462188 31.27650613440762 31.030397363120308 30.753524995422083 30.5689434169566 30.415125434902034 30.322834645669293 30.23054385643655 30.107489470792896 29.98443508514924 29.861380699505585 29.83061710309467 29.799853506683757 29.73832631386193 29.707562717451015 29.707562717451015 29.707562717451015 29.707562717451015 29.707562717451015 29.707562717451015 29.707562717451015 29.707562717451015 29.707562717451015 29.707562717451015 29.707562717451015 29.707562717451015 29.707562717451015 29.707562717451015 29.707562717451015 29.707562717451015 29.707562717451015 29.707562717451015 29.707562717451015 29.707562717451015 29.707562717451015 29.707562717451015 29.707562717451015 29.707562717451015 29.707562717451015 29.707562717451015 29.707562717451015 29.707562717451015 29.6767991210401 29.707562717451015 29.6767991210401 29.6767991210401 29.6767991210401 29.6767991210401 29.6767991210401 29.6767991210401 29.6767991210401 29.707562717451015 29.6767991210401 29.6767991210401 29.6767991210401 29.6767991210401 29.6767991210401 29.6767991210401 29.6767991210401 29.6767991210401 29.6767991210401 29.6767991210401 29.6767991210401 29.6767991210401 29.6767991210401 29.6767991210401 29.6767991210401 29.6767991210401 29.6767991210401 29.6767991210401 29.6767991210401 29.6767991210401 29.6767991210401 29.6767991210401 29.6767991210401 29.6767991210401 29.646035524629188 29.6767991210401 29.646035524629188 29.646035524629188 29.646035524629188 29.646035524629188 29.646035524629188 29.646035524629188 29.646035524629188 29.646035524629188 29.646035524629188 29.646035524629188 29.646035524629188 29.646035524629188 29.646035524629188 29.646035524629188 29.646035524629188 29.646035524629188 29.646035524629188 29.646035524629188 29.646035524629188 29.646035524629188 29.646035524629188 29.646035524629188 29.646035524629188 29.646035524629188 29.646035524629188 29.646035524629188 29.646035524629188 29.646035524629188 29.646035524629188 29.646035524629188 29.646035524629188 29.646035524629188 29.646035524629188 29.646035524629188 29.646035524629188 29.615271928218274 29.615271928218274 29.615271928218274 29.615271928218274 29.615271928218274 29.615271928218274 29.615271928218274 29.615271928218274 29.615271928218274 29.615271928218274 29.615271928218274 29.615271928218274 29.646035524629188 29.646035524629188 29.615271928218274 29.615271928218274 29.615271928218274 29.615271928218274 29.615271928218274 29.615271928218274 29.615271928218274 29.646035524629188 29.615271928218274 29.615271928218274 29.615271928218274 29.615271928218274 29.646035524629188 29.615271928218274 29.615271928218274 29.615271928218274 29.646035524629188 29.615271928218274 29.615271928218274 29.615271928218274 29.615271928218274 29.615271928218274 29.615271928218274 29.615271928218274 29.646035524629188 29.615271928218274 29.615271928218274 29.615271928218274 29.646035524629188 29.646035524629188 29.646035524629188 29.646035524629188 29.615271928218274 29.646035524629188 29.615271928218274 29.615271928218274 29.646035524629188 29.646035524629188 29.615271928218274 29.615271928218274 29.615271928218274 29.615271928218274 29.615271928218274 29.646035524629188 29.615271928218274 29.615271928218274 29.615271928218274 29.615271928218274 29.615271928218274 29.615271928218274 29.615271928218274 29.646035524629188 29.615271928218274 29.646035524629188 29.615271928218274 29.646035524629188 29.615271928218274 29.615271928218274 29.615271928218274 29.646035524629188 29.646035524629188 29.615271928218274 29.615271928218274 29.646035524629188 29.646035524629188 29.646035524629188 29.615271928218274 29.646035524629188 29.615271928218274 29.615271928218274 29.646035524629188 29.646035524629188 29.646035524629188 29.615271928218274 29.615271928218274 29.646035524629188 29.646035524629188 29.615271928218274 29.615271928218274 29.646035524629188 29.646035524629188 29.615271928218274 29.615271928218274 29.646035524629188 29.615271928218274 29.615271928218274 29.615271928218274 29.646035524629188 29.646035524629188 29.646035524629188 29.646035524629188 29.615271928218274 29.646035524629188 29.646035524629188 29.646035524629188 29.646035524629188 29.646035524629188 29.615271928218274 29.615271928218274 29.615271928218274 29.615271928218274 29.615271928218274 29.646035524629188 29.646035524629188 29.646035524629188 29.615271928218274 29.646035524629188 29.646035524629188 29.646035524629188 29.646035524629188 29.646035524629188 29.615271928218274 29.615271928218274 29.646035524629188 29.646035524629188 29.646035524629188 29.646035524629188 29.646035524629188 29.646035524629188 29.646035524629188 29.646035524629188 29.646035524629188 29.646035524629188 29.646035524629188 29.615271928218274 29.646035524629188 29.646035524629188 29.646035524629188 29.646035524629188 29.646035524629188 29.646035524629188 29.646035524629188 29.646035524629188 29.646035524629188 29.646035524629188 29.646035524629188 29.646035524629188 29.646035524629188 29.646035524629188 29.646035524629188 29.646035524629188 29.6767991210401 29.6767991210401 29.646035524629188 29.6767991210401 29.6767991210401 29.6767991210401 29.6767991210401 29.6767991210401 29.707562717451015 29.73832631386193 29.769089910272843 29.799853506683757 29.83061710309467 29.861380699505585 29.8921442959165 29.98443508514924 30.045962277971068 30.107489470792896 30.199780260025637 30.261307452847465 30.322834645669293 30.38436183849112 30.47665262772386 30.5689434169566 30.691997802600255 30.81505218824391 30.907342977476652 31.06116095953122 31.21497894158579 31.430324116462188 31.584142098516754 31.86101446621498 32.168650430324114 32.3532320087896 32.72239516572056 33.060794726240616 33.214612708295185 33.55301226881524 33.829884636513455 34.35286577549899 35.09119208936092 35.52188243911371 36.1679179637429 36.906244277604834 37.306171030946714 38.10602453763047 38.59824208020509 39.367331990477936 40.1979490935726 40.75169382896905 41.55154733565281 42.38216443874748 42.905145577733016 43.73576268082768 44.28950741622413 45.05859732649698 46.13532320087896 46.442959164988096 47.24281267167186 48.38106573887566 48.780992492217536 49.55008240249039 50.16535433070866 51.27284380150155 52.16498809741805 52.811023622047244 53.70316791796374 54.379967039003844 55.05676616004395 56.16425563083684 56.77952755905512 57.6409082585607 58.47152536165537 59.05603369346274 59.886650796557404 60.47115912836477 61.27101263504852 62.07086614173228 62.59384728071782 63.33217359457974 64.25508148690716 64.74729902948178 65.45486174693279 66.07013367515107 66.5931148141366 67.02380516388939 67.51602270646401 68.3466398095587 68.99267533418788 69.45412928035158 70.06940120856986 70.56161875114448 71.14612708295184 71.69987181834829 72.13056216810108 72.71507049990844 73.23805163889398 73.63797839223585 74.1917231276323 74.71470426661784 75.23768540560337 75.57608496612343 75.94524812305438 76.43746566562899 76.92968320820361 77.45266434718914 77.88335469694195 78.25251785387292 78.62168101080388 78.83702618568027 79.05237136055666 79.39077092107672 79.66764328877494 79.88298846365134 80.15986083134956 80.40596960263687 80.74436916315693 81.1135323200879 81.35964109137521 81.79033144112799 82.22102179088078 82.52865775498992 82.99011170115364 83.29774766526276 83.94378318989196 84.2514191540011 84.62058231093206 85.11279985350667 85.48196301043765 86.03570774583409 86.77403405969602 87.2047244094488 87.78923274125617 88.15839589818714 88.4967954587072 89.17359457974729 89.51199414026735 89.91192089360922 90.34261124336201 90.65024720747115 91.05017396081303 91.41933711774399 91.69620948544222 92.03460904596227 92.34224501007142 92.61911737776964 92.95751693828969 93.17286211316609 93.60355246291888 93.88042483061712 94.09577000549349 94.37264237319172 94.52646035524629 94.80333272294452 94.92638710858817 95.11096868705366 95.23402307269731 95.35707745834097 95.38784105475187 95.4493682475737 95.48013184398462 95.48013184398462 95.48013184398462 95.48013184398462 95.48013184398462 95.48013184398462 95.48013184398462 95.4493682475737 95.4493682475737 95.4493682475737 95.4493682475737 95.4186046511628 95.4186046511628 95.4186046511628 95.38784105475187 95.38784105475187 95.35707745834097 95.35707745834097 95.35707745834097 95.35707745834097 95.32631386193005 95.32631386193005 95.32631386193005 95.29555026551914 95.26478666910822 95.23402307269731 95.20325947628639 95.17249587987548 95.14173228346456 95.11096868705366 95.08020509064274 95.04944149423183 95.04944149423183 95.04944149423183 95.01867789782091 95.01867789782091 95.01867789782091 94.98791430141 94.98791430141 95.01867789782091 94.98791430141 95.01867789782091 95.01867789782091 94.98791430141 94.98791430141 94.98791430141 94.92638710858817 94.89562351217725 94.83409631935542 94.80333272294452 94.80333272294452 94.7725691265336 94.74180553012269 94.74180553012269 94.71104193371177 94.74180553012269 94.74180553012269 94.74180553012269 94.74180553012269 94.74180553012269 94.74180553012269 94.74180553012269 94.74180553012269 94.74180553012269 94.7725691265336 94.7725691265336 94.80333272294452 94.80333272294452 94.80333272294452 94.80333272294452 94.80333272294452 94.80333272294452 94.7725691265336 94.7725691265336 94.74180553012269 94.71104193371177 94.68027833730086 94.68027833730086 94.68027833730086 94.64951474088994 94.68027833730086 94.68027833730086 94.68027833730086 94.68027833730086 94.68027833730086 94.68027833730086 94.68027833730086 94.68027833730086 94.68027833730086 94.68027833730086 94.68027833730086 94.64951474088994 94.58798754806811 94.5572239516572 94.49569675883538 94.43416956601355 94.40340596960263 94.37264237319172 94.37264237319172 94.37264237319172 94.3418787767808 94.3418787767808 94.3418787767808 94.3418787767808 94.3418787767808 94.37264237319172 94.3418787767808 94.3418787767808 94.3418787767808 94.3418787767808 94.3418787767808 94.3418787767808 94.3111151803699 94.28035158395897 94.24958798754807 94.21882439113715 94.18806079472624 94.18806079472624 94.18806079472624 94.18806079472624 94.15729719831532 94.18806079472624 94.18806079472624 94.18806079472624 94.18806079472624 94.18806079472624 94.18806079472624 94.21882439113715 94.21882439113715 94.24958798754807 94.24958798754807 94.24958798754807 94.24958798754807 94.24958798754807 94.24958798754807 94.24958798754807 94.24958798754807 94.24958798754807 94.24958798754807 94.24958798754807 94.24958798754807 94.24958798754807 94.21882439113715 94.24958798754807 94.24958798754807 94.24958798754807 94.24958798754807 94.24958798754807 94.21882439113715 94.24958798754807 94.21882439113715 94.24958798754807 94.21882439113715 94.24958798754807 94.24958798754807 94.24958798754807 94.24958798754807 94.24958798754807 94.24958798754807 94.24958798754807 94.24958798754807 94.21882439113715 94.24958798754807 94.24958798754807 94.24958798754807 94.24958798754807 94.24958798754807 94.24958798754807 94.21882439113715 94.24958798754807 94.24958798754807 94.24958798754807 94.24958798754807 94.24958798754807 94.24958798754807 94.24958798754807 94.21882439113715 94.21882439113715 94.24958798754807 94.24958798754807 94.24958798754807 94.24958798754807 94.21882439113715 94.24958798754807 94.24958798754807 94.21882439113715 94.24958798754807 94.24958798754807 94.21882439113715 94.21882439113715 94.24958798754807 94.21882439113715 94.24958798754807 94.21882439113715 94.24958798754807 94.24958798754807 94.24958798754807 94.24958798754807 94.24958798754807 94.24958798754807 94.24958798754807 94.24958798754807 94.24958798754807 94.24958798754807 94.24958798754807 94.24958798754807 94.24958798754807 94.24958798754807 94.24958798754807 94.24958798754807 94.24958798754807 94.21882439113715 94.24958798754807 94.24958798754807 94.21882439113715 94.24958798754807 94.24958798754807 94.24958798754807 94.24958798754807 94.21882439113715 94.21882439113715 94.21882439113715 94.21882439113715 94.21882439113715 94.21882439113715 94.24958798754807 94.21882439113715 94.21882439113715 94.21882439113715 94.21882439113715 94.21882439113715 94.21882439113715 94.21882439113715 94.18806079472624 94.21882439113715 94.18806079472624 94.18806079472624 94.18806079472624 94.15729719831532 94.15729719831532 94.15729719831532 94.18806079472624 94.18806079472624 94.18806079472624 94.18806079472624 94.18806079472624 94.18806079472624 94.18806079472624 94.18806079472624 94.18806079472624 94.18806079472624 94.18806079472624 94.15729719831532 94.15729719831532 94.18806079472624 94.18806079472624 94.15729719831532 94.18806079472624 94.15729719831532 94.15729719831532 94.18806079472624 94.15729719831532 94.18806079472624 94.18806079472624 94.18806079472624 94.18806079472624 94.18806079472624 94.18806079472624 