25.0 25.0 25.0 25.0 25.0 25.0 25.0 25.0 25.0 25.0 25.0 25.0 25.0 25.0 25.0 25.0 25.0 25.0 25.0 25.0 25.0 25.0 25.0 25.0 25.0 25.0 25.0 25.0 25.0 25.0 25.021973997436366 25.0 25.021973997436366 25.0 25.021973997436366 25.0 25.021973997436366 25.0 25.0 25.0 25.0 25.0 25.0 25.0 25.021973997436366 25.021973997436366 25.021973997436366 25.021973997436366 25.021973997436366 25.021973997436366 25.021973997436366 25.021973997436366 25.021973997436366 25.021973997436366 25.0 25.021973997436366 25.021973997436366 25.0 25.0 25.021973997436366 25.021973997436366 25.021973997436366 25.021973997436366 25.021973997436366 25.0 25.021973997436366 25.021973997436366 25.021973997436366 25.0 25.0 25.0 25.0 25.0 25.0 25.0 25.0 25.021973997436366 25.0 25.021973997436366 25.0 25.021973997436366 25.021973997436366 25.0 25.0 25.0 25.021973997436366 25.0 25.0 25.021973997436366 25.021973997436366 25.021973997436366 25.0 25.0 25.0 25.0 25.0 25.0 25.0 25.0 25.0 25.0 25.0 25.0 25.0 25.0 25.0 25.0 25.0 25.0 25.0 25.0 25.0 25.0 25.0 25.0 25.0 25.0 25.0 25.0 25.0 25.0 25.0 25.0 25.0 25.0 25.021973997436366 25.0 25.0 25.0 25.0 25.0 25.0 25.021973997436366 25.021973997436366 25.0 25.0 25.0 25.0 25.0 25.0 25.0 25.0 25.021973997436366 25.0 25.021973997436366 25.021973997436366 25.021973997436366 25.0 25.0 25.021973997436366 25.0 25.0 25.0 25.0 25.021973997436366 25.0 25.021973997436366 25.0 25.0 25.0 25.021973997436366 25.0 25.021973997436366 25.0 25.0 25.0 25.021973997436366 25.0 25.0 25.0 25.0 25.021973997436366 25.0 25.021973997436366 25.021973997436366 25.021973997436366 25.0 25.021973997436366 25.021973997436366 25.0 25.021973997436366 25.021973997436366 25.021973997436366 25.021973997436366 25.021973997436366 25.021973997436366 25.021973997436366 25.021973997436366 25.021973997436366 25.021973997436366 25.021973997436366 25.021973997436366 25.021973997436366 25.021973997436366 25.021973997436366 25.021973997436366 25.021973997436366 25.021973997436366 25.0 25.021973997436366 25.021973997436366 25.021973997436366 25.021973997436366 25.021973997436366 25.021973997436366 25.021973997436366 25.021973997436366 25.021973997436366 25.021973997436366 25.021973997436366 25.021973997436366 25.021973997436366 25.021973997436366 25.021973997436366 25.021973997436366 25.021973997436366 25.021973997436366 25.021973997436366 25.021973997436366 25.021973997436366 25.021973997436366 25.021973997436366 25.021973997436366 25.021973997436366 25.021973997436366 25.021973997436366 25.021973997436366 25.021973997436366 25.021973997436366 25.021973997436366 25.021973997436366 25.021973997436366 25.021973997436366 25.021973997436366 25.021973997436366 25.021973997436366 25.021973997436366 25.021973997436366 25.021973997436366 25.021973997436366 25.021973997436366 25.021973997436366 25.043947994872735 25.021973997436366 25.021973997436366 25.021973997436366 25.021973997436366 25.021973997436366 25.021973997436366 25.021973997436366 25.021973997436366 25.021973997436366 25.021973997436366 25.021973997436366 25.021973997436366 25.021973997436366 25.021973997436366 25.021973997436366 25.021973997436366 25.021973997436366 25.021973997436366 25.021973997436366 25.021973997436366 25.021973997436366 25.021973997436366 25.021973997436366 25.021973997436366 25.021973997436366 25.021973997436366 25.021973997436366 25.021973997436366 25.021973997436366 25.0 25.0 25.021973997436366 25.021973997436366 25.021973997436366 25.021973997436366 25.021973997436366 25.021973997436366 25.021973997436366 25.021973997436366 25.021973997436366 25.021973997436366 25.021973997436366 25.021973997436366 25.021973997436366 25.021973997436366 25.021973997436366 25.021973997436366 25.021973997436366 25.021973997436366 25.021973997436366 25.021973997436366 25.021973997436366 25.021973997436366 25.021973997436366 25.021973997436366 25.0 25.0 25.0 25.0 25.021973997436366 25.021973997436366 25.021973997436366 25.021973997436366 25.0 25.0 25.0 25.0 25.0 25.0 25.021973997436366 25.0 25.0 25.021973997436366 25.021973997436366 25.0 25.0 25.0 25.021973997436366 25.0 25.021973997436366 25.0 25.021973997436366 25.021973997436366 25.021973997436366 25.0 25.021973997436366 25.021973997436366 25.021973997436366 25.021973997436366 25.021973997436366 25.021973997436366 25.0 25.021973997436366 25.021973997436366 25.021973997436366 25.021973997436366 25.021973997436366 25.021973997436366 25.021973997436366 25.0 25.021973997436366 25.021973997436366 25.021973997436366 25.021973997436366 25.021973997436366 25.021973997436366 25.0 25.021973997436366 25.021973997436366 25.021973997436366 25.021973997436366 25.021973997436366 25.021973997436366 25.021973997436366 25.021973997436366 25.021973997436366 25.021973997436366 25.021973997436366 25.021973997436366 25.021973997436366 25.021973997436366 25.021973997436366 25.021973997436366 25.021973997436366 25.021973997436366 25.021973997436366 25.021973997436366 25.021973997436366 25.021973997436366 25.021973997436366 25.021973997436366 25.021973997436366 25.021973997436366 25.021973997436366 25.021973997436366 25.021973997436366 25.021973997436366 25.043947994872735 25.021973997436366 25.021973997436366 25.021973997436366 25.021973997436366 25.021973997436366 25.021973997436366 25.021973997436366 25.043947994872735 25.021973997436366 25.021973997436366 25.021973997436366 25.021973997436366 25.021973997436366 25.043947994872735 25.021973997436366 25.043947994872735 25.021973997436366 25.021973997436366 25.021973997436366 25.021973997436366 25.021973997436366 25.021973997436366 25.021973997436366 25.021973997436366 25.021973997436366 25.021973997436366 25.021973997436366 25.021973997436366 25.021973997436366 25.021973997436366 25.021973997436366 25.021973997436366 25.021973997436366 25.043947994872735 25.021973997436366 25.043947994872735 25.021973997436366 25.021973997436366 25.043947994872735 25.021973997436366 25.021973997436366 25.021973997436366 25.043947994872735 25.043947994872735 25.021973997436366 25.043947994872735 25.021973997436366 25.021973997436366 25.043947994872735 25.021973997436366 25.021973997436366 25.021973997436366 25.043947994872735 25.021973997436366 25.021973997436366 25.021973997436366 25.021973997436366 25.021973997436366 25.021973997436366 25.021973997436366 25.021973997436366 25.021973997436366 25.021973997436366 25.021973997436366 25.021973997436366 25.021973997436366 25.021973997436366 25.043947994872735 25.021973997436366 25.021973997436366 25.043947994872735 25.021973997436366 25.021973997436366 25.043947994872735 25.021973997436366 25.021973997436366 25.043947994872735 25.021973997436366 25.021973997436366 25.043947994872735 25.021973997436366 25.021973997436366 25.021973997436366 25.021973997436366 25.021973997436366 25.021973997436366 25.021973997436366 25.021973997436366 25.021973997436366 25.021973997436366 25.021973997436366 25.021973997436366 25.021973997436366 25.021973997436366 25.021973997436366 25.021973997436366 25.021973997436366 25.021973997436366 25.043947994872735 25.021973997436366 25.021973997436366 25.021973997436366 25.021973997436366 25.021973997436366 25.021973997436366 25.021973997436366 25.021973997436366 25.021973997436366 25.021973997436366 25.021973997436366 25.021973997436366 25.021973997436366 25.021973997436366 25.021973997436366 25.021973997436366 25.021973997436366 25.021973997436366 25.021973997436366 25.021973997436366 25.021973997436366 25.021973997436366 25.021973997436366 25.021973997436366 25.021973997436366 25.021973997436366 25.043947994872735 25.021973997436366 25.021973997436366 25.021973997436366 25.021973997436366 25.021973997436366 25.021973997436366 25.021973997436366 25.021973997436366 25.021973997436366 25.043947994872735 25.021973997436366 25.043947994872735 25.043947994872735 25.021973997436366 25.021973997436366 25.021973997436366 25.021973997436366 25.043947994872735 25.021973997436366 25.043947994872735 25.021973997436366 25.043947994872735 25.043947994872735 25.043947994872735 25.021973997436366 25.043947994872735 25.043947994872735 25.043947994872735 25.043947994872735 25.043947994872735 25.043947994872735 25.043947994872735 25.043947994872735 25.043947994872735 25.043947994872735 25.043947994872735 25.043947994872735 25.043947994872735 25.043947994872735 25.043947994872735 25.043947994872735 25.043947994872735 25.043947994872735 25.043947994872735 25.043947994872735 25.043947994872735 25.043947994872735 25.043947994872735 25.043947994872735 25.043947994872735 25.043947994872735 25.043947994872735 25.043947994872735 25.043947994872735 25.043947994872735 25.043947994872735 25.021973997436366 25.043947994872735 25.043947994872735 25.043947994872735 25.043947994872735 25.043947994872735 25.043947994872735 25.043947994872735 25.043947994872735 25.043947994872735 25.043947994872735 25.043947994872735 25.043947994872735 25.043947994872735 25.043947994872735 25.043947994872735 25.043947994872735 25.043947994872735 25.043947994872735 25.043947994872735 25.043947994872735 25.043947994872735 25.043947994872735 25.043947994872735 25.043947994872735 25.043947994872735 25.043947994872735 25.043947994872735 25.043947994872735 25.043947994872735 25.043947994872735 25.043947994872735 25.043947994872735 25.043947994872735 25.043947994872735 25.043947994872735 25.043947994872735 25.0659219923091 25.043947994872735 25.043947994872735 25.043947994872735 25.043947994872735 25.043947994872735 25.043947994872735 25.043947994872735 25.043947994872735 25.043947994872735 25.043947994872735 25.043947994872735 25.043947994872735 25.043947994872735 25.043947994872735 25.043947994872735 25.043947994872735 25.043947994872735 25.043947994872735 25.043947994872735 25.043947994872735 25.043947994872735 25.043947994872735 25.043947994872735 25.0659219923091 25.08789598974547 25.0659219923091 25.08789598974547 25.109869987181835 25.15381798205457 25.21973997436367 25.28566196667277 25.37355795641824 25.50540194103644 25.65921992309101 25.878959897454678 26.098699871818347 26.29646584874565 26.538179820545686 26.82384178721846 27.17542574620033 27.483061710309467 27.87859366416407 28.31807361289141 28.69163156930965 29.109137520600623 29.54861746932796 29.966123420618935 30.44955136421901 30.86705731550998 31.35048525911005 31.855887200146494 32.36128914118294 32.866691082219376 33.39406702069218 33.96539095403772 34.44881889763779 35.02014283098333 35.56949276689251 36.09686870536532 36.602270646401756 37.21754257462003 37.8328145028383 38.47006042849295 39.173228346456696 39.942318256729536 40.68943416956601 41.43655008240249 42.1616919978026 42.95275590551181 43.787767808093754 44.66672770554844 45.56766160043948 46.490569492766895 47.30360739791247 48.16059329793078 48.97363120307636 49.874565097967405 50.709577000549345 51.52261490569492 52.357626808276876 53.192638710858816 53.785936641640724 54.5989745467863 55.41201245193188 56.13715436733199 56.884270280168465 57.609412195568574 58.37850210584142 59.14759201611427 59.960629921259844 60.75169382896905 61.586705731551 62.44369163156931 63.16883354696942 63.89397546236953 64.66306537264236 65.78373924189708 66.53085515473356 67.38784105475187 68.66233290606115 69.95879875480682 70.74986266251602 71.4310565830434 72.74949642922542 73.60648232924373 74.55136421900751 75.51822010620765 76.17744002929867 77.10034792162608 77.67167185497162 78.5506317524263 79.49551364219008 80.28657754989928 80.96777147042667 82.11041933711775 82.68174327046329 83.25306720380883 83.91228712689984 84.74729902948178 85.69218091924556 86.30745284746384 87.47207471159129 88.28511261673685 88.94433253982787 89.58157846548252 90.15290239882806 90.96594030397362 91.73503021424648 92.28438015015564 92.9216260758103 93.36110602453763 93.88848196301043 94.54770188610145 94.85533785021059 95.16297381431973 95.5145577733016 95.73429774766527 95.9100897271562 95.99798571690167 96.01995971433803 96.01995971433803 95.86614173228347 95.66837575535617 95.25086980406519 94.72349386559239 93.86650796557407 93.40505401941037 92.61399011170116 91.80095220655558 91.16370628090094 90.63633034242812 89.51565647317341 88.13129463468229 87.73576268082769 87.20838674235489 86.72495879875481 86.04376487822742 85.09888298846366 84.43966306537266 83.64859915766343 82.98937923457243 82.08844533968139 81.84673136788135 80.68210950375389 79.671305621681 79.12195568577184 78.52865775498992 77.62772386009888 76.7487639626442 76.13349203442593 75.21058414209853 73.8921442959165 73.2329243728255 72.52975645486175 71.45303058047976 70.44222669840688 69.5632668009522 68.44259293169749 67.62955502655191 66.75059512909723 65.73979124702436 65.05859732649698 63.981871452114994 62.88317158029665 61.93828969053287 61.08130379051456 60.33418787767808 59.2574620032961 58.26863211865959 57.36769822376854 56.620582310932065 56.356894341695664 55.65372642373192 54.73081853140451 54.29133858267717 53.412378685222485 52.994872733931516 52.48947079289508 51.85222486724043 51.43471891594946 50.665629005676614 50.314045046694744 49.962461087712875 49.52298113898553 49.08350119025819 48.86376121589453 48.53415125434902 48.33638527742171 48.11664530305805 47.94085332356711 47.74308734663981 47.58926936458524 47.43545138253067 47.3475553927852 47.10584142098517 46.908075444057864 46.71030946713056 46.468595495330526 46.248855520966856 45.919245559421356 45.58963559787585 45.34792162607581 44.99633766709394 44.73264969785754 44.40303973631203 43.897637795275585 43.54605383629372 43.216443874748215 42.842885918329976 42.57919794909357 42.20563999267533 42.0298480131844 41.83208203625709 41.59036806445706 41.34865409265702 41.15088811572972 40.953122138802414 40.84325215162058 40.68943416956601 40.535616187511444 40.42574620032961 40.227980223402305 40.096136238784105 39.898370261856805 39.678630287493135 39.5028383080022 39.26112433620216 38.88756637978392 38.82164438747482 38.38216443874748 38.09650247207471 37.81084050540194 37.52517853872917 36.975828602819995 36.492400659219925 36.118842702801686 35.76725874381981 35.28383080021974 34.7125068668742 34.22907892327412 33.877494964292254 33.39406702069218 32.95458707196484 32.55905511811024 32.03167917963743 31.74601721296466 31.394433253982786 30.889031312946347 30.405603369346274 30.07599340780077 29.592565464200696 29.262955502655192 28.823475553927853 28.40596960263688 28.142281633400476 27.768723676982237 27.548983702618568 27.307269730818533 27.02160776414576 26.867789782091194 26.779893792345725 26.67002380516389 26.60410181285479 26.560153817982055 26.560153817982055 26.538179820545686 26.538179820545686 26.494231825672955 26.472257828236586 26.45028383080022 26.42830983336385 26.406335835927486 26.38436183849112 26.38436183849112 26.36238784105475 26.340413843618386 26.340413843618386 26.318439846182017 26.318439846182017 26.274491851309286 26.252517853872916 26.23054385643655 26.208569859000182 26.164621864127447 26.120673869254716 26.098699871818347 26.07672587438198 26.01080388207288 25.988829884636512 25.922907892327412 25.900933894891047 25.878959897454678 25.856985900018312 25.835011902581943 25.791063907709212 25.791063907709212 25.791063907709212 25.791063907709212 25.791063907709212 25.791063907709212 25.791063907709212 25.791063907709212 25.769089910272843 25.769089910272843 25.769089910272843 25.769089910272843 25.769089910272843 25.769089910272843 25.769089910272843 25.769089910272843 25.769089910272843 25.769089910272843 25.769089910272843 25.769089910272843 25.769089910272843 25.769089910272843 25.769089910272843 25.769089910272843 25.747115912836477 25.769089910272843 25.747115912836477 25.769089910272843 25.747115912836477 25.747115912836477 25.747115912836477 25.72514191540011 25.72514191540011 25.703167917963743 25.72514191540011 25.703167917963743 25.681193920527377 25.65921992309101 25.65921992309101 25.65921992309101 25.65921992309101 25.637245925654643 25.637245925654643 25.637245925654643 25.637245925654643 25.615271928218274 25.615271928218274 25.615271928218274 25.615271928218274 25.593297930781908 25.593297930781908 25.593297930781908 25.593297930781908 25.593297930781908 25.593297930781908 25.593297930781908 25.593297930781908 25.593297930781908 25.593297930781908 25.593297930781908 25.571323933345543 25.593297930781908 25.593297930781908 25.593297930781908 25.571323933345543 25.571323933345543 25.593297930781908 25.593297930781908 25.571323933345543 25.571323933345543 25.571323933345543 25.571323933345543 25.571323933345543 25.571323933345543 25.571323933345543 25.571323933345543 25.571323933345543 25.571323933345543 25.571323933345543 25.571323933345543 25.549349935909174 25.549349935909174 25.549349935909174 25.549349935909174 25.549349935909174 25.549349935909174 25.527375938472808 25.527375938472808 25.527375938472808 25.527375938472808 25.527375938472808 25.527375938472808 25.527375938472808 25.50540194103644 25.50540194103644 25.50540194103644 25.50540194103644 25.50540194103644 25.50540194103644 25.50540194103644 25.50540194103644 25.50540194103644 25.50540194103644 25.50540194103644 25.50540194103644 25.50540194103644 25.50540194103644 25.483427943600073 25.50540194103644 25.483427943600073 25.50540194103644 25.50540194103644 25.483427943600073 25.483427943600073 25.483427943600073 25.483427943600073 25.483427943600073 25.483427943600073 25.483427943600073 25.483427943600073 25.461453946163708 25.483427943600073 25.461453946163708 25.461453946163708 25.461453946163708 25.461453946163708 25.43947994872734 25.461453946163708 25.461453946163708 25.461453946163708 25.461453946163708 25.461453946163708 25.461453946163708 25.43947994872734 25.43947994872734 25.461453946163708 25.43947994872734 25.43947994872734 25.43947994872734 25.43947994872734 25.43947994872734 25.417505951290973 25.43947994872734 25.43947994872734 25.43947994872734 25.417505951290973 25.417505951290973 25.417505951290973 25.417505951290973 25.417505951290973 25.417505951290973 25.417505951290973 25.417505951290973 25.417505951290973 25.417505951290973 25.417505951290973 25.417505951290973 25.417505951290973 25.417505951290973 25.417505951290973 25.417505951290973 25.417505951290973 25.417505951290973 25.417505951290973 25.417505951290973 25.417505951290973 25.417505951290973 25.417505951290973 25.395531953854604 25.417505951290973 25.395531953854604 25.417505951290973 25.417505951290973 25.417505951290973 25.417505951290973 25.417505951290973 25.395531953854604 25.395531953854604 25.395531953854604 25.395531953854604 25.395531953854604 25.395531953854604 25.417505951290973 25.417505951290973 25.417505951290973 25.395531953854604 25.395531953854604 25.395531953854604 25.395531953854604 25.417505951290973 25.395531953854604 25.395531953854604 25.417505951290973 25.417505951290973 25.395531953854604 25.395531953854604 25.417505951290973 25.395531953854604 25.417505951290973 25.417505951290973 25.395531953854604 25.417505951290973 25.395531953854604 25.417505951290973 25.417505951290973 25.417505951290973 25.417505951290973 25.417505951290973 25.417505951290973 25.417505951290973 25.417505951290973 25.43947994872734 25.43947994872734 25.43947994872734 25.461453946163708 25.483427943600073 25.50540194103644 25.549349935909174 25.593297930781908 25.681193920527377 25.769089910272843 25.900933894891047 26.032777879509247 26.29646584874565 26.779893792345725 26.933711774400294 27.483061710309467 28.208203625709576 28.53781358725508 29.328877494964292 29.592565464200696 30.339681377037174 31.37245925654642 31.921809192455594 32.97656106940121 33.32814502838308 33.98736495147409 34.49276689251053 35.0421168284197 35.96502472074712 36.558322651529025 37.261490569492764 37.8328145028383 38.29426844900202 38.77769639260209 39.4369163156931 39.920344259293174 40.601538179820544 41.28273210034792 41.85405603369347 42.57919794909357 43.150521882439115 44.02948177989379 45.21607764145761 45.58963559787585 46.57846548251236 47.67716535433071 48.46822926203992 50.094305072331075 51.083134956967584 51.9401208569859 53.346456692913385 53.763962644204355 54.95055850576817 56.57663431605933 57.27980223402307 58.40047610327779 58.83995605200513 60.290239882805345 61.93828969053287 62.33382164438748 63.036989562351216 63.915949459805894 64.53122138802416 65.45412928035158 66.02545321369712 66.83849111884271 67.71745101629739 68.46456692913387 69.54129280351583 70.57407068302508 71.25526460355246 72.17817249587988 73.18897637795277 74.06793627540745 74.83702618568029 75.47427211133493 76.6828419703351 77.73759384728072 78.46273576268084 79.1439296832082 79.64933162424464 80.26460355246292 81.1435634499176 81.67093938839041 82.39608130379051 83.0772752243179 83.78044314228164 84.70335103460906 84.92309100897272 85.45046694744553 86.08771287310017 86.59311481413661 87.20838674235489 87.82365867057317 88.39498260391869 88.74656656290057 89.51565647317341 89.75737044497345 90.17487639626442 90.94396630653726 91.29555026551914 91.69108221937374 92.21845815784656 92.74583409631936 93.1853140450467 93.53689800402857 94.04229994506501 94.32796191173779 94.63559787584691 94.85533785021059 94.98718183482879 95.03112982970153 95.03112982970153 94.96520783739241 94.81138985533785 94.61362387841055 94.15216993224685 93.66874198864677 92.8557040835012 92.46017212964658 91.99871818348288 91.47134224501008 90.26277238600989 89.84526643471892 89.33986449368247 88.87841054751877 88.21919062442777 87.51602270646401 86.85680278337301 86.3953488372093 85.7361289141183 85.25270097051822 84.61545504486358 84.08807910639078 83.56070316791798 82.9454312396997 82.24226332173595 81.75883537813587 81.1435634499176 80.66013550631753 79.95696758835379 79.45156564731734 78.6165537447354 78.04522981138985 77.60574986266252 77.10034792162608 76.8146859549533 76.46310199597144 75.89177806262589 75.51822010620765 75.10071415491669 74.63926020875297 74.24372825489837 73.87017029848013 73.51858633949826 72.99121040102546 72.44186046511629 72.00238051638894 71.4310565830434 70.81578465482514 70.31038271378868 69.431422816334 69.16773484709759 68.53048892144295 67.95916498809743 67.29994506500641 66.83849111884271 65.93755722395166 65.19044131111518 64.79490935726056 64.3114814136605 63.718183482878594 63.10291155466032 62.66343160593298 62.0481596777147 61.41091375206006 60.88353781358725 60.356161875114445 59.916681926387106 59.301409998168836 58.73008606482329 58.07086614173228 57.65336019044131 57.038088262223035 56.620582310932065 56.00531038271379 55.56583043398645 55.10437648782275 54.51107855704083 54.203442592931694 53.720014649331624 53.500274674967955 53.214612708295185 52.863028749313315 52.44552279802234 52.11591283647684 51.72038088262223 51.41274491851309 50.90734297747665 50.160227064640175 49.962461087712875 49.50100714154917 49.14942318256729 48.60007324665812 47.87493133125801 47.50137337483977 47.1497894158579 46.380699505585056 46.051089544039556 45.63358359274858 45.36989562351218 45.12818165171214 44.79857169016664 44.51290972349386 44.16132576451199 44.007507782457424 43.831715802966485 43.633949826039185 43.48013184398462 43.348287859366415 43.040651895257284 42.864859915766345 42.55722395165721 42.35945797472991 42.0298480131844 41.43655008240249 41.26075810291155 40.99707013367515 40.73338216443875 40.206006225965936 39.964292254165905 39.7006042849295 39.4369163156931 39.01941036440212 38.79967039003846 38.53598242080205 38.27229445156565 37.98663248489288 37.4372825489837 37.1076725874382 36.602270646401756 35.986998718183486 35.61344076176525 35.28383080021974 34.93224684123787 34.44881889763779 34.207104925837754 33.943416956601354 33.54788500274675 33.196301043764876 32.932613074528476 32.55905511811024 32.16352316425563 32.00970518220106 31.548251236037355 31.28456326680095 31.064823292437282 30.58139534883721 30.36165537447354 30.14191540010987 29.900201428309835 29.680461453946165 29.284929500091557 28.955319538546053 28.71360556674602 28.362021607764145 28.05438564365501 27.68082768723677 27.307269730818533 27.04358176158213 26.691997802600255 26.36238784105475 26.208569859000182 26.14264786669108 26.098699871818347 26.098699871818347 26.098699871818347 26.120673869254716 26.120673869254716 26.098699871818347 26.098699871818347 26.054751876945616 26.032777879509247 26.01080388207288 26.032777879509247 26.01080388207288 26.01080388207288 26.01080388207288 25.988829884636512 25.988829884636512 25.988829884636512 25.966855887200147 25.966855887200147 25.966855887200147 25.966855887200147 25.988829884636512 25.966855887200147 25.944881889763778 25.944881889763778 25.944881889763778 25.944881889763778 25.966855887200147 25.944881889763778 25.944881889763778 25.922907892327412 25.900933894891047 25.900933894891047 25.878959897454678 25.878959897454678 25.878959897454678 25.878959897454678 25.878959897454678 25.900933894891047 25.878959897454678 25.878959897454678 25.856985900018312 25.878959897454678 25.878959897454678 25.878959897454678 25.878959897454678 25.878959897454678 25.878959897454678 25.878959897454678 25.878959897454678 25.878959897454678 25.856985900018312 25.856985900018312 25.878959897454678 25.878959897454678 25.878959897454678 25.878959897454678 25.878959897454678 25.878959897454678 25.878959897454678 25.878959897454678 25.878959897454678 25.878959897454678 25.878959897454678 25.856985900018312 25.856985900018312 25.856985900018312 25.856985900018312 25.878959897454678 25.878959897454678 25.856985900018312 25.856985900018312 25.856985900018312 25.856985900018312 25.856985900018312 25.856985900018312 25.856985900018312 25.856985900018312 25.856985900018312 25.856985900018312 25.856985900018312 25.856985900018312 25.835011902581943 25.856985900018312 25.856985900018312 25.835011902581943 25.835011902581943 25.835011902581943 25.835011902581943 25.835011902581943 25.835011902581943 25.835011902581943 25.835011902581943 25.835011902581943 25.813037905145578 25.813037905145578 25.835011902581943 25.813037905145578 25.813037905145578 25.813037905145578 25.813037905145578 25.813037905145578 25.813037905145578 25.813037905145578 25.813037905145578 25.813037905145578 25.813037905145578 25.813037905145578 25.813037905145578 25.813037905145578 25.813037905145578 25.813037905145578 25.813037905145578 25.813037905145578 25.791063907709212 25.813037905145578 25.791063907709212 25.791063907709212 25.791063907709212 25.813037905145578 25.813037905145578 25.791063907709212 25.813037905145578 25.791063907709212 25.791063907709212 25.791063907709212 25.791063907709212 25.791063907709212 25.791063907709212 25.791063907709212 25.791063907709212 25.791063907709212 25.791063907709212 25.791063907709212 25.791063907709212 25.769089910272843 25.791063907709212 25.769089910272843 25.769089910272843 25.769089910272843 25.769089910272843 25.769089910272843 25.769089910272843 25.769089910272843 25.769089910272843 25.769089910272843 25.769089910272843 25.747115912836477 25.769089910272843 25.769089910272843 25.769089910272843 25.747115912836477 25.769089910272843 25.747115912836477 25.747115912836477 25.769089910272843 25.747115912836477 25.747115912836477 25.747115912836477 25.747115912836477 25.747115912836477 25.747115912836477 25.747115912836477 25.747115912836477 25.747115912836477 25.747115912836477 25.747115912836477 25.747115912836477 25.747115912836477 25.747115912836477 25.747115912836477 25.72514191540011 25.747115912836477 25.72514191540011 25.72514191540011 25.72514191540011 25.72514191540011 25.72514191540011 25.72514191540011 25.72514191540011 25.72514191540011 25.72514191540011 25.72514191540011 25.72514191540011 25.703167917963743 25.72514191540011 25.72514191540011 25.703167917963743 25.703167917963743 25.703167917963743 25.703167917963743 25.703167917963743 25.72514191540011 25.703167917963743 25.72514191540011 25.703167917963743 25.703167917963743 25.72514191540011 25.703167917963743 25.703167917963743 25.72514191540011 25.703167917963743 25.72514191540011 25.703167917963743 25.72514191540011 25.72514191540011 25.72514191540011 25.72514191540011 25.72514191540011 25.72514191540011 25.72514191540011 25.72514191540011 25.72514191540011 25.72514191540011 25.703167917963743 25.703167917963743 25.703167917963743 25.703167917963743 25.703167917963743 25.703167917963743 25.703167917963743 25.703167917963743 25.703167917963743 25.703167917963743 25.703167917963743 25.703167917963743 25.703167917963743 25.703167917963743 25.703167917963743 25.703167917963743 25.703167917963743 25.72514191540011 25.72514191540011 25.747115912836477 25.791063907709212 25.878959897454678 26.032777879509247 26.340413843618386 26.60410181285479 27.131477751327594 27.74674967954587 28.230177623145945 28.933345541109688 29.724409448818896 30.29573338216444 31.108771287310017 31.72404321552829 32.62497711041934 33.459989013001284 34.27302691814686 35.10803882072881 35.83318073612892 36.360556674601725 37.019776597692726 37.261490569492764 37.87676249771104 38.49203442592932 38.88756637978392 39.612708295184035 40.118110236220474 40.55759018494781 41.06299212598425 41.30470609778429 41.85405603369347 42.68906793627541 43.172495879875484 43.897637795275585 44.6887017029848 45.65555759018495 46.64438747482146 47.10584142098517 48.20454129280351 49.39113715436733 50.29207104925838 51.50064090825856 52.68723676982238 53.895806628822555 55.03845449551364 55.49990844167735 56.488738326313864 57.54349020325947 58.22468412378685 59.191540010987 60.46603186229628 61.21314777513276 62.02618568027834 62.993041567478485 63.608313495696756 64.83885735213332 65.21241530855156 66.22321919062443 67.10217908807911 67.93719099066105 68.59641091375207 69.6951107855704 70.37630470609778 71.34316059329794 72.13422450100714 72.94726240615272 73.91411829335286 74.59531221388025 75.75993407800769 76.30928401391687 76.85863394982604 77.56180186778978 78.2869437831899 78.94616370628091 79.4076176524446 80.08881157297199 80.74803149606299 81.2754074345358 81.91265336019043 82.54989928584509 82.98937923457243 83.6046511627907 84.04413111151804 84.70335103460906 85.31862296282733 85.75810291155466 86.35140084233657 86.87877678080937 87.34023072697309 87.80168467313679 88.26313861930049 88.6586705731551 88.94433253982787 89.25196850393701 89.69144845266435 90.15290239882806 90.54843435268266 91.07581029115548 91.51529023988282 91.77897820911922 92.10858817066472 92.32832814502838 92.61399011170116 92.81175608862846 92.9216260758103 93.00952206555576 93.07544405786486 93.09741805530123 93.09741805530123 93.09741805530123 93.0534700604285 92.87767808093756 92.67991210401026 92.3942501373375 91.97674418604652 91.4493682475737 90.96594030397362 90.4605383629372 90.13092840139169 89.77934444240981 89.40578648599158 88.96630653726424 88.6586705731551 88.24116462186413 87.80168467313679 87.47207471159129 86.85680278337301 86.54916681926387 86.19758286028201 85.64823292437282 85.23072697308186 84.68137703717268 84.0001831166453 83.67057315509979 83.18714521149973 82.83556125251786 82.41805530122689 81.89067936275407 81.49514740889947 80.66013550631753 80.00091558322652 79.5394616370628 78.90221571140816 78.4187877678081 77.89141182933528 77.34206189342612 76.99047793444424 76.30928401391687 75.97967405237137 75.38637612158945 74.99084416773485 74.59531221388025 74.13385826771653 73.562534334371 73.14502838308002 72.59567844717085 72.09027650613442 71.71671854971618 70.94762863944334 70.66196667277055 70.24446072147958 69.71708478300678 69.2995788317158 68.68430690349753 67.62955502655191 67.21204907526095 66.81651712140633 66.39901117011536 65.8496612342062 65.27833730086064 64.68503937007874 64.33345541109688 63.850027467496794 63.454495513642186 62.971067570042116 62.53158762131478 61.8503937007874 61.49880974180553 61.16919978026002 60.663797839223584 60.246291887932614 59.916681926387106 59.4552279802234 58.97180003662333 58.64219007507782 58.11481413660502 57.389672221204904 57.016114264786665 56.400842336568395 56.049258377586526 55.43398644936825 54.97253250320454 54.44515656473173 53.851858633949824 53.434352682658854 52.68723676982238 52.51144479033144 51.98406885185864 51.5445889031313 51.19300494414942 50.709577000549345 50.511811023622045 50.29207104925838 49.984435085149244 49.69877311847647 49.4131111518037 49.2153451748764 48.88573521333089 48.49020325947629 48.22651529023988 47.63321735945797 47.36952939022157 47.061893426112434 46.64438747482146 46.182933528657756 45.89727156198498 45.56766160043948 45.0842336568394 44.79857169016664 44.40303973631203 44.11737776963926 43.655923823475554 43.062625892693646 42.75498992858451 42.42537996703901 42.00787401574803 41.65629005676616 41.10694012085699 40.535616187511444 39.898370261856805 39.39296832082036 38.99743636696576 38.55795641823842 38.00860648232924 37.61307452847464 36.975828602819995 36.470426661783556 35.94305072331075 35.43764878227431 35.0421168284197 34.60263687969236 34.09723493865592 33.74565097967405 33.284197033510345 32.932613074528476 32.36128914118294 31.72404321552829 31.328511261673686 30.735213330891778 30.251785387291704 29.878227430873466 29.526643471891596 29.19703351034609 28.55978758469145 28.18622962827321 27.922541659036806 27.592931697491302 27.483061710309467 27.131477751327594 26.911737776963925 26.80186778978209 26.648049807727524 26.51620582310932 26.45028383080022 26.406335835927486 26.38436183849112 26.36238784105475 26.340413843618386 26.340413843618386 26.29646584874565 26.274491851309286 26.23054385643655 26.208569859000182 26.186595861563816 26.14264786669108 26.120673869254716 26.098699871818347 26.07672587438198 26.054751876945616 26.054751876945616 26.032777879509247 26.01080388207288 26.01080388207288 25.988829884636512 25.988829884636512 25.988829884636512 25.966855887200147 25.966855887200147 25.966855887200147 25.944881889763778 25.944881889763778 25.944881889763778 25.966855887200147 25.944881889763778 25.944881889763778 25.944881889763778 25.922907892327412 25.944881889763778 25.944881889763778 25.922907892327412 25.922907892327412 25.922907892327412 25.900933894891047 25.900933894891047 25.878959897454678 25.878959897454678 25.878959897454678 25.878959897454678 25.878959897454678 25.878959897454678 25.856985900018312 25.856985900018312 25.856985900018312 25.856985900018312 25.856985900018312 25.835011902581943 25.835011902581943 25.835011902581943 25.835011902581943 25.835011902581943 25.835011902581943 25.813037905145578 25.813037905145578 25.813037905145578 25.813037905145578 25.813037905145578 25.813037905145578 25.813037905145578 25.813037905145578 25.791063907709212 25.791063907709212 25.791063907709212 25.791063907709212 25.769089910272843 25.769089910272843 25.769089910272843 25.769089910272843 25.747115912836477 25.769089910272843 25.747115912836477 25.747115912836477 25.747115912836477 25.747115912836477 25.747115912836477 25.747115912836477 25.72514191540011 25.747115912836477 25.72514191540011 25.72514191540011 25.72514191540011 25.72514191540011 25.703167917963743 25.703167917963743 25.703167917963743 25.703167917963743 25.703167917963743 25.703167917963743 25.703167917963743 25.703167917963743 25.681193920527377 25.65921992309101 25.65921992309101 25.65921992309101 25.65921992309101 25.65921992309101 25.65921992309101 25.65921992309101 25.65921992309101 25.637245925654643 25.637245925654643 25.65921992309101 25.637245925654643 25.637245925654643 25.637245925654643 25.615271928218274 25.615271928218274 25.615271928218274 25.615271928218274 25.615271928218274 25.615271928218274 25.615271928218274 25.593297930781908 25.593297930781908 25.593297930781908 25.593297930781908 25.593297930781908 25.593297930781908 25.571323933345543 25.593297930781908 25.593297930781908 25.571323933345543 25.593297930781908 25.593297930781908 25.593297930781908 25.593297930781908 25.593297930781908 25.593297930781908 25.593297930781908 25.593297930781908 25.593297930781908 25.593297930781908 25.593297930781908 25.593297930781908 25.593297930781908 25.593297930781908 25.593297930781908 25.593297930781908 25.593297930781908 25.593297930781908 25.593297930781908 25.593297930781908 25.593297930781908 25.593297930781908 25.593297930781908 25.593297930781908 25.593297930781908 25.593297930781908 25.593297930781908 25.593297930781908 25.593297930781908 25.593297930781908 25.593297930781908 25.593297930781908 25.593297930781908 25.593297930781908 25.593297930781908 25.593297930781908 25.593297930781908 25.593297930781908 25.593297930781908 25.593297930781908 25.593297930781908 25.593297930781908 25.571323933345543 25.593297930781908 25.593297930781908 25.593297930781908 25.593297930781908 25.593297930781908 25.593297930781908 25.593297930781908 25.593297930781908 25.593297930781908 25.571323933345543 25.571323933345543 25.571323933345543 25.593297930781908 25.593297930781908 25.593297930781908 25.593297930781908 25.593297930781908 25.593297930781908 25.571323933345543 25.571323933345543 25.593297930781908 25.571323933345543 25.571323933345543 25.593297930781908 25.593297930781908 25.571323933345543 25.571323933345543 25.571323933345543 25.593297930781908 25.571323933345543 25.571323933345543 25.571323933345543 25.571323933345543 25.571323933345543 25.571323933345543 25.571323933345543 25.571323933345543 25.571323933345543 25.571323933345543 25.549349935909174 25.549349935909174 25.571323933345543 25.549349935909174 25.571323933345543 25.571323933345543 25.549349935909174 25.549349935909174 25.549349935909174 25.571323933345543 25.549349935909174 25.571323933345543 25.571323933345543 25.593297930781908 25.615271928218274 25.637245925654643 25.637245925654643 25.65921992309101 25.681193920527377 25.72514191540011 25.747115912836477 25.769089910272843 25.791063907709212 25.835011902581943 25.900933894891047 26.01080388207288 26.14264786669108 26.36238784105475 26.51620582310932 26.757919794909355 27.065555759018494 27.417139718000367 27.834645669291337 28.38399560520051 28.515839589818714 29.350851492400658 29.8562534334371 30.537447353964474 31.59219923091009 32.42721113349204 32.69089910272844 33.54788500274675 34.42684490020143 35.02014283098333 35.96502472074712 36.558322651529025 37.45925654642007 38.05255447720198 39.5028383080022 40.052188243911374 40.645486174693275 41.48049807727523 42.0298480131844 42.62314594396631 43.787767808093754 44.40303973631203 45.32594762863944 46.248855520966856 46.908075444057864 47.91887932613075 48.62204724409449 49.544955136421905 50.533785021058414 51.17103094671306 52.0719648416041 53.03882072880425 53.588170664713424 54.70884453396813 55.23622047244095 56.02728438015016 56.620582310932065 57.104010254532135 57.91704815967771 58.9278520417506 59.718915949459806 60.312213880241714 60.77366782640542 61.41091375206006 62.20197765976927 62.75132759567845 63.784105475187694 64.5092473905878 64.97070133675152 65.56399926753342 66.02545321369712 66.86046511627907 67.56363303424281 67.95916498809743 68.57443691631569 69.14576084966123 69.93682475737045 70.72788866507966 71.21131660867974 71.95843252151622 72.66160043947995 73.4966123420619 74.15583226515291 74.74913019593481 75.73796008057133 76.52902398828054 77.05639992675334 77.56180186778978 78.30891778062626 79.12195568577184 79.91301959348105 80.48434352682659 81.2754074345358 82.02252334737227 82.54989928584509 83.12122321919063 83.7364951474089 84.15400109869987 84.94506500640908 85.18677897820913 85.7361289141183 86.43929683208204 86.72495879875481 87.12049075260941 87.58194469877311 87.91155466031863 88.39498260391869 88.90038454495513 89.27394250137338 89.77934444240981 90.35066837575536 90.94396630653726 91.27357626808276 91.80095220655558 92.24043215528292 92.50412012451932 92.8557040835012 93.16334004761033 93.33913202710126 93.55887200146493 93.71268998351951 93.82255997070133 93.93242995788317 93.95440395531953 93.97637795275591 93.95440395531953 93.95440395531953 93.95440395531953 93.86650796557407 93.75663797839223 93.60281999633767 93.42702801684673 93.16334004761033 92.89965207837392 92.67991210401026 92.43819813221022 92.21845815784656 91.73503021424648 91.33949826039188 91.00988829884636 90.54843435268266 90.08698040651895 89.75737044497345 89.22999450650065 88.87841054751877 88.57077458340964 88.24116462186413 87.93352865775499 87.47207471159129 86.96667277055485 86.61508881157297 86.06573887566381 85.82402490386376 85.25270097051822 84.74729902948178 84.30781908075444 83.7364951474089 83.25306720380883 82.90148324482695 82.41805530122689 82.24226332173595 81.84673136788135 81.31935542940855 81.05566746017213 80.72605749862663 80.39644753708112 80.19868156015382 79.89104559604468 79.64933162424464 79.34169566013551 78.99011170115364 78.7483977293536 78.2869437831899 77.86943783189892 77.34206189342612 76.8146859549533 76.39718000366233 75.91375206006227 75.27650613440761 74.52939022157113 73.95806628822561 73.01318439846182 72.52975645486175 71.82658853689802 71.32118659586156 70.68394067020692 69.98077275224318 69.4973448086431 68.81615088811573 68.17890496246109 67.71745101629739 67.40981505218824 67.08020509064274 66.42098516755172 66.1133492034426 65.78373924189708 65.27833730086064 64.92675334187878 64.46529939571508 63.828053470060425 63.454495513642186 63.146859549533055 62.61948361106025 62.09210767258744 61.54275773667826 60.88353781358725 60.136421900750776 59.740889946896175 59.1256180186779 58.70811206738693 57.98297015198681 57.49954220838674 56.884270280168465 56.466764328877495 55.69767441860465 55.03845449551364 54.6648965390954 54.00567661600439 53.126716718549716 52.66526277238601 52.22578282365867 51.52261490569492 50.77549899285845 50.35799304156748 49.91851309284014 49.237319172312766 48.64402124153085 47.94085332356711 47.259659403039734 46.776231459439664 46.182933528657756 45.52371360556674 45.04028566196667 44.4250137337484 43.80974180553012 43.414209851675515 42.864859915766345 42.51327595678447 41.98590001831167 41.26075810291155 41.084966123420614 40.77733015931148 40.42574620032961 40.162058231093205 39.810474272111335 39.5028383080022 39.239150338765796 38.99743636696576 38.84361838491119 38.60190441311115 38.44808643105658 38.18439846182018 37.92071049258378 37.7009705182201 37.45925654642007 37.21754257462003 36.997802600256364 36.602270646401756 36.470426661783556 36.052920710492586 35.81120673869255 35.48159677714705 35.28383080021974 34.86632484892877 34.6465848745651 34.36092290789233 34.16315693096502 33.96539095403772 33.701702984801315 33.503937007874015 33.152353048892145 32.88866507965574 32.69089910272844 32.42721113349204 32.27339315143747 32.0536531770738 31.81193920527376 31.74601721296466 31.59219923091009 31.46035524629189 31.328511261673686 31.15271928218275 30.998901300128182 30.801135323200878 30.58139534883721 30.42757736678264 30.185863394982604 30.010071415491666 29.8562534334371 29.680461453946165 29.592565464200696 29.504669474455227 29.438747482146127 29.350851492400658 29.240981505218826 29.043215528291523 28.91137154367332 28.735579564182384 28.62570957700055 28.47189159494598 28.31807361289141 28.296099615455045 28.25215162058231 28.208203625709576 28.208203625709576 28.142281633400476 28.09833363852774 28.010437648782275 27.90056766160044 27.834645669291337 27.68082768723677 27.483061710309467 27.417139718000367 27.307269730818533 27.197399743636698 27.153451748763963 27.131477751327594 27.131477751327594 27.10950375389123 27.087529756454863 27.04358176158213 26.933711774400294 26.845815784654825 26.713971800036624 26.45028383080022 26.252517853872916 26.098699871818347 26.054751876945616 25.988829884636512 25.966855887200147 25.944881889763778 25.966855887200147 25.988829884636512 25.988829884636512 25.988829884636512 25.966855887200147 25.944881889763778 25.922907892327412 25.922907892327412 25.900933894891047 25.900933894891047 25.900933894891047 25.900933894891047 25.900933894891047 25.900933894891047 25.900933894891047 25.900933894891047 25.900933894891047 25.900933894891047 25.900933894891047 25.900933894891047 25.900933894891047 25.900933894891047 25.900933894891047 25.900933894891047 25.922907892327412 25.922907892327412 25.922907892327412 25.922907892327412 25.900933894891047 25.922907892327412 25.900933894891047 25.900933894891047 25.900933894891047 25.900933894891047 25.922907892327412 25.922907892327412 25.922907892327412 25.900933894891047 25.900933894891047 25.900933894891047 25.922907892327412 25.900933894891047 25.922907892327412 25.922907892327412 25.922907892327412 25.900933894891047 25.922907892327412 25.922907892327412 25.900933894891047 25.922907892327412 25.922907892327412 25.922907892327412 25.922907892327412 25.922907892327412 25.922907892327412 25.900933894891047 25.922907892327412 25.922907892327412 25.900933894891047 25.922907892327412 25.900933894891047 25.900933894891047 25.900933894891047 25.922907892327412 25.900933894891047 25.922907892327412 25.900933894891047 25.900933894891047 25.900933894891047 25.900933894891047 25.900933894891047 25.900933894891047 25.900933894891047 25.900933894891047 25.878959897454678 25.900933894891047 25.900933894891047 25.878959897454678 25.878959897454678 25.878959897454678 25.878959897454678 25.878959897454678 25.878959897454678 25.878959897454678 25.878959897454678 25.878959897454678 25.878959897454678 25.878959897454678 25.856985900018312 25.856985900018312 25.878959897454678 25.856985900018312 25.856985900018312 25.856985900018312 25.878959897454678 25.878959897454678 25.856985900018312 25.878959897454678 25.856985900018312 25.856985900018312 25.856985900018312 25.856985900018312 25.856985900018312 25.856985900018312 25.856985900018312 25.878959897454678 25.856985900018312 25.856985900018312 25.856985900018312 25.856985900018312 25.878959897454678 25.856985900018312 25.856985900018312 25.856985900018312 25.856985900018312 25.856985900018312 25.856985900018312 25.856985900018312 25.835011902581943 25.835011902581943 25.835011902581943 25.835011902581943 25.835011902581943 25.835011902581943 25.835011902581943 25.835011902581943 25.835011902581943 25.835011902581943 25.835011902581943 25.835011902581943 25.835011902581943 25.835011902581943 25.835011902581943 25.835011902581943 25.835011902581943 25.813037905145578 25.813037905145578 25.835011902581943 25.835011902581943 25.835011902581943 25.835011902581943 25.835011902581943 25.835011902581943 25.835011902581943 25.856985900018312 25.856985900018312 25.856985900018312 25.835011902581943 25.856985900018312 25.856985900018312 25.856985900018312 25.835011902581943 25.835011902581943 25.835011902581943 25.835011902581943 25.835011902581943 25.835011902581943 25.835011902581943 25.835011902581943 25.835011902581943 25.835011902581943 25.835011902581943 25.835011902581943 25.835011902581943 25.835011902581943 25.856985900018312 25.856985900018312 25.856985900018312 25.900933894891047 25.944881889763778 26.07672587438198 26.14264786669108 26.45028383080022 26.757919794909355 26.999633766709394 27.395165720564 27.834645669291337 28.27412561801868 28.75755356161875 29.175059512909723 29.834279436000735 30.493499359091743 31.042849295000916 31.78996520783739 32.5151071232375 33.064457059146676 33.96539095403772 34.47079289507416 35.23988280534701 36.03094671305622 36.909906610510895 37.74491851309284 38.62387841054752 39.305072331074896 40.206006225965936 40.93114814136605 41.91997802600257 42.97472990294818 43.831715802966485 44.90844167734847 46.09503753891229 46.973997436366965 48.16059329793078 49.06152719282183 50.336019044131106 51.4786669108222 52.291704815967776 53.302508698040654 54.5989745467863 55.25819446987731 55.89544039553195 57.104010254532135 57.67533418787768 58.26863211865959 59.0596960263688 59.872733931514375 60.77366782640542 61.23512177256912 62.13605566746017 62.773301593114816 64.02581944698773 64.53122138802416 65.12451931880608 65.82768723676982 66.55282915216993 67.43178904962461 68.31074894707929 68.99194286760667 69.4973448086431 70.33235671122506 70.88170664713422 71.67277055484342 72.44186046511629 73.2329243728255 74.06793627540745 74.70518220106207 75.25453213697125 76.0895440395532 76.59494598058964 77.56180186778978 78.04522981138985 78.79234572422632 79.75920161142648 80.35249954220839 80.81395348837209 81.45119941402675 82.15436733199049 82.79161325764511 83.16517121406336 83.56070316791798 84.08807910639078 84.70335103460906 85.23072697308186 85.62625892693646 85.9998168833547 86.46127082951841 86.81285478850029 87.34023072697309 87.86760666544589 88.10932063724593 88.50485259110053 88.76854056033693 89.14209851675518 89.40578648599158 89.77934444240981 90.13092840139169 90.65830433986449 90.98791430141 91.20765427577368 91.51529023988282 91.73503021424648 91.95477018861015 92.08661417322836 92.21845815784656 92.24043215528292 92.24043215528292 92.17451016297382 91.95477018861015 91.64713422450102 91.00988829884636 90.48251236037356 90.02105841420986 89.49368247573705 88.9223585423915 88.39498260391869 88.02142464750045 87.51602270646401 86.61508881157297 86.5271928218275 86.1316608679729 85.51638893975462 85.07690899102728 84.48361106024538 84.0001831166453 83.49478117560886 82.98937923457243 82.61582127815419 82.06647134224502 81.36330342428127 80.87987548068119 80.44039553195387 80.08881157297199 79.60538362937191 78.99011170115364 78.39681377037172 77.78154184215344 77.1442959164988 76.37520600622597 75.91375206006227 75.34242812671673 74.50741622413477 73.65043032411646 72.88134041384362 72.09027650613442 71.14539461637062 70.53012268815235 69.54129280351583 68.75022889580663 67.49771104193371 66.59677714704267 65.9815052188244 65.23438930598792 63.630287493133125 62.927119575169385 62.39974363669658 61.93828969053287 61.43288774949643 60.94945980589635 60.444057864859914 59.56509796740524 59.01574803149606 58.62021607764146 58.11481413660502 57.71928218275041 57.323750228895804 56.57663431605933 56.181102362204726 55.67570042116829 54.99450650064091 54.62094854422267 54.203442592931694 53.632118659586155 53.214612708295185 52.66526277238601 52.22578282365867 51.5445889031313 50.90734297747665 50.226149056949275 49.14942318256729 48.70994323383995 48.16059329793078 47.67716535433071 47.215711408167 46.51254349020326 45.985167551730456 45.32594762863944 44.60080571323933 44.09540377220289 43.392235854239146 42.2276139901117 41.61234206189343 41.19483611060245 40.75535616187511 40.35982420802051 39.920344259293174 39.370994323384 39.04138436183849 38.57993041567478 38.25032045412928 37.8328145028383 37.54715253616554 37.041750595129095 36.690166636147225 36.338582677165356 36.03094671305622 35.76725874381981 35.52554477201978 35.19593481047427 34.95422083867423 34.60263687969236 34.207104925837754 33.943416956601354 33.569859000183115 33.174327046328514 32.88866507965574 32.53708112067387 32.2514191540011 31.767991210401025 31.57022523347372 31.37245925654642 31.108771287310017 30.911005310382713 30.779161325764512 30.603369346273574 30.42757736678264 30.22981138985534 30.097967405237135 29.944149423182566 29.790331441127996 29.438747482146127 29.306903497527927 29.153085515473357 29.021241530855153 28.801501556491484 28.53781358725508 28.25215162058231 28.09833363852774 27.856619666727706 27.68082768723677 27.548983702618568 27.439113715436733 27.263321735945798 27.131477751327594 27.065555759018494 26.999633766709394 26.933711774400294 26.757919794909355 26.67002380516389 26.51620582310932 26.36238784105475 26.208569859000182 26.120673869254716 26.07672587438198 26.054751876945616 26.032777879509247 26.01080388207288 26.032777879509247 26.01080388207288 25.988829884636512 25.966855887200147 25.944881889763778 25.922907892327412 25.944881889763778 25.922907892327412 25.900933894891047 25.900933894891047 25.878959897454678 25.878959897454678 25.900933894891047 25.878959897454678 25.878959897454678 25.900933894891047 25.878959897454678 25.878959897454678 25.878959897454678 25.878959897454678 25.878959897454678 25.878959897454678 25.878959897454678 25.878959897454678 25.878959897454678 25.856985900018312 25.878959897454678 25.856985900018312 25.856985900018312 25.856985900018312 25.856985900018312 25.856985900018312 25.878959897454678 25.856985900018312 25.856985900018312 25.856985900018312 25.856985900018312 25.856985900018312 25.835011902581943 25.835011902581943 25.835011902581943 25.813037905145578 25.835011902581943 25.835011902581943 25.835011902581943 25.835011902581943 25.813037905145578 25.813037905145578 25.813037905145578 25.813037905145578 25.813037905145578 25.813037905145578 25.813037905145578 25.791063907709212 25.813037905145578 25.813037905145578 25.813037905145578 25.813037905145578 25.813037905145578 25.813037905145578 25.813037905145578 25.813037905145578 25.813037905145578 25.791063907709212 25.813037905145578 25.791063907709212 25.791063907709212 25.791063907709212 25.791063907709212 25.791063907709212 25.791063907709212 25.791063907709212 25.791063907709212 25.791063907709212 25.791063907709212 25.791063907709212 25.791063907709212 25.791063907709212 25.791063907709212 25.791063907709212 25.791063907709212 25.791063907709212 25.791063907709212 25.791063907709212 25.791063907709212 25.791063907709212 25.791063907709212 25.791063907709212 25.791063907709212 25.791063907709212 25.791063907709212 25.791063907709212 25.769089910272843 25.791063907709212 25.791063907709212 25.769089910272843 25.791063907709212 25.769089910272843 25.791063907709212 25.769089910272843 25.769089910272843 25.769089910272843 25.769089910272843 25.769089910272843 25.769089910272843 25.769089910272843 25.769089910272843 25.769089910272843 25.769089910272843 25.769089910272843 25.769089910272843 25.769089910272843 25.747115912836477 25.747115912836477 25.747115912836477 25.747115912836477 25.747115912836477 25.747115912836477 25.747115912836477 25.747115912836477 25.747115912836477 25.747115912836477 25.747115912836477 25.72514191540011 25.747115912836477 25.747115912836477 25.747115912836477 25.747115912836477 25.72514191540011 25.747115912836477 25.72514191540011 25.72514191540011 25.72514191540011 25.72514191540011 25.72514191540011 25.72514191540011 25.72514191540011 25.703167917963743 25.703167917963743 25.703167917963743 25.703167917963743 25.703167917963743 25.703167917963743 25.703167917963743 25.703167917963743 25.703167917963743 25.703167917963743 25.681193920527377 25.681193920527377 25.703167917963743 25.681193920527377 25.681193920527377 25.681193920527377 25.681193920527377 25.681193920527377 25.681193920527377 25.681193920527377 25.681193920527377 25.681193920527377 25.681193920527377 25.681193920527377 25.681193920527377 25.681193920527377 25.681193920527377 25.681193920527377 25.681193920527377 25.681193920527377 25.681193920527377 25.681193920527377 25.681193920527377 25.681193920527377 25.681193920527377 25.65921992309101 25.65921992309101 25.681193920527377 25.681193920527377 25.65921992309101 25.65921992309101 25.65921992309101 25.65921992309101 25.65921992309101 25.65921992309101 25.65921992309101 25.65921992309101 25.65921992309101 25.65921992309101 25.65921992309101 25.65921992309101 25.65921992309101 25.637245925654643 25.65921992309101 25.637245925654643 25.65921992309101 25.65921992309101 25.65921992309101 25.65921992309101 25.637245925654643 25.637245925654643 25.65921992309101 25.637245925654643 25.65921992309101 25.65921992309101 25.637245925654643 25.637245925654643 25.65921992309101 25.65921992309101 25.65921992309101 25.65921992309101 25.65921992309101 25.65921992309101 25.65921992309101 25.65921992309101 25.637245925654643 25.637245925654643 25.637245925654643 25.637245925654643 25.65921992309101 25.65921992309101 25.65921992309101 25.65921992309101 25.637245925654643 25.65921992309101 25.637245925654643 25.65921992309101 25.637245925654643 25.637245925654643 25.637245925654643 25.637245925654643 25.637245925654643 25.637245925654643 25.637245925654643 25.637245925654643 25.65921992309101 25.65921992309101 25.65921992309101 25.65921992309101 25.65921992309101 25.65921992309101 25.65921992309101 25.65921992309101 25.65921992309101 25.65921992309101 25.65921992309101 25.65921992309101 25.637245925654643 25.65921992309101 25.637245925654643 25.65921992309101 25.637245925654643 25.65921992309101 25.65921992309101 25.637245925654643 25.65921992309101 25.65921992309101 25.65921992309101 25.65921992309101 25.681193920527377 25.703167917963743 25.72514191540011 25.769089910272843 25.813037905145578 25.922907892327412 26.098699871818347 26.252517853872916 26.626075810291155 26.845815784654825 27.131477751327594 27.570957700054933 28.05438564365501 28.603735579564184 28.955319538546053 29.504669474455227 30.07599340780077 30.603369346273574 31.174693279619117 31.87786119758286 32.60300311298297 33.086431056583045 33.81157297198315 34.36092290789233 35.19593481047427 35.94305072331075 36.624244643838125 37.48123054385644 38.09650247207471 39.32704632851126 40.206006225965936 41.06299212598425 41.70023805163889 42.49130195934811 43.150521882439115 44.18329976194836 45.34792162607581 46.468595495330526 47.325581395348834 48.60007324665812 49.874565097967405 50.75352499542208 52.006042849295 53.14869071598608 53.93975462369529 56.115180369895626 56.488738326313864 57.191906244277604 58.33455411096869 59.01574803149606 59.60904596227797 60.597875846914484 60.795641823841784 61.45486174693279 62.35579564182384 63.608313495696756 64.26753341878776 65.23438930598792 65.54202527009704 66.53085515473356 67.56363303424281 68.48654092657023 69.73905878044314 70.46420069584326 71.4969785753525 72.26606848562534 73.6284563266801 74.72715619849845 75.29848013184399 76.0895440395532 76.72678996520784 77.64969785753524 78.4187877678081 79.25379967039004 79.93499359091741 80.70408350119027 81.2754074345358 82.06647134224502 82.57187328328145 83.4728071781725 84.11005310382714 84.61545504486358 85.16480498077274 85.75810291155466 86.46127082951841 87.14246475004578 87.55997070133675 88.17524262955503 88.7245925654642 89.09815052188245 89.66947445522798 90.24079838857352 90.70225233473722 91.40542025270096 91.60318622962828 92.21845815784656 92.7897820911921 93.22926203991943 93.84453396813771 94.04229994506501 94.52572788866507 95.11902581944699 95.42666178355613 95.69034975279253 96.1737776963926 96.39351767075628 96.6352316425563 96.7670756271745 96.85497161691998 96.87694561435634 96.85497161691998 96.83299761948362 96.70115363486542 96.54733565281084 96.26167368613807 95.99798571690167 95.60245376304707 95.16297381431973 94.83336385277421 94.41585790148325 93.93242995788317 93.58084599890131 93.0534700604285 92.6579381065739 92.04266617835562 91.3834462552646 90.70225233473722 90.08698040651895 89.44973448086431 89.0542025270097 88.52682658853689 88.32906061160959 87.64786669108221 87.07654275773669 86.6590368064457 86.06573887566381 85.49441494231826 84.96703900384546 84.63742904229994 84.35176707562718 83.89031312946346 83.45083318073613 83.12122321919063 82.70371726789965 82.13239333455411 81.84673136788135 81.38527742171763 80.98974546786303 80.66013550631753 80.30855154733565 79.78117560886285 79.34169566013551 78.90221571140816 78.59457974729904 77.9573338216444 77.62772386009888 77.23219190624428 76.66086797289874 76.2213880241714 75.54019410364401 75.05676616004395 74.37557223951657 73.4966123420619 72.9692364035891 72.50778245742538 71.98040651895258 71.4969785753525 70.8377586522615 70.04669474455227 69.2995788317158 68.59641091375207 68.00311298297015 67.56363303424281 66.83849111884271 66.6407251419154 65.80571323933346 65.34425929316976 64.81688335469694 64.22358542391504 63.762131477751325 63.124885552096686 62.53158762131478 61.87236769822377 61.32301776231459 60.53195385460538 60.312213880241714 59.3893059879143 58.8619300494415 58.02691814685955 57.45559421351401 57.038088262223035 56.57663431605933 56.09320637245926 55.60977842885919 53.98370261856803 53.478300677531585 53.08276872367698 52.731184764695115 52.357626808276876 52.02801684673137 51.6105108954404 51.23695293902216 50.86339498260392 50.48983702618568 50.094305072331075 49.544955136421905 49.14942318256729 48.57809924922175 48.16059329793078 47.65519135689434 47.10584142098517 46.73228346456693 46.02911554660319 45.67753158762132 45.32594762863944 44.86449368247574 44.38106573887566 43.941585790148324 43.655923823475554 43.172495879875484 42.75498992858451 42.49130195934811 41.9639260208753 41.48049807727523 41.12891411829335 40.62351217725691 40.140084233656836 39.8324482695477 39.34902032594763 39.01941036440212 38.51400842336568 38.03058047976561 37.65702252334737 37.019776597692726 36.184764695110786 35.81120673869255 35.45962277971068 35.10803882072881 34.7784288591833 34.44881889763779 34.141182933528654 33.767624977110415 33.416041018128546 33.174327046328514 32.91063907709211 32.75682109503754 32.47115912836477 32.20747115912837 32.1195751693829 31.89983519501923 31.65812122321919 31.46035524629189 31.15271928218275 31.042849295000916 30.86705731550998 30.713239333455412 30.559421351400843 30.36165537447354 30.010071415491666 29.812305438564366 29.48269547701886 29.240981505218826 28.97729353598242 28.603735579564184 28.16425563083684 27.768723676982237 27.351217725691264 27.065555759018494 26.713971800036624 26.45028383080022 26.032777879509247 25.944881889763778 25.878959897454678 25.835011902581943 25.813037905145578 25.835011902581943 25.835011902581943 25.835011902581943 25.813037905145578 25.791063907709212 25.747115912836477 25.747115912836477 25.72514191540011 25.703167917963743 25.681193920527377 25.681193920527377 25.681193920527377 25.65921992309101 25.65921992309101 25.65921992309101 25.65921992309101 25.65921992309101 25.65921992309101 25.65921992309101 25.65921992309101 25.637245925654643 25.637245925654643 25.637245925654643 25.637245925654643 25.65921992309101 25.65921992309101 25.65921992309101 25.637245925654643 25.637245925654643 25.637245925654643 25.637245925654643 25.637245925654643 25.637245925654643 25.637245925654643 25.637245925654643 25.65921992309101 25.637245925654643 25.637245925654643 25.637245925654643 25.637245925654643 25.637245925654643 25.637245925654643 25.637245925654643 25.637245925654643 25.637245925654643 25.615271928218274 25.615271928218274 25.615271928218274 25.615271928218274 25.615271928218274 25.615271928218274 25.615271928218274 25.615271928218274 25.637245925654643 25.615271928218274 25.615271928218274 25.615271928218274 25.615271928218274 25.593297930781908 25.615271928218274 25.615271928218274 25.615271928218274 25.615271928218274 25.615271928218274 25.593297930781908 25.593297930781908 25.593297930781908 25.593297930781908 25.593297930781908 25.593297930781908 25.593297930781908 25.593297930781908 25.593297930781908 25.593297930781908 25.593297930781908 25.571323933345543 25.571323933345543 25.593297930781908 25.571323933345543 25.593297930781908 25.571323933345543 25.571323933345543 25.571323933345543 25.571323933345543 25.571323933345543 25.571323933345543 25.571323933345543 25.549349935909174 25.549349935909174 25.549349935909174 25.549349935909174 25.571323933345543 25.549349935909174 25.549349935909174 25.549349935909174 25.549349935909174 25.549349935909174 25.549349935909174 25.549349935909174 25.549349935909174 25.549349935909174 25.549349935909174 25.527375938472808 25.549349935909174 25.549349935909174 25.527375938472808 25.549349935909174 25.527375938472808 25.527375938472808 25.527375938472808 25.527375938472808 25.527375938472808 25.527375938472808 25.527375938472808 25.527375938472808 25.527375938472808 25.527375938472808 25.527375938472808 25.527375938472808 25.527375938472808 25.527375938472808 25.527375938472808 25.527375938472808 25.527375938472808 25.527375938472808 25.527375938472808 25.527375938472808 25.527375938472808 25.527375938472808 25.527375938472808 25.527375938472808 25.527375938472808 25.527375938472808 25.527375938472808 25.527375938472808 25.50540194103644 25.527375938472808 25.50540194103644 25.50540194103644 25.50540194103644 25.50540194103644 25.50540194103644 25.50540194103644 25.50540194103644 25.50540194103644 25.50540194103644 25.50540194103644 25.50540194103644 25.50540194103644 25.483427943600073 25.50540194103644 25.50540194103644 25.50540194103644 25.50540194103644 25.50540194103644 25.483427943600073 25.483427943600073 25.50540194103644 25.50540194103644 25.483427943600073 25.483427943600073 25.483427943600073 25.483427943600073 25.483427943600073 25.483427943600073 25.483427943600073 25.50540194103644 25.483427943600073 25.483427943600073 25.483427943600073 25.483427943600073 25.483427943600073 25.483427943600073 25.483427943600073 25.483427943600073 25.483427943600073 25.483427943600073 25.483427943600073 25.483427943600073 25.483427943600073 25.483427943600073 25.483427943600073 25.483427943600073 25.461453946163708 25.483427943600073 25.483427943600073 25.483427943600073 25.483427943600073 25.461453946163708 25.483427943600073 25.483427943600073 25.483427943600073 25.483427943600073 25.483427943600073 25.483427943600073 25.483427943600073 25.483427943600073 25.483427943600073 25.483427943600073 25.483427943600073 25.483427943600073 25.483427943600073 25.483427943600073 25.483427943600073 25.483427943600073 25.483427943600073 25.483427943600073 25.461453946163708 25.483427943600073 25.483427943600073 25.461453946163708 25.461453946163708 25.461453946163708 25.461453946163708 25.461453946163708 25.461453946163708 25.461453946163708 25.483427943600073 25.461453946163708 25.461453946163708 25.461453946163708 25.461453946163708 25.483427943600073 25.483427943600073 25.483427943600073 25.483427943600073 25.483427943600073 25.483427943600073 25.483427943600073 25.483427943600073 25.483427943600073 25.483427943600073 25.483427943600073 25.483427943600073 25.483427943600073 25.483427943600073 25.483427943600073 25.483427943600073 25.483427943600073 25.483427943600073 25.50540194103644 25.527375938472808 25.571323933345543 25.65921992309101 25.769089910272843 25.988829884636512 26.208569859000182 26.58212781541842 27.065555759018494 27.439113715436733 28.010437648782275 28.427943600073245 29.043215528291523 29.746383446255265 30.20783739241897 30.889031312946347 31.59219923091009 32.1195751693829 33.39406702069218 33.701702984801315 34.75645486174693 35.39370078740157 36.07489470792895 36.73411463101996 37.3713605566746 38.38216443874748 39.305072331074896 40.118110236220474 41.19483611060245 41.76616004394799 42.38143197216627 43.260391869620946 44.09540377220289 44.7546236952939 45.65555759018495 46.380699505585056 47.039919428676065 48.24848928767625 48.92968320820363 49.588903131294636 50.55575901849478 51.23695293902216 52.59934078007691 53.98370261856803 54.73081853140451 55.41201245193188 56.07123237502289 56.77440029298663 57.58743819813221 58.51034609045962 59.76286394433254 60.224317890496245 61.08130379051456 61.9822376854056 62.64145760849661 63.586339498260394 64.5092473905878 65.14649331624244 66.1133492034426 66.7725691265336 67.80534700604285 69.01391686504303 69.73905878044314 70.61801867789782 71.18934261124336 71.7606665445889 72.59567844717085 73.18897637795277 74.68320820362571 75.25453213697125 76.04559604468047 76.5509979857169 76.9465299395715 78.02325581395348 78.50668375755356 79.01208569859 79.75920161142648 80.52829152169933 81.03369346273576 82.06647134224502 82.19831532686322 82.87950924739059 83.51675517304523 84.0001831166453 84.68137703717268 85.38454495513642 86.10968687053654 86.81285478850029 87.09851675517305 87.75773667826405 88.41695660135505 89.12012451931881 89.53763047060978 90.7242263321736 91.03186229628274 91.7130562168101 92.08661417322836 92.87767808093756 93.93242995788317 94.37190990661051 94.76744186046513 95.20692180919247 95.60245376304707 96.08588170664714 96.7670756271745 97.07471159128364 97.62406152719282 97.99761948361106 98.48104742721114 98.92052737593848 99.16224134773852 99.62369529390222 99.79948727339315 99.93133125801135 100.12909723493865 100.1730452298114 100.1730452298114 100.15107123237502 100.1071232375023 99.95330525544773 99.77751327595679 99.44790331441128 99.07434535799304 98.76670939388391 98.2393334554111 97.64603552462918 97.16260758102912 96.34956967588354 95.95403772202894 95.20692180919247 94.43783189891961 93.88848196301043 93.3171580296649 92.43819813221022 91.60318622962828 90.74620032960996 90.43856436550082 89.62552646035525 88.96630653726424 88.19721662699139 87.49404870902765 86.96667277055485 86.24153085515474 85.538362937191 84.76927302691814 84.30781908075444 83.62662516022706 83.12122321919063 82.46200329609962 81.71488738326315 81.0776414576085 80.33052554477202 79.5394616370628 79.03405969602638 78.4847097601172 77.9573338216444 77.36403589086248 76.8146859549533 75.89177806262589 75.16663614722579 74.68320820362571 74.15583226515291 73.4306903497528 72.81541842153452 71.71671854971618 71.12342061893426 70.28840871635232 69.40944881889763 68.48654092657023 67.91521699322467 67.10217908807911 66.46493316242447 65.76176524446072 65.23438930598792 64.55319538546054 63.630287493133125 63.146859549533055 62.66343160593298 62.07013367515107 61.586705731551 61.01538179820545 60.61984984435085 59.806811939205275 59.191540010987 58.73008606482329 58.09284013916865 57.41164621864127 56.8622962827321 56.13715436733199 55.56583043398645 54.77476652627723 54.02765061344076 53.456326680095216 52.66526277238601 52.11591283647684 51.36879692364036 50.665629005676614 50.028383080021975 49.63285112616737 49.03955319538546 48.73191723127633 48.11664530305805 47.83098333638527 47.61124336202161 47.23768540560337 47.017945431239696 46.820179454312395 46.490569492766895 46.402673503021425 46.27082951840322 46.117011536348656 45.96319355429409 45.76542757736678 45.61160959531222 45.36989562351218 45.12818165171214 44.90844167734847 44.46896172862113 44.271195751693824 44.02948177989379 43.655923823475554 43.392235854239146 42.88683391320271 42.38143197216627 42.13971800036623 41.87603003112983 41.63431605932979 41.28273210034792 40.90917414392968 40.667460172129644 40.249954220838674 39.810474272111335 39.524812305438566 39.305072331074896 39.08533235671123 38.79967039003846 38.47006042849295 38.22834645669291 37.78886650796557 37.59110053103827 37.34938655923823 36.975828602819995 36.690166636147225 36.426478666910825 36.07489470792895 35.83318073612892 35.50357077458341 34.88829884636513 34.73448086431057 34.49276689251053 34.207104925837754 33.96539095403772 33.67972898736495 33.32814502838308 32.932613074528476 32.82274308734664 32.55905511811024 32.3173411463102 32.09760117194653 31.96575718732833 31.74601721296466 31.57022523347372 31.43838124885552 31.28456326680095 31.108771287310017 30.845083318073613 30.625343343709943 30.559421351400843 30.339681377037174 30.097967405237135 29.9221754257462 29.70243545138253 29.460721479582496 29.131111518036988 28.955319538546053 28.801501556491484 28.55978758469145 28.40596960263688 28.16425563083684 28.03241164621864 27.81267167185497 27.724775682109502 27.614905694927668 27.527009705182202 27.395165720564 27.307269730818533 27.17542574620033 27.087529756454863 26.911737776963925 26.867789782091194 26.80186778978209 26.691997802600255 26.60410181285479 26.472257828236586 26.36238784105475 26.340413843618386 26.252517853872916 26.14264786669108 26.14264786669108 26.120673869254716 26.120673869254716 26.120673869254716 26.120673869254716 26.120673869254716 26.120673869254716 26.098699871818347 26.098699871818347 26.098699871818347 26.098699871818347 26.07672587438198 26.07672587438198 26.098699871818347 26.07672587438198 26.054751876945616 26.054751876945616 26.054751876945616 26.054751876945616 26.054751876945616 26.054751876945616 26.054751876945616 26.054751876945616 26.054751876945616 26.054751876945616 26.054751876945616 26.054751876945616 26.054751876945616 26.054751876945616 26.054751876945616 26.054751876945616 26.054751876945616 26.054751876945616 26.032777879509247 26.032777879509247 26.032777879509247 26.032777879509247 26.032777879509247 26.032777879509247 26.032777879509247 26.032777879509247 26.032777879509247 26.032777879509247 26.01080388207288 26.032777879509247 26.032777879509247 26.032777879509247 26.032777879509247 26.01080388207288 26.01080388207288 26.01080388207288 26.01080388207288 26.01080388207288 26.01080388207288 26.01080388207288 26.01080388207288 26.01080388207288 25.988829884636512 25.988829884636512 26.01080388207288 26.01080388207288 25.988829884636512 25.988829884636512 26.01080388207288 25.988829884636512 26.01080388207288 26.01080388207288 26.01080388207288 25.988829884636512 25.988829884636512 25.988829884636512 25.988829884636512 25.988829884636512 25.988829884636512 25.988829884636512 25.988829884636512 25.988829884636512 25.988829884636512 25.988829884636512 25.988829884636512 25.988829884636512 25.988829884636512 25.988829884636512 25.988829884636512 25.988829884636512 25.988829884636512 25.988829884636512 25.988829884636512 25.988829884636512 25.988829884636512 25.988829884636512 25.988829884636512 25.988829884636512 26.01080388207288 25.988829884636512 25.988829884636512 25.988829884636512 25.988829884636512 25.988829884636512 25.988829884636512 25.988829884636512 25.988829884636512 25.988829884636512 25.988829884636512 25.988829884636512 25.988829884636512 25.988829884636512 25.988829884636512 25.988829884636512 25.988829884636512 25.988829884636512 25.966855887200147 25.988829884636512 25.988829884636512 25.988829884636512 25.988829884636512 25.966855887200147 25.966855887200147 25.966855887200147 25.966855887200147 25.966855887200147 25.966855887200147 25.966855887200147 25.966855887200147 25.944881889763778 25.944881889763778 25.944881889763778 25.944881889763778 25.944881889763778 25.944881889763778 25.944881889763778 25.944881889763778 25.944881889763778 25.944881889763778 25.944881889763778 25.944881889763778 25.944881889763778 25.922907892327412 25.944881889763778 25.922907892327412 25.922907892327412 25.922907892327412 25.922907892327412 25.922907892327412 25.922907892327412 25.922907892327412 25.922907892327412 25.922907892327412 25.900933894891047 25.922907892327412 25.900933894891047 25.900933894891047 25.900933894891047 25.900933894891047 25.900933894891047 25.900933894891047 25.900933894891047 25.900933894891047 25.900933894891047 25.900933894891047 25.900933894891047 25.900933894891047 25.900933894891047 25.900933894891047 25.900933894891047 25.878959897454678 25.878959897454678 25.878959897454678 25.878959897454678 25.878959897454678 25.900933894891047 25.878959897454678 25.878959897454678 25.878959897454678 25.878959897454678 25.900933894891047 25.878959897454678 25.878959897454678 25.900933894891047 25.900933894891047 25.900933894891047 25.900933894891047 25.900933894891047 25.900933894891047 25.900933894891047 25.922907892327412 25.944881889763778 25.944881889763778 25.966855887200147 25.966855887200147 25.988829884636512 26.054751876945616 26.098699871818347 26.164621864127447 26.252517853872916 26.36238784105475 26.58212781541842 26.757919794909355 27.04358176158213 27.285295733382164 27.636879692364037 27.944515656473172 28.53781358725508 29.109137520600623 29.724409448818896 30.119941402673504 30.735213330891778 31.21864127449185 31.833913202710125 32.3173411463102 32.97656106940121 33.569859000183115 34.009338948910454 34.60263687969236 35.13001281816517 35.70133675151071 35.986998718183486 36.294634682292624 36.690166636147225 37.129646584874564 37.415308551547334 37.85478850027467 38.33821644387475 38.68980040285662 39.458890313129466 39.920344259293174 40.62351217725691 41.41457608496612 42.00787401574803 42.75498992858451 43.655923823475554 44.90844167734847 46.051089544039556 46.952023438930595 48.20454129280351 49.39113715436733 50.336019044131106 51.36879692364036 52.40157480314961 53.170664713422454 54.09357260574986 54.73081853140451 55.60977842885919 56.70847830067753 57.27980223402307 57.80717817249588 58.59824208020509 59.16956601355063 60.180369895623514 60.68577183665995 61.41091375206006 62.64145760849661 63.058963559787585 63.564365500824024 64.13568943416956 64.70701336751512 65.47610327778796 66.04742721113348 66.9044131111518 67.71745101629739 68.31074894707929 69.40944881889763 70.04669474455227 70.72788866507966 71.51895257278886 72.06830250869804 72.85936641640725 73.80424830617103 74.55136421900751 75.36440212415309 75.957700054935 76.4850759934078 77.0124519318806 77.67167185497162 78.30891778062626 78.94616370628091 79.38564365500824 80.00091558322652 80.26460355246292 81.05566746017213 81.62699139351767 82.02252334737227 82.72569126533602 83.03332722944516 83.40688518586339 83.89031312946346 84.24189708844534 84.70335103460906 85.23072697308186 85.538362937191 85.9998168833547 86.46127082951841 86.9227247756821 87.34023072697309 87.64786669108221 87.95550265519137 88.28511261673685 88.76854056033693 89.22999450650065 89.73539644753708 90.10895440395532 90.68027833730086 91.1197582860282 91.75700421168284 92.32832814502838 92.70188610144663 93.29518403222853 93.7786119758286 94.10822193737411 94.54770188610145 94.85533785021059 95.25086980406519 95.62442776048343 95.86614173228347 96.2396996887017 96.3715436733199 96.52536165537448 96.67917963742904 96.70115363486542 96.72312763230178 96.70115363486542 96.70115363486542 96.54733565281084 96.34956967588354 96.01995971433803 95.60245376304707 95.22889580662883 94.76744186046513 94.30598791430141 93.99835195019227 93.53689800402857 93.1853140450467 92.723860098883 92.21845815784656 91.88884819630104 91.40542025270096 90.90001831166454 90.57040835011902 89.88921442959166 89.53763047060978 89.07617652444607 88.61472257828237 88.21919062442777 87.86760666544589 87.34023072697309 87.01062076542757 86.50521882439114 86.1316608679729 85.56033693462736 85.01098699871818 84.63742904229994 83.89031312946346 83.51675517304523 83.12122321919063 82.54989928584509 82.11041933711775 81.58304339864495 80.77000549349935 80.35249954220839 79.89104559604468 79.12195568577184 78.63852774217176 78.2210217908808 77.75956784471708 77.1442959164988 76.5509979857169 76.0895440395532 75.65006409082585 75.07874015748033 74.35359824208021 73.6943783189892 73.21095037538913 72.50778245742538 71.80461453946164 71.21131660867974 70.35433070866142 69.84892876762498 69.3655008240249 68.31074894707929 67.95916498809743 67.19007507782457 66.04742721113348 65.1684673136788 64.02581944698773 63.784105475187694 63.256729536714886 62.72935359824208 62.22395165720564 61.43288774949643 60.729719831532684 60.180369895623514 59.56509796740524 59.21351400842337 58.68613806995056 58.22468412378685 57.76323017762314 57.47756821095037 57.060062259659404 56.64255630836843 56.400842336568395 56.07123237502289 55.52188243911371 55.01648049807727 54.401208569859 54.00567661600439 53.390404687786116 52.906976744186046 52.006042849295 51.76432887749496 51.149056949276684 50.336019044131106 49.91851309284014 49.479033144112805 48.75389122871269 48.38033327229445 47.87493133125801 47.63321735945797 46.995971433803334 46.534517487639626 46.20490752609412 45.65555759018495 45.0842336568394 44.71067570042116 44.24922175425746 43.87566379783922 43.392235854239146 42.88683391320271 42.55722395165721 41.9639260208753 41.52444607214796 41.30470609778429 40.93114814136605 40.42574620032961 40.118110236220474 39.48086431056583 39.173228346456696 38.68980040285662 38.16242446438381 37.78886650796557 37.28346456692913 36.756088628456325 36.338582677165356 35.70133675151071 35.52554477201978 34.99816883354697 34.66855887200147 33.98736495147409 33.657754989928584 33.416041018128546 33.196301043764876 32.95458707196484 32.734847097601175 32.47115912836477 32.185497161692 31.87786119758286 31.636147225782825 31.43838124885552 31.28456326680095 31.020875297564547 30.735213330891778 30.51547335652811 30.339681377037174 30.119941402673504 29.9221754257462 29.76835744369163 29.61453946163706 29.41677348470976 29.328877494964292 29.219007507782457 29.153085515473357 29.065189525727888 28.955319538546053 28.867423548800588 28.801501556491484 28.71360556674602 28.64768357443692 28.581761582127815 28.55978758469145 28.515839589818714 28.49386559238235 28.47189159494598 28.427943600073245 28.38399560520051 28.362021607764145 28.27412561801868 28.208203625709576 28.076359641091376 27.944515656473172 27.856619666727706 27.724775682109502 27.505035707745833 27.461087712873102 27.263321735945798 27.17542574620033 27.02160776414576 26.845815784654825 26.648049807727524 26.472257828236586 26.36238784105475 26.274491851309286 26.23054385643655 26.208569859000182 26.208569859000182 26.208569859000182 26.23054385643655 26.23054385643655 26.208569859000182 26.186595861563816 26.14264786669108 26.120673869254716 26.120673869254716 26.098699871818347 26.098699871818347 26.098699871818347 26.098699871818347 26.098699871818347 26.098699871818347 26.098699871818347 26.098699871818347 26.07672587438198 26.07672587438198 26.07672587438198 26.054751876945616 26.054751876945616 26.054751876945616 26.054751876945616 26.054751876945616 26.054751876945616 26.054751876945616 26.054751876945616 26.054751876945616 26.054751876945616 26.032777879509247 26.032777879509247 26.032777879509247 26.032777879509247 26.032777879509247 26.032777879509247 26.032777879509247 26.054751876945616 26.032777879509247 26.032777879509247 26.032777879509247 26.01080388207288 26.032777879509247 26.032777879509247 26.032777879509247 26.032777879509247 26.032777879509247 26.032777879509247 26.01080388207288 26.032777879509247 26.032777879509247 26.032777879509247 26.032777879509247 26.01080388207288 26.032777879509247 26.032777879509247 26.01080388207288 26.032777879509247 26.01080388207288 26.01080388207288 26.01080388207288 26.01080388207288 26.01080388207288 26.01080388207288 26.01080388207288 26.01080388207288 26.01080388207288 26.01080388207288 25.988829884636512 25.988829884636512 25.988829884636512 25.988829884636512 25.988829884636512 25.988829884636512 25.988829884636512 25.988829884636512 25.988829884636512 25.966855887200147 25.966855887200147 25.988829884636512 25.988829884636512 25.988829884636512 25.966855887200147 25.966855887200147 25.966855887200147 25.966855887200147 25.966855887200147 25.966855887200147 25.966855887200147 25.966855887200147 25.966855887200147 25.966855887200147 25.966855887200147 25.966855887200147 25.944881889763778 25.966855887200147 25.944881889763778 25.966855887200147 25.966855887200147 25.944881889763778 25.944881889763778 25.944881889763778 25.944881889763778 25.922907892327412 25.922907892327412 25.922907892327412 25.922907892327412 25.922907892327412 25.922907892327412 25.922907892327412 25.922907892327412 25.900933894891047 25.900933894891047 25.900933894891047 25.900933894891047 25.900933894891047 25.900933894891047 25.878959897454678 25.878959897454678 25.900933894891047 25.878959897454678 25.878959897454678 25.878959897454678 25.878959897454678 25.878959897454678 25.878959897454678 25.856985900018312 25.856985900018312 25.856985900018312 25.856985900018312 25.856985900018312 25.856985900018312 25.856985900018312 25.856985900018312 25.856985900018312 25.856985900018312 25.856985900018312 25.878959897454678 25.878959897454678 25.878959897454678 25.856985900018312 25.878959897454678 25.878959897454678 25.878959897454678 25.856985900018312 25.856985900018312 25.856985900018312 25.856985900018312 25.878959897454678 25.856985900018312 25.856985900018312 25.856985900018312 25.856985900018312 25.856985900018312 25.856985900018312 25.856985900018312 25.856985900018312 25.856985900018312 25.856985900018312 25.856985900018312 25.856985900018312 25.856985900018312 25.856985900018312 25.856985900018312 25.856985900018312 25.856985900018312 25.856985900018312 25.856985900018312 25.878959897454678 25.878959897454678 25.878959897454678 25.878959897454678 25.878959897454678 25.878959897454678 25.878959897454678 25.878959897454678 25.878959897454678 25.878959897454678 25.878959897454678 25.900933894891047 25.900933894891047 25.900933894891047 25.900933894891047 25.900933894891047 25.922907892327412 25.922907892327412 25.966855887200147 25.966855887200147 25.988829884636512 26.07672587438198 26.164621864127447 26.36238784105475 26.560153817982055 26.779893792345725 27.10950375389123 27.461087712873102 27.87859366416407 28.362021607764145 28.933345541109688 29.328877494964292 29.8562534334371 30.29573338216444 30.889031312946347 31.328511261673686 32.1195751693829 32.75682109503754 33.372093023255815 33.635780992492215 34.141182933528654 34.75645486174693 35.30580479765611 35.70133675151071 36.316608679728986 36.887932613074526 37.327412561801864 38.00860648232924 38.60190441311115 39.06335835927486 39.744552279802235 40.381798205456874 41.21681010803882 41.72221204907526 42.24958798754807 43.040651895257284 43.787767808093754 44.3590917414393 46.00714154916682 46.556491485075995 47.127815418421534 47.74308734663981 48.29243728254899 49.63285112616737 50.204175059512906 50.84142098516755 51.4786669108222 52.18183482878594 53.104742721113354 54.15949459805896 54.97253250320454 55.74162241347739 56.70847830067753 57.41164621864127 58.40047610327779 59.34535799304157 59.982603918696206 61.25709577000549 61.8503937007874 62.59750961362388 63.300677531587624 64.1137154367332 65.01464933162424 66.02545321369712 66.88243911371544 67.93719099066105 68.66233290606115 69.431422816334 70.04669474455227 70.99157663431606 72.0243545138253 72.9692364035891 73.80424830617103 74.52939022157113 75.23255813953489 76.00164804980773 76.28731001648049 77.03442592931697 77.75956784471708 78.2869437831899 79.18787767808094 79.84709760117195 80.28657754989928 80.90184947811755 81.1435634499176 81.67093938839041 82.19831532686322 82.74766526277239 83.18714521149973 83.64859915766343 83.97820911920894 84.46163706280902 84.70335103460906 85.3405969602637 85.88994689617286 86.2635048525911 86.7908807910639 87.34023072697309 87.80168467313679 88.43893059879144 88.7905145577733 89.18604651162791 89.75737044497345 90.17487639626442 90.68027833730086 91.2516022706464 91.80095220655558 92.30635414759202 92.61399011170116 93.14136605017397 93.383080021974 93.58084599890131 93.95440395531953 94.28401391686505 94.56967588353781 94.87731184764695 95.11902581944699 95.42666178355613 95.71232375022889 95.88811572971983 96.1078557040835 96.2396996887017 96.3715436733199 96.437465665629 96.48141366050174 96.48141366050174 96.48141366050174 96.45943966306537 96.48141366050174 96.39351767075628 96.15180369895623 95.80021973997437 95.62442776048343 95.40468778611975 95.07507782457425 94.96520783739241 94.70151986815601 94.54770188610145 94.28401391686505 94.04229994506501 93.84453396813771 93.58084599890131 93.33913202710126 93.14136605017397 92.7897820911921 92.57004211682842 92.15253616553744 91.93279619117378 91.7130562168101 91.3834462552646 90.98791430141 90.7242263321736 90.19685039370079 89.84526643471892 89.51565647317341 89.20802050906427 88.61472257828237 88.21919062442777 87.73576268082769 87.20838674235489 86.61508881157297 86.17560886284564 85.58231093206373 84.98901300128182 84.61545504486358 83.89031312946346 83.56070316791798 83.2091192089361 82.68174327046329 82.33015931148142 81.67093938839041 81.20948544222671 80.90184947811755 80.66013550631753 80.26460355246292 80.02288958066288 79.56143563449919 79.2757736678264 78.94616370628091 78.7483977293536 78.52865775498992 78.24299578831716 77.93535982420804 77.73759384728072 77.29811389855337 77.03442592931697 76.59494598058964 76.04559604468047 75.67203808826221 75.25453213697125 74.88097418055301 74.30965024720747 73.8262223036074 73.47463834462553 73.07910639077092 72.33199047793445 71.82658853689802 71.2332906061161 70.8377586522615 70.33235671122506 69.67313678813403 69.18970884453397 67.98113898553379 67.54165903680644 67.03625709577 66.39901117011536 65.82768723676982 65.21241530855156 64.55319538546054 64.09174143929684 63.410547518769455 62.55356161875115 61.96026368796924 61.54275773667826 61.08130379051456 60.509979857169014 59.82878593664164 59.10364402124153 58.64219007507782 58.04889214429592 57.389672221204904 56.77440029298663 56.378868339132026 55.983336385277426 55.17029848013185 54.70884453396813 54.22541659036806 53.67606665445889 53.302508698040654 52.797106757004215 52.46749679545871 51.98406885185864 51.4786669108222 51.083134956967584 50.55575901849478 50.116279069767444 49.76469511078557 49.2812671671855 48.84178721845816 48.44625526460355 47.98480131843985 47.65519135689434 47.083867423548796 46.820179454312395 46.556491485075995 46.00714154916682 45.72147958249405 45.45779161325764 44.93041567478484 44.60080571323933 44.22724775682109 43.897637795275585 43.436183849111885 43.01867789782091 42.68906793627541 42.2276139901117 41.81010803882073 41.50247207471159 41.10694012085699 40.84325215162058 40.447720197765975 40.249954220838674 40.118110236220474 39.898370261856805 39.810474272111335 39.722578282365866 39.6346822926204 39.524812305438566 39.305072331074896 39.19520234389306 39.06335835927486 38.88756637978392 38.57993041567478 38.36019044131112 38.09650247207471 37.85478850027467 37.48123054385644 37.1076725874382 36.51437465665629 36.20673869254715 35.87712873100165 35.45962277971068 34.99816883354697 34.69053286943783 34.16315693096502 33.67972898736495 33.306171030946714 33.020509064273945 32.60300311298297 32.33931514374657 31.89983519501923 31.68009522065556 31.394433253982786 31.262589269364586 31.130745284746382 30.976927302691813 30.86705731550998 30.735213330891778 30.471525361655374 30.383629371909905 30.273759384728073 30.119941402673504 30.032045412928035 29.812305438564366 29.70243545138253 29.570591466764327 29.394799487273392 29.240981505218826 28.999267533418788 28.62570957700055 28.427943600073245 28.16425563083684 28.076359641091376 27.834645669291337 27.592931697491302 27.395165720564 27.10950375389123 26.88976377952756 26.713971800036624 26.51620582310932 26.42830983336385 26.208569859000182 26.098699871818347 26.054751876945616 26.054751876945616 26.054751876945616 26.07672587438198 26.054751876945616 26.01080388207288 25.988829884636512 25.966855887200147 25.944881889763778 25.900933894891047 25.878959897454678 25.878959897454678 25.878959897454678 25.856985900018312 25.856985900018312 25.856985900018312 25.856985900018312 25.835011902581943 25.835011902581943 25.813037905145578 25.813037905145578 25.791063907709212 25.791063907709212 25.791063907709212 25.791063907709212 25.791063907709212 25.791063907709212 25.791063907709212 25.791063907709212 25.791063907709212 25.791063907709212 25.791063907709212 25.769089910272843 25.791063907709212 25.791063907709212 25.791063907709212 25.791063907709212 25.791063907709212 25.791063907709212 25.791063907709212 25.791063907709212 25.791063907709212 25.791063907709212 25.791063907709212 25.791063907709212 25.791063907709212 25.791063907709212 25.791063907709212 25.791063907709212 25.791063907709212 25.791063907709212 25.791063907709212 25.791063907709212 25.791063907709212 25.791063907709212 25.769089910272843 25.791063907709212 25.769089910272843 25.769089910272843 25.769089910272843 25.769089910272843 25.769089910272843 25.769089910272843 25.769089910272843 25.769089910272843 25.769089910272843 25.769089910272843 25.769089910272843 25.769089910272843 25.747115912836477 25.747115912836477 25.747115912836477 25.747115912836477 25.769089910272843 25.769089910272843 25.747115912836477 25.747115912836477 25.769089910272843 25.747115912836477 25.747115912836477 25.747115912836477 25.769089910272843 25.769089910272843 25.769089910272843 25.747115912836477 25.747115912836477 25.769089910272843 25.769089910272843 25.769089910272843 25.747115912836477 25.747115912836477 25.747115912836477 25.747115912836477 25.747115912836477 25.747115912836477 25.747115912836477 25.747115912836477 25.747115912836477 25.747115912836477 25.747115912836477 25.747115912836477 25.747115912836477 25.747115912836477 25.747115912836477 25.747115912836477 25.747115912836477 25.747115912836477 25.747115912836477 25.747115912836477 25.747115912836477 25.747115912836477 25.747115912836477 25.747115912836477 25.747115912836477 25.747115912836477 25.747115912836477 25.747115912836477 25.747115912836477 25.747115912836477 25.769089910272843 25.769089910272843 25.747115912836477 25.769089910272843 25.769089910272843 25.769089910272843 25.769089910272843 25.769089910272843 25.769089910272843 25.747115912836477 25.769089910272843 25.747115912836477 25.747115912836477 25.747115912836477 25.747115912836477 25.747115912836477 25.747115912836477 25.747115912836477 25.747115912836477 25.747115912836477 25.747115912836477 25.747115912836477 25.747115912836477 25.72514191540011 25.747115912836477 25.747115912836477 25.747115912836477 25.72514191540011 25.747115912836477 25.72514191540011 25.747115912836477 25.747115912836477 25.747115912836477 25.747115912836477 25.747115912836477 25.747115912836477 25.747115912836477 25.769089910272843 25.769089910272843 25.791063907709212 25.769089910272843 25.791063907709212 25.791063907709212 25.791063907709212 25.791063907709212 25.791063907709212 25.791063907709212 25.813037905145578 25.813037905145578 25.835011902581943 25.835011902581943 25.835011902581943 25.878959897454678 25.922907892327412 25.966855887200147 26.032777879509247 26.098699871818347 26.186595861563816 26.318439846182017 26.42830983336385 26.67002380516389 26.97765976927303 27.219373741073063 27.527009705182202 27.96648965390954 28.27412561801868 28.801501556491484 29.219007507782457 29.790331441127996 30.22981138985534 30.889031312946347 32.09760117194653 32.646951107855706 33.196301043764876 33.67972898736495 34.25105292071049 34.9102728438015 35.45962277971068 36.44845266434719 37.15162058231093 37.635048525911 38.11847646951108 38.71177440029299 39.34902032594763 39.986266251602274 40.62351217725691 41.04101812854789 41.70023805163889 42.1616919978026 42.864859915766345 43.590001831166454 44.139351767075624 44.86449368247574 45.41384361838491 46.22688152353049 47.127815418421534 47.74308734663981 48.99560520051273 49.76469511078557 50.42391503387658 51.58853689800403 52.2697308185314 52.906976744186046 54.00567661600439 54.5989745467863 55.43398644936825 56.15912836476836 56.77440029298663 57.56546420069584 58.11481413660502 58.90587804431423 59.652993957150706 60.202343893059876 61.25709577000549 61.7185497161692 62.39974363669658 63.16883354696942 63.74015748031496 64.59714338033328 65.82768723676982 66.06940120856986 67.01428309833364 67.78337300860647 68.66233290606115 69.93682475737045 70.66196667277055 71.47500457791614 72.39791247024354 73.98004028566197 74.68320820362571 75.27650613440761 75.8258560703168 76.39718000366233 76.8806079472624 77.42995788317158 78.1550997985717 78.83629371909907 79.47353964475371 79.80314960629921 80.26460355246292 80.85790148324483 81.18751144479035 81.89067936275407 82.39608130379051 82.72569126533602 83.23109320637246 83.58267716535434 83.9342611243362 84.50558505768174 84.92309100897272 85.27467496795458 85.69218091924556 85.97784288591834 86.48324482695477 86.85680278337301 87.38417872184581 87.88958066288225 88.26313861930049 88.83446255264604 89.44973448086431 89.84526643471892 90.9219923091009 91.16370628090094 91.64713422450102 92.35030214246476 92.83373008606483 93.86650796557407 94.37190990661051 94.76744186046513 95.14099981688335 95.42666178355613 95.82219373741073 96.1737776963926 96.41549166819264 96.65720563999268 96.72312763230178 96.87694561435634 97.00878959897454 97.0307635964109 97.0307635964109 97.0307635964109 97.0307635964109 97.0307635964109 97.00878959897454 96.87694561435634 96.65720563999268 96.34956967588354 96.12982970151987 95.778245742538 95.53653177073797 95.20692180919247 94.85533785021059 94.30598791430141 93.82255997070133 93.53689800402857 93.1853140450467 92.76780809375572 92.32832814502838 91.82292620399194 91.47134224501008 90.96594030397362 90.50448635780992 90.15290239882806 89.66947445522798 89.18604651162791 88.8564365500824 88.37300860648233 88.08734663980957 87.64786669108221 87.20838674235489 86.72495879875481 86.3953488372093 85.91192089360922 85.56033693462736 84.87914301409998 84.5275590551181 83.97820911920894 83.42885918329976 83.0772752243179 82.57187328328145 82.08844533968139 81.71488738326315 81.23145943966307 80.87987548068119 80.37447353964475 79.86907159860831 79.49551364219008 78.96813770371728 78.59457974729904 78.04522981138985 77.47390587804432 77.0124519318806 76.24336202160777 75.62809009338949 75.21058414209853 74.81505218824393 74.37557223951657 73.71635231642557 72.8373924189709 72.33199047793445 71.60684856253434 70.88170664713422 70.37630470609778 69.73905878044314 69.431422816334 68.26680095220655 67.87126899835195 67.40981505218824 66.72862113166087 66.04742721113348 65.34425929316976 64.641091375206 64.13568943416956 63.630287493133125 63.036989562351216 62.55356161875115 61.56473173411463 60.795641823841784 60.290239882805345 59.499175975096136 59.191540010987 58.46639809558689 57.69730818531404 56.950192272477565 56.26899835195019 55.56583043398645 55.06042849295001 54.42318256729537 53.895806628822555 53.302508698040654 52.62131477751328 51.8082768723677 51.17103094671306 50.68760300311298 50.160227064640175 49.237319172312766 48.66599523896723 48.09467130562168 47.391503387657934 46.93004944149423 46.20490752609412 45.52371360556674 44.84251968503937 44.24922175425746 43.897637795275585 43.568027833730085 42.68906793627541 42.53524995422084 42.2276139901117 41.91997802600257 41.59036806445706 41.23878410547519 41.019044131111514 40.68943416956601 40.381798205456874 40.184032228529574 39.920344259293174 39.7006042849295 39.458890313129466 39.19520234389306 38.99743636696576 38.71177440029299 38.44808643105658 38.22834645669291 37.81084050540194 37.61307452847464 37.34938655923823 36.931880607947264 36.668192638710856 36.426478666910825 36.118842702801686 35.89910272843802 35.59146676432888 35.34975279252884 35.10803882072881 34.8443508514924 34.66855887200147 34.31697491301959 34.141182933528654 33.943416956601354 33.701702984801315 33.525911005310384 33.174327046328514 33.020509064273945 32.800769089910276 32.60300311298297 32.36128914118294 32.14154916681926 31.65812122321919 31.37245925654642 30.976927302691813 30.537447353964474 30.22981138985534 29.900201428309835 29.48269547701886 28.999267533418788 28.581761582127815 28.27412561801868 27.96648965390954 27.483061710309467 27.373191723127633 27.219373741073063 26.999633766709394 26.845815784654825 26.648049807727524 26.494231825672955 26.23054385643655 26.07672587438198 26.07672587438198 26.07672587438198 26.098699871818347 26.098699871818347 26.098699871818347 26.098699871818347 26.07672587438198 26.07672587438198 26.07672587438198 26.07672587438198 26.054751876945616 26.054751876945616 26.032777879509247 26.032777879509247 26.054751876945616 26.032777879509247 26.032777879509247 26.032777879509247 26.032777879509247 26.054751876945616 26.032777879509247 26.054751876945616 26.032777879509247 26.032777879509247 26.032777879509247 26.032777879509247 26.032777879509247 26.032777879509247 26.032777879509247 26.032777879509247 26.032777879509247 26.032777879509247 26.032777879509247 26.032777879509247 26.032777879509247 26.032777879509247 26.032777879509247 26.032777879509247 26.032777879509247 26.032777879509247 26.032777879509247 26.032777879509247 26.01080388207288 26.01080388207288 26.01080388207288 26.01080388207288 26.01080388207288 26.01080388207288 26.01080388207288 26.01080388207288 26.01080388207288 26.01080388207288 26.01080388207288 26.01080388207288 26.01080388207288 26.01080388207288 26.01080388207288 26.01080388207288 26.032777879509247 26.032777879509247 26.01080388207288 26.01080388207288 26.01080388207288 26.032777879509247 26.032777879509247 26.01080388207288 26.01080388207288 26.01080388207288 26.01080388207288 26.01080388207288 26.01080388207288 26.01080388207288 26.01080388207288 26.01080388207288 26.01080388207288 26.01080388207288 26.01080388207288 26.01080388207288 26.01080388207288 26.01080388207288 26.01080388207288 26.01080388207288 26.01080388207288 26.01080388207288 26.01080388207288 26.01080388207288 26.01080388207288 26.01080388207288 26.01080388207288 26.01080388207288 26.032777879509247 26.01080388207288 26.01080388207288 26.01080388207288 26.01080388207288 26.032777879509247 26.01080388207288 26.032777879509247 26.01080388207288 26.01080388207288 26.032777879509247 26.01080388207288 26.032777879509247 26.01080388207288 26.01080388207288 26.032777879509247 26.032777879509247 26.01080388207288 26.01080388207288 26.01080388207288 26.032777879509247 26.01080388207288 26.01080388207288 26.01080388207288 26.01080388207288 26.01080388207288 26.01080388207288 26.01080388207288 26.01080388207288 26.01080388207288 26.01080388207288 26.01080388207288 26.01080388207288 26.01080388207288 26.01080388207288 26.01080388207288 26.01080388207288 26.01080388207288 26.01080388207288 26.01080388207288 26.01080388207288 26.01080388207288 26.01080388207288 26.01080388207288 26.01080388207288 26.01080388207288 26.01080388207288 26.01080388207288 26.01080388207288 26.01080388207288 26.01080388207288 26.01080388207288 26.01080388207288 25.988829884636512 26.01080388207288 26.01080388207288 26.01080388207288 25.988829884636512 25.988829884636512 25.988829884636512 25.988829884636512 26.01080388207288 25.988829884636512 25.988829884636512 25.988829884636512 25.988829884636512 25.988829884636512 25.988829884636512 25.988829884636512 25.988829884636512 25.988829884636512 25.988829884636512 25.988829884636512 25.988829884636512 25.988829884636512 25.988829884636512 25.988829884636512 25.988829884636512 25.988829884636512 25.988829884636512 25.988829884636512 25.988829884636512 25.988829884636512 25.988829884636512 25.988829884636512 25.988829884636512 25.988829884636512 25.988829884636512 26.01080388207288 26.01080388207288 25.988829884636512 26.01080388207288 26.01080388207288 26.01080388207288 26.01080388207288 26.032777879509247 26.032777879509247 26.032777879509247 26.054751876945616 26.098699871818347 26.14264786669108 26.186595861563816 26.274491851309286 26.406335835927486 26.60410181285479 26.88976377952756 27.17542574620033 27.461087712873102 27.87859366416407 28.18622962827321 28.69163156930965 29.109137520600623 29.812305438564366 30.36165537447354 30.779161325764512 31.24061527192822 31.833913202710125 32.47115912836477 33.108405054019414 33.569859000183115 34.27302691814686 34.93224684123787 35.43764878227431 36.184764695110786 36.756088628456325 37.28346456692913 37.94268449002014 38.36019044131112 39.06335835927486 39.744552279802235 40.315876213147774 40.99707013367515 41.72221204907526 42.31550997985717 43.106573887566384 43.74381981322102 44.66672770554844 45.87529756454862 46.556491485075995 47.325581395348834 48.33638527742171 49.08350119025819 50.226149056949275 51.19300494414942 52.53341878776781 53.52224867240432 54.64292254165903 55.32411646218641 56.33492034425929 57.235854239150335 58.00494414942318 58.68613806995056 59.652993957150706 60.61984984435085 61.43288774949643 62.35579564182384 62.993041567478485 64.06976744186046 65.01464933162424 65.69584325215162 66.7725691265336 67.80534700604285 68.57443691631569 69.93682475737045 70.33235671122506 71.34316059329794 72.68357443691632 73.38674235488006 73.98004028566197 75.14466214978941 75.73796008057133 76.59494598058964 76.9465299395715 77.9573338216444 78.6824757370445 79.18787767808094 79.91301959348105 80.61618751144479 81.16553744735396 81.75883537813587 82.19831532686322 82.83556125251786 83.42885918329976 83.84636513459074 84.61545504486358 85.18677897820913 85.49441494231826 86.15363486540927 86.37337483977294 86.85680278337301 87.58194469877311 87.95550265519137 88.48287859366417 88.94433253982787 89.27394250137338 89.82329243728255 90.19685039370079 90.74620032960996 91.33949826039188 91.73503021424648 92.32832814502838 92.9216260758103 93.55887200146493 93.97637795275591 94.32796191173779 94.85533785021059 95.36073979124703 95.71232375022889 96.39351767075628 96.87694561435634 97.18458157846548 97.60208752975646 97.86577549899286 98.08551547335652 98.45907342977478 98.59091741439298 98.7007874015748 98.72276139901118 98.76670939388391 98.76670939388391 98.76670939388391 98.76670939388391 98.76670939388391 98.76670939388391 98.76670939388391 98.76670939388391 98.72276139901118 98.59091741439298 98.4370994323384 98.28328145028384 98.08551547335652 97.90972349386558 97.60208752975646 97.25050357077458 96.87694561435634 96.52536165537448 96.2396996887017 95.95403772202894 95.40468778611975 95.11902581944699 94.72349386559239 94.43783189891961 93.97637795275591 93.53689800402857 93.22926203991943 92.76780809375572 92.21845815784656 92.06464017579198 91.64713422450102 91.33949826039188 90.87804431422816 90.15290239882806 89.93316242446438 89.64750045779161 89.33986449368247 89.0542025270097 88.48287859366417 88.26313861930049 87.82365867057317 87.40615271928218 87.09851675517305 86.59311481413661 86.15363486540927 85.78007690899102 85.25270097051822 84.81322102179088 84.37374107306354 83.82439113715438 83.40688518586339 82.8135872550815 82.17634132942685 81.75883537813587 81.09961545504487 80.63816150888115 79.91301959348105 79.18787767808094 78.70444973448086 77.69364585240798 77.25416590368064 76.44112799853508 75.71598608313496 75.16663614722579 74.55136421900751 73.84819630104377 73.29884636513458 72.52975645486175 72.09027650613442 71.32118659586156 70.55209668558872 69.84892876762498 69.12378685222487 68.28877494964291 67.69547701886101 66.9044131111518 66.22321919062443 65.49807727522432 64.66306537264236 64.09174143929684 63.036989562351216 62.24592565464201 61.586705731551 61.08130379051456 60.46603186229628 59.784837941768906 58.68613806995056 58.07086614173228 57.30177623145944 56.532686321186596 55.917414392968325 54.77476652627723 54.37923457242263 53.91778062625893 53.412378685222485 53.170664713422454 52.775132759567846 52.357626808276876 51.91814685954954 51.5445889031313 51.36879692364036 51.03918696209485 50.68760300311298 50.445889031312944 50.138253067203806 49.742721113349205 49.50100714154917 49.25929316974913 49.03955319538546 48.86376121589453 48.55612525178539 48.22651529023988 47.89690532869437 47.50137337483977 47.193737410730634 46.754257462003295 46.402673503021425 45.853323567112255 45.34792162607581 44.93041567478484 44.3590917414393 43.96355978758469 43.348287859366415 42.35945797472991 41.87603003112983 41.48049807727523 41.10694012085699 40.68943416956601 40.249954220838674 39.7006042849295 39.15125434902033 38.64585240798389 38.27229445156565 37.96465848745651 37.3054385643655 36.953854605383626 36.492400659219925 36.16279069767442 35.70133675151071 35.19593481047427 34.8443508514924 34.33894891045596 33.877494964292254 33.525911005310384 33.086431056583045 32.778795092473906 32.33931514374657 31.987731184764694 31.482329243728255 31.262589269364586 31.042849295000916 30.845083318073613 30.44955136421901 30.29573338216444 30.14191540010987 29.900201428309835 29.746383446255265 29.592565464200696 29.328877494964292 29.087163523164257 28.933345541109688 28.77952755905512 28.515839589818714 28.230177623145945 28.03241164621864 27.81267167185497 27.395165720564 27.131477751327594 26.779893792345725 26.51620582310932 26.120673869254716 26.032777879509247 25.988829884636512 25.900933894891047 25.900933894891047 25.900933894891047 25.900933894891047 25.900933894891047 25.900933894891047 25.900933894891047 25.922907892327412 25.922907892327412 25.900933894891047 25.900933894891047 25.900933894891047 25.900933894891047 25.900933894891047 25.900933894891047 25.900933894891047 25.900933894891047 25.900933894891047 25.900933894891047 25.900933894891047 25.900933894891047 25.900933894891047 25.900933894891047 25.900933894891047 25.900933894891047 25.900933894891047 25.900933894891047 25.900933894891047 25.900933894891047 25.900933894891047 25.900933894891047 25.900933894891047 25.900933894891047 25.900933894891047 25.900933894891047 25.900933894891047 25.900933894891047 25.900933894891047 25.900933894891047 25.900933894891047 25.900933894891047 25.900933894891047 25.900933894891047 25.900933894891047 25.900933894891047 25.900933894891047 25.900933894891047 25.900933894891047 25.900933894891047 25.900933894891047 25.900933894891047 25.900933894891047 25.900933894891047 25.900933894891047 25.900933894891047 25.900933894891047 25.900933894891047 25.900933894891047 25.900933894891047 25.900933894891047 25.900933894891047 25.900933894891047 25.900933894891047 25.900933894891047 25.900933894891047 25.900933894891047 25.900933894891047 25.900933894891047 25.900933894891047 25.900933894891047 25.900933894891047 25.900933894891047 25.900933894891047 25.900933894891047 25.900933894891047 25.900933894891047 25.900933894891047 25.900933894891047 25.900933894891047 25.900933894891047 25.900933894891047 25.900933894891047 25.922907892327412 25.922907892327412 25.900933894891047 25.900933894891047 25.922907892327412 25.922907892327412 25.900933894891047 25.922907892327412 25.922907892327412 25.922907892327412 25.922907892327412 25.922907892327412 25.922907892327412 25.922907892327412 25.922907892327412 25.922907892327412 25.922907892327412 25.922907892327412 25.922907892327412 25.922907892327412 25.900933894891047 25.922907892327412 25.922907892327412 25.922907892327412 25.922907892327412 25.922907892327412 25.922907892327412 25.900933894891047 25.900933894891047 25.900933894891047 25.900933894891047 25.900933894891047 25.900933894891047 25.900933894891047 25.900933894891047 25.900933894891047 25.922907892327412 25.900933894891047 25.900933894891047 25.900933894891047 25.900933894891047 25.900933894891047 25.900933894891047 25.900933894891047 25.900933894891047 25.900933894891047 25.900933894891047 25.900933894891047 25.900933894891047 25.900933894891047 25.900933894891047 25.900933894891047 25.900933894891047 25.900933894891047 25.900933894891047 25.900933894891047 25.878959897454678 25.900933894891047 25.900933894891047 25.900933894891047 25.878959897454678 25.900933894891047 25.900933894891047 25.878959897454678 25.900933894891047 25.900933894891047 25.900933894891047 25.900933894891047 25.878959897454678 25.900933894891047 25.878959897454678 25.900933894891047 25.900933894891047 25.900933894891047 25.900933894891047 25.900933894891047 25.878959897454678 25.878959897454678 25.878959897454678 25.900933894891047 25.900933894891047 25.900933894891047 25.900933894891047 25.900933894891047 25.878959897454678 25.900933894891047 25.878959897454678 25.878959897454678 25.878959897454678 25.878959897454678 25.900933894891047 25.878959897454678 25.878959897454678 25.878959897454678 25.900933894891047 25.878959897454678 25.878959897454678 25.878959897454678 25.878959897454678 25.878959897454678 25.878959897454678 25.878959897454678 25.878959897454678 25.878959897454678 25.878959897454678 25.878959897454678 25.878959897454678 25.878959897454678 25.878959897454678 25.878959897454678 25.878959897454678 25.878959897454678 25.878959897454678 25.878959897454678 25.878959897454678 25.878959897454678 25.878959897454678 25.878959897454678 25.878959897454678 25.878959897454678 25.878959897454678 25.878959897454678 25.878959897454678 25.878959897454678 25.878959897454678 25.878959897454678 25.900933894891047 25.900933894891047 25.900933894891047 25.878959897454678 25.900933894891047 25.878959897454678 25.900933894891047 25.878959897454678 25.900933894891047 25.900933894891047 25.900933894891047 25.900933894891047 25.900933894891047 25.900933894891047 25.900933894891047 25.922907892327412 25.922907892327412 25.922907892327412 25.944881889763778 25.966855887200147 26.01080388207288 26.14264786669108 26.252517853872916 26.58212781541842 26.845815784654825 27.285295733382164 27.81267167185497 28.25215162058231 28.735579564182384 29.372825489837027 30.14191540010987 30.954953305255447 31.52627723860099 32.62497711041934 33.196301043764876 33.67972898736495 34.62461087712873 35.0421168284197 35.48159677714705 36.00897271561985 36.404504669474456 36.909906610510895 37.5691265336019 37.94268449002014 38.38216443874748 38.64585240798389 39.06335835927486 39.546786302874935 40.096136238784105 40.62351217725691 41.19483611060245 41.61234206189343 42.2276139901117 42.71104193371177 43.370261856802784 44.11737776963926 44.6887017029848 45.52371360556674 46.380699505585056 47.3475553927852 48.29243728254899 48.75389122871269 49.610877128731005 50.62168101080388 51.30287493133126 52.291704815967776 53.258560703167916 54.335286577549894 55.28016846731368 55.87346639809559 57.21388024171397 57.91704815967771 58.57626808276872 59.3893059879143 61.01538179820545 61.32301776231459 61.9822376854056 62.61948361106025 63.564365500824024 64.92675334187878 65.38820728804248 66.26716718549716 67.1681010803882 67.89324299578831 68.86009888298847 69.58524079838858 70.55209668558872 71.51895257278886 72.20014649331624 73.47463834462553 74.13385826771653 74.70518220106207 75.86980406518953 76.44112799853508 76.96850393700788 78.33089177806264 78.66050173960812 79.58340963193555 80.06683757553562 80.57223951657207 81.31935542940855 81.93462735762681 82.39608130379051 83.01135323200879 83.51675517304523 83.97820911920894 84.3297930781908 85.01098699871818 85.4065189525728 85.8020509064274 86.28547885002747 86.81285478850029 87.18641274491851 87.88958066288225 88.21919062442777 88.7245925654642 89.18604651162791 89.53763047060978 89.91118842702802 90.61435634499176 90.98791430141 91.55923823475554 91.95477018861015 92.54806811939206 93.09741805530123 93.82255997070133 94.19611792711957 94.54770188610145 94.89928584508333 95.29481779893793 95.62442776048343 96.26167368613807 96.72312763230178 97.0307635964109 97.31642556308368 97.68998351950192 97.93169749130196 98.26130745284746 98.5689434169566 98.85460538362938 99.07434535799304 99.20618934261125 99.38198132210218 99.57974729902948 99.77751327595679 99.95330525544773 100.12909723493865 100.19501922724776 100.26094121955686 100.3048892144296 100.32686321186596 100.32686321186596 100.32686321186596 100.32686321186596 100.28291521699322 100.12909723493865 99.84343526826588 99.66764328877495 99.36000732466582 99.0963193554294 98.89855337850211 98.72276139901118 98.54696941952024 98.2393334554111 98.06354147592016 97.93169749130196 97.7119575169383 97.5801135323201 97.36037355795642 97.09668558872002 96.92089360922908 96.67917963742904 96.437465665629 96.28364768357443 96.0419337117744 95.86614173228347 95.60245376304707 95.36073979124703 95.16297381431973 94.89928584508333 94.59164988097419 94.37190990661051 93.82255997070133 93.383080021974 93.0534700604285 92.48214612708296 92.15253616553744 91.69108221937374 91.1856802783373 90.90001831166454 90.43856436550082 90.24079838857352 89.62552646035525 89.20802050906427 88.90038454495513 88.4609045962278 88.06537264237319 87.80168467313679 87.29628273210035 87.03259476286395 86.7908807910639 86.43929683208204 86.19758286028201 85.71415491668193 85.29664896539094 85.12085698590002 84.59348104742722 84.1979490935726 83.89031312946346 83.3409631935543 83.03332722944516 82.50595129097235 81.97857535249955 81.60501739608131 80.98974546786303 80.57223951657207 79.95696758835379 79.29774766526278 78.83629371909907 78.19904779344444 77.58377586522616 76.9465299395715 76.33125801135323 75.84783006775316 75.43032411646219 74.85900018311665 74.22175425746201 73.60648232924373 73.18897637795277 72.57370444973449 72.00238051638894 71.4969785753525 71.12342061893426 70.55209668558872 70.20051272660686 69.67313678813403 69.2336568394067 68.7062809009339 68.09100897271563 67.19007507782457 67.01428309833364 66.3111151803699 65.80571323933346 65.10254532136972 64.4433253982787 63.850027467496794 62.905145577733016 62.39974363669658 61.47683574436916 60.92748580845999 60.46603186229628 60.026551913568944 59.54312396996887 58.97180003662333 58.44442409815052 58.02691814685955 57.65336019044131 57.257828236586704 56.972166269913934 56.466764328877495 56.312946346822926 56.02728438015016 55.69767441860465 55.49990844167735 55.17029848013185 54.88463651345907 54.70884453396813 54.37923457242263 54.04962461087713 53.720014649331624 53.302508698040654 52.863028749313315 52.53341878776781 52.0719648416041 51.50064090825856 50.97326496978575 50.643655008240245 49.940487090276505 49.32521516205823 48.84178721845816 48.20454129280351 47.65519135689434 47.259659403039734 46.71030946713056 46.358725508148694 45.89727156198498 45.41384361838491 44.99633766709394 44.60080571323933 44.16132576451199 43.85368980040286 43.436183849111885 43.08459989013001 42.55722395165721 42.293535982420806 42.05182201062077 41.52444607214796 41.34865409265702 40.99707013367515 40.469694195202344 40.184032228529574 39.788500274674966 39.32704632851126 38.95348837209302 38.53598242080205 38.18439846182018 37.72294451565647 37.15162058231093 36.778062625892694 36.052920710492586 35.63541475920161 35.13001281816517 34.8443508514924 34.51474088994689 34.075260941219554 33.67972898736495 33.372093023255815 32.95458707196484 32.66892510529207 32.47115912836477 32.20747115912837 32.14154916681926 31.94378318989196 31.68009522065556 31.52627723860099 31.262589269364586 30.998901300128182 30.757187328328143 30.471525361655374 30.20783739241897 29.724409448818896 29.460721479582496 29.19703351034609 28.801501556491484 28.40596960263688 28.010437648782275 27.636879692364037 27.395165720564 27.197399743636698 26.911737776963925 26.691997802600255 26.51620582310932 26.274491851309286 26.164621864127447 26.07672587438198 26.01080388207288 25.988829884636512 25.966855887200147 25.944881889763778 25.922907892327412 25.922907892327412 25.900933894891047 25.900933894891047 25.878959897454678 25.856985900018312 25.835011902581943 25.835011902581943 25.813037905145578 25.791063907709212 25.769089910272843 25.747115912836477 25.747115912836477 25.747115912836477 25.72514191540011 25.72514191540011 25.703167917963743 25.703167917963743 25.65921992309101 25.65921992309101 25.65921992309101 25.65921992309101 25.65921992309101 25.637245925654643 25.637245925654643 25.637245925654643 25.637245925654643 25.637245925654643 25.637245925654643 25.637245925654643 25.637245925654643 25.615271928218274 25.615271928218274 25.615271928218274 25.615271928218274 25.615271928218274 25.615271928218274 25.615271928218274 25.615271928218274 25.615271928218274 25.615271928218274 25.615271928218274 25.615271928218274 25.615271928218274 25.615271928218274 25.615271928218274 25.615271928218274 25.615271928218274 25.615271928218274 25.615271928218274 25.615271928218274 25.615271928218274 25.615271928218274 25.615271928218274 25.615271928218274 25.615271928218274 25.615271928218274 25.615271928218274 25.615271928218274 25.615271928218274 25.615271928218274 25.615271928218274 25.615271928218274 25.615271928218274 25.615271928218274 25.615271928218274 25.615271928218274 25.615271928218274 25.615271928218274 25.615271928218274 25.615271928218274 25.615271928218274 25.615271928218274 25.615271928218274 25.615271928218274 25.615271928218274 25.615271928218274 25.615271928218274 25.615271928218274 25.615271928218274 25.615271928218274 25.615271928218274 25.615271928218274 25.593297930781908 25.593297930781908 25.615271928218274 25.615271928218274 25.615271928218274 25.593297930781908 25.593297930781908 25.615271928218274 25.615271928218274 25.615271928218274 25.615271928218274 25.593297930781908 25.593297930781908 25.615271928218274 25.593297930781908 25.593297930781908 25.593297930781908 25.593297930781908 25.593297930781908 25.593297930781908 25.593297930781908 25.593297930781908 25.593297930781908 25.593297930781908 25.593297930781908 25.593297930781908 25.593297930781908 25.593297930781908 25.571323933345543 25.593297930781908 25.593297930781908 25.593297930781908 25.593297930781908 25.571323933345543 25.593297930781908 25.593297930781908 25.593297930781908 25.571323933345543 25.593297930781908 25.571323933345543 25.571323933345543 25.593297930781908 25.593297930781908 25.571323933345543 25.593297930781908 25.593297930781908 25.593297930781908 25.571323933345543 25.593297930781908 25.571323933345543 25.571323933345543 25.571323933345543 25.593297930781908 25.593297930781908 25.593297930781908 25.593297930781908 25.571323933345543 25.571323933345543 25.593297930781908 25.593297930781908 25.571323933345543 25.571323933345543 