25.0 25.0 25.0 25.0 25.0 25.0 25.0 25.0 25.0 25.0 25.0 25.0 25.0 25.0 25.0 25.0 25.0 25.0 25.0 25.0 25.0 25.0 25.0 25.0 25.0 25.0 25.0 25.0 25.0 25.0 25.0 25.0 25.0 25.0 25.0 25.0 25.0 25.0 25.0 25.0 25.0 25.0 25.0 25.0 25.0 25.0 25.0 25.0 25.0 25.0 25.0 25.0 25.0 25.0 25.0 25.0 25.0 25.0 25.0 25.0 25.0 25.0 25.0 25.0 25.0 25.0 25.0 25.0 25.0 25.0 25.0 25.0 25.0 25.0 25.0 25.0 25.0 25.0 25.0 25.0 25.0 25.0 25.0 25.0 25.0 25.0 25.0 25.0 25.0 25.0 25.0 25.0 25.0 25.0 25.0 25.0 25.0 25.0 25.0 25.0 25.0 25.0 25.0 25.0 25.0 25.0 25.0 25.0 25.0 25.0 25.0 25.0 25.0 25.0 25.0 25.0 25.0 25.0 25.0 25.0 25.0 25.0 25.0 25.0 25.0 25.0 25.0 25.0 25.0 25.0 25.0 25.0 25.0 25.0 25.0 25.0 25.0 25.0 25.0 25.0 25.0 25.0 25.0 25.0 25.0 25.0 25.0 25.0 25.0 25.0 25.0 25.0 25.0 25.0 25.0 25.0 25.0 25.0 25.0 25.0 25.0 25.0 25.0 25.0 25.0 25.0 25.0 25.0 25.0 25.0 25.0 25.0 25.0 25.0 25.0 25.0 25.0 25.0 25.0 25.0 25.0 25.0 25.0 24.978026002563634 25.0 25.0 25.0 25.0 25.0 25.0 25.0 25.0 25.0 25.0 25.0 25.0 25.0 25.0 25.0 25.0 25.0 25.0 25.0 25.0 25.0 25.0 25.0 25.0 25.0 25.0 25.0 25.0 24.978026002563634 25.0 25.0 25.0 24.978026002563634 25.0 25.0 25.0 25.0 25.0 25.0 25.0 25.0 25.0 25.0 25.0 25.0 25.0 25.0 25.0 25.0 25.0 25.0 25.0 25.0 25.0 25.0 25.0 25.0 25.0 25.0 25.0 25.0 25.0 25.0 25.0 25.0 25.0 25.0 25.0 25.0 25.0 25.0 25.0 25.0 25.0 25.0 25.0 25.0 25.0 25.0 25.0 25.0 25.0 25.0 25.0 25.0 25.0 25.0 25.0 25.0 25.0 25.0 25.0 25.0 25.0 25.0 25.0 25.0 25.0 25.0 25.0 25.0 25.0 25.0 25.0 25.0 25.0 25.0 25.0 25.0 25.0 25.0 25.0 25.0 25.0 25.0 25.0 25.0 25.0 25.0 25.0 25.0 25.0 25.0 25.0 25.0 25.0 25.0 25.0 25.0 25.0 25.0 25.0 25.0 25.0 25.0 25.0 25.0 25.0 25.0 24.978026002563634 24.978026002563634 25.0 25.0 25.0 25.0 25.0 25.0 25.0 25.0 25.0 25.0 25.0 25.0 25.0 25.0 25.0 25.0 24.978026002563634 25.0 25.0 25.0 25.0 25.0 25.0 25.0 25.0 25.0 25.0 25.0 25.0 25.0 25.0 25.0 25.0 25.0 25.0 25.0 25.0 25.0 25.0 25.0 25.0 25.0 25.0 25.0 25.0 25.0 25.0 25.0 25.0 25.0 25.0 25.0 25.0 25.0 25.0 25.0 25.0 25.0 25.0 25.0 25.0 25.0 25.0 25.0 25.0 25.0 25.0 25.0 25.0 25.0 25.0 25.0 25.0 25.0 25.0 25.0 25.0 25.0 25.0 25.0 25.0 25.0 25.0 25.0 25.021973997436366 25.021973997436366 25.021973997436366 25.021973997436366 25.0 25.0 25.0 24.978026002563634 24.978026002563634 24.978026002563634 24.978026002563634 24.978026002563634 24.978026002563634 24.978026002563634 24.956052005127265 24.978026002563634 24.978026002563634 24.956052005127265 24.956052005127265 24.956052005127265 24.956052005127265 24.956052005127265 24.956052005127265 24.956052005127265 24.956052005127265 24.956052005127265 24.956052005127265 24.956052005127265 24.956052005127265 24.956052005127265 24.956052005127265 24.956052005127265 24.978026002563634 24.978026002563634 24.978026002563634 24.978026002563634 24.978026002563634 25.0 25.0 25.0 25.0 25.0 25.0 25.0 25.0 25.0 24.978026002563634 24.978026002563634 24.978026002563634 24.978026002563634 24.978026002563634 24.978026002563634 24.978026002563634 24.978026002563634 24.978026002563634 24.956052005127265 24.956052005127265 24.978026002563634 24.978026002563634 24.978026002563634 25.0 24.978026002563634 24.978026002563634 24.978026002563634 24.978026002563634 24.978026002563634 25.0 25.043947994872735 25.043947994872735 25.0659219923091 25.0659219923091 25.0659219923091 25.0659219923091 25.0659219923091 25.0659219923091 25.0659219923091 25.0659219923091 25.0659219923091 25.0659219923091 25.0659219923091 25.0659219923091 25.0659219923091 25.0659219923091 25.0659219923091 25.0659219923091 25.0659219923091 25.0659219923091 25.0659219923091 25.0659219923091 25.0659219923091 25.0659219923091 25.0659219923091 25.043947994872735 25.043947994872735 25.0659219923091 25.043947994872735 25.043947994872735 25.043947994872735 25.043947994872735 25.043947994872735 25.043947994872735 25.043947994872735 25.043947994872735 25.043947994872735 25.043947994872735 25.043947994872735 25.043947994872735 25.043947994872735 25.043947994872735 25.043947994872735 25.043947994872735 25.043947994872735 25.043947994872735 25.043947994872735 25.043947994872735 25.043947994872735 25.043947994872735 25.0659219923091 25.0659219923091 25.0659219923091 25.0659219923091 25.08789598974547 25.109869987181835 25.109869987181835 25.15381798205457 25.197765976927304 25.263687969236404 25.35158395898187 25.417505951290973 25.527375938472808 25.615271928218274 25.72514191540011 25.835011902581943 25.988829884636512 26.23054385643655 26.560153817982055 26.97765976927303 27.439113715436733 27.90056766160044 28.49386559238235 29.065189525727888 29.724409448818896 30.44955136421901 31.196667277055482 31.94378318989196 32.69089910272844 33.459989013001284 34.11920893609229 34.80040285661967 35.56949276689251 36.272660684856255 37.041750595129095 37.67899652078374 38.49203442592932 39.19520234389306 39.898370261856805 40.579564182384175 41.19483611060245 41.91997802600257 42.776963926020876 43.568027833730085 44.4909357260575 45.36989562351218 46.33675151071232 47.30360739791247 48.31441127998535 49.2153451748764 49.984435085149244 50.86339498260392 51.72038088262223 52.423548800585976 53.214612708295185 53.91778062625893 54.73081853140451 55.45596044680461 56.26899835195019 57.08203625709577 57.85112616736861 58.62021607764146 59.3893059879143 60.136421900750776 60.88353781358725 61.49880974180553 62.20197765976927 62.79527559055118 63.542391503387655 64.33345541109688 65.10254532136972 65.89360922907892 66.68467313678813 67.56363303424281 68.31074894707929 69.16773484709759 70.13459073429775 71.1014466214979 72.09027650613442 73.12305438564366 74.17780626258927 75.16663614722579 76.04559604468047 76.92455594213514 77.89141182933528 78.81431972166271 79.60538362937191 80.44039553195387 81.2754074345358 82.11041933711775 82.9454312396997 83.71452114997254 84.46163706280902 85.16480498077274 85.82402490386376 86.57114081670024 87.27430873466398 87.95550265519137 88.61472257828237 89.18604651162791 89.80131843984618 90.37264237319172 90.94396630653726 91.3834462552646 91.82292620399194 92.13056216810108 92.37227613990112 92.54806811939206 92.6579381065739 92.6579381065739 92.6579381065739 92.6579381065739 92.59201611426478 92.3942501373375 92.21845815784656 91.95477018861015 91.64713422450102 91.33949826039188 91.0538362937191 90.68027833730086 90.28474638344626 89.91118842702802 89.53763047060978 89.12012451931881 88.70261856802784 88.30708661417323 87.86760666544589 87.38417872184581 86.90075077824574 86.50521882439114 86.04376487822742 85.538362937191 85.03296099615454 84.50558505768174 84.0001831166453 83.51675517304523 83.0772752243179 82.57187328328145 82.00054934993591 81.45119941402675 80.85790148324483 80.30855154733565 79.60538362937191 78.92418970884452 78.2210217908808 77.62772386009888 76.85863394982604 76.02362204724409 75.21058414209853 74.28767624977111 73.34279436000733 72.39791247024354 71.4310565830434 70.44222669840688 69.47537081120674 68.48654092657023 67.49771104193371 66.72862113166087 65.93755722395166 65.0366233290606 64.1796374290423 63.454495513642186 62.75132759567845 62.09210767258744 61.43288774949643 60.729719831532684 60.092473905878045 59.3893059879143 58.70811206738693 58.11481413660502 57.34572422633217 56.598608313495696 54.73081853140451 53.98370261856803 53.104742721113354 51.9401208569859 51.10510895440396 49.91851309284014 48.84178721845816 48.18256729536715 47.30360739791247 46.66636147225783 46.314777513275956 45.919245559421356 45.80937557223952 45.50173960813038 45.30397363120308 45.15015564914851 44.90844167734847 44.51290972349386 44.24922175425746 43.787767808093754 43.436183849111885 42.82091192089361 42.20563999267533 41.85405603369347 41.23878410547519 40.579564182384175 40.074162241347736 39.370994323384 38.95348837209302 38.22834645669291 37.635048525911 37.1735945797473 36.536348654092656 35.83318073612892 35.39370078740157 34.7125068668742 34.29500091558323 33.701702984801315 33.306171030946714 32.932613074528476 32.47115912836477 31.987731184764694 31.59219923091009 31.21864127449185 30.954953305255447 30.42757736678264 30.119941402673504 29.9221754257462 29.526643471891596 29.262955502655192 28.91137154367332 28.55978758469145 28.34004761032778 28.076359641091376 27.74674967954587 27.614905694927668 27.461087712873102 27.329243728254898 27.219373741073063 27.131477751327594 27.065555759018494 26.97765976927303 26.95568577183666 26.933711774400294 26.88976377952756 26.88976377952756 26.845815784654825 26.82384178721846 26.80186778978209 26.779893792345725 26.757919794909355 26.713971800036624 26.691997802600255 26.67002380516389 26.626075810291155 26.58212781541842 26.538179820545686 26.472257828236586 26.38436183849112 26.340413843618386 26.252517853872916 26.208569859000182 26.098699871818347 26.01080388207288 25.966855887200147 25.900933894891047 25.878959897454678 25.878959897454678 25.878959897454678 25.878959897454678 25.878959897454678 25.900933894891047 25.878959897454678 25.878959897454678 25.878959897454678 25.900933894891047 25.922907892327412 25.966855887200147 26.032777879509247 26.164621864127447 26.318439846182017 26.538179820545686 26.691997802600255 27.153451748763963 27.395165720564 27.724775682109502 28.09833363852774 28.823475553927853 29.306903497527927 29.790331441127996 30.625343343709943 31.41640725141915 32.00970518220106 32.62497711041934 33.89946896172862 34.88829884636513 35.59146676432888 36.58029664896539 37.415308551547334 38.55795641823842 39.590734297747666 40.469694195202344 41.78813404138436 43.106573887566384 44.11737776963926 45.985167551730456 46.952023438930595 47.85295733382164 49.742721113349205 50.77549899285845 51.6764328877495 53.170664713422454 53.98370261856803 55.21424647500458 56.33492034425929 57.08203625709577 57.85112616736861 58.66416407251419 60.26826588536898 61.45486174693279 62.28987364951474 63.476469511078555 64.48727339315144 66.06940120856986 67.01428309833364 67.82732100347921 69.2336568394067 70.57407068302508 72.06830250869804 73.29884636513458 74.68320820362571 75.47427211133493 76.72678996520784 77.47390587804432 78.46273576268084 78.90221571140816 79.86907159860831 80.74803149606299 81.36330342428127 82.24226332173595 83.12122321919063 83.7364951474089 84.50558505768174 85.18677897820913 86.17560886284564 87.07654275773669 87.86760666544589 88.6586705731551 89.84526643471892 90.4605383629372 91.16370628090094 91.86687419886468 92.74583409631936 93.55887200146493 94.10822193737411 94.72349386559239 95.09705182201061 95.33876579381067 95.5145577733016 95.69034975279253 95.75627174510163 95.778245742538 95.778245742538 95.69034975279253 95.5145577733016 95.33876579381067 95.00915583226515 94.63559787584691 94.06427394250137 93.383080021974 92.723860098883 91.8449002014283 90.81212232191906 89.62552646035525 88.54880058597325 88.13129463468229 87.01062076542757 85.38454495513642 84.76927302691814 83.36293719099066 82.24226332173595 81.34132942684491 80.48434352682659 79.5394616370628 77.93535982420804 76.616919978026 75.73796008057133 74.41952023438931 73.01318439846182 71.8925105292071 70.74986266251602 69.7610327778795 68.37667093938839 67.05823109320637 65.9815052188244 64.72898736495148 63.80607947262406 62.53158762131478 61.23512177256912 60.356161875114445 59.1256180186779 57.36769822376854 56.620582310932065 55.43398644936825 55.03845449551364 53.346456692913385 52.37960080571324 51.52261490569492 49.720747115912836 48.97363120307636 48.13861930049441 47.017945431239696 46.20490752609412 45.04028566196667 43.96355978758469 43.194469877311846 42.0957700054935 41.06299212598425 40.206006225965936 38.86559238234756 38.03058047976561 37.129646584874564 36.51437465665629 35.83318073612892 34.95422083867423 33.92144295916499 33.416041018128546 32.40523713605567 32.27339315143747 31.89983519501923 31.614173228346456 31.328511261673686 30.889031312946347 30.51547335652811 30.273759384728073 29.8562534334371 29.592565464200696 29.087163523164257 28.449917597509614 28.12030763596411 27.417139718000367 26.867789782091194 26.713971800036624 26.51620582310932 26.29646584874565 26.120673869254716 26.054751876945616 26.054751876945616 26.032777879509247 26.032777879509247 26.032777879509247 26.01080388207288 26.01080388207288 25.988829884636512 25.988829884636512 25.988829884636512 25.966855887200147 25.966855887200147 25.966855887200147 25.944881889763778 25.944881889763778 25.944881889763778 25.944881889763778 25.944881889763778 25.944881889763778 25.944881889763778 25.922907892327412 25.922907892327412 25.922907892327412 25.900933894891047 25.900933894891047 25.900933894891047 25.900933894891047 25.900933894891047 25.900933894891047 25.900933894891047 25.900933894891047 25.900933894891047 25.900933894891047 25.900933894891047 25.900933894891047 25.900933894891047 25.900933894891047 25.900933894891047 25.900933894891047 25.900933894891047 25.900933894891047 25.900933894891047 25.900933894891047 25.900933894891047 25.900933894891047 25.900933894891047 25.900933894891047 25.900933894891047 25.900933894891047 25.900933894891047 25.922907892327412 25.900933894891047 25.922907892327412 25.922907892327412 25.922907892327412 25.922907892327412 25.922907892327412 25.922907892327412 25.944881889763778 25.988829884636512 26.01080388207288 26.164621864127447 26.318439846182017 26.713971800036624 27.02160776414576 27.702801684673137 28.16425563083684 28.669657571873284 29.306903497527927 30.251785387291704 30.954953305255447 31.702069218091925 32.27339315143747 32.932613074528476 33.98736495147409 34.51474088994689 35.41567478483794 36.624244643838125 37.1735945797473 37.92071049258378 38.62387841054752 40.008240249038636 41.15088811572972 41.70023805163889 42.75498992858451 43.96355978758469 44.86449368247574 46.20490752609412 47.523347372276135 48.90770921076726 49.786669108221936 50.709577000549345 52.006042849295 53.258560703167916 54.51107855704083 55.82951840322285 56.77440029298663 58.04889214429592 58.8619300494415 59.82878593664164 61.34499175975096 62.57553561618751 63.454495513642186 64.66306537264236 65.56399926753342 66.92638710858817 68.17890496246109 69.32155282915217 70.8377586522615 71.69474455227981 72.8373924189709 74.00201428309833 74.83702618568029 76.3532320087896 77.36403589086248 78.19904779344444 79.05603369346274 80.55026551913569 81.45119941402675 82.41805530122689 83.16517121406336 84.21992309100898 84.98901300128182 86.24153085515474 86.87877678080937 87.82365867057317 88.4609045962278 89.36183849111885 90.26277238600989 90.74620032960996 91.51529023988282 92.35030214246476 93.1193920527376 93.73466398095587 94.54770188610145 95.25086980406519 95.71232375022889 96.3715436733199 96.96484160410182 97.29445156564732 97.64603552462918 97.79985350668376 97.90972349386558 97.90972349386558 97.88774949642922 97.66800952206556 97.33839956052005 97.00878959897454 96.45943966306537 95.778245742538 95.27284380150155 94.61362387841055 94.02032594762865 93.1193920527376 92.04266617835562 91.03186229628274 89.95513642190075 89.07617652444607 87.77971067570043 86.02179088079106 85.01098699871818 84.0001831166453 82.13239333455411 81.25343343709943 79.75920161142648 79.29774766526278 77.45193188060796 76.06757004211683 75.05676616004395 73.6943783189892 71.91448452664348 71.4310565830434 70.22248672404322 69.34352682658854 68.24482695477019 67.40981505218824 66.79454312396996 65.52005127266068 64.59714338033328 64.13568943416956 63.300677531587624 62.64145760849661 61.67460172129647 60.202343893059876 59.433253982787036 58.20271012635048 56.532686321186596 56.26899835195019 55.28016846731368 54.37923457242263 52.68723676982238 51.4786669108222 50.665629005676614 49.742721113349205 49.08350119025819 47.54532136971251 46.952023438930595 46.358725508148694 45.76542757736678 45.06225965940304 44.4250137337484 43.699871818348285 42.95275590551181 42.11774400292987 41.56839406702069 40.97509613623878 40.140084233656836 39.26112433620216 38.42611243362022 37.5691265336019 36.953854605383626 36.338582677165356 35.921076725874386 35.26185680278337 34.9102728438015 34.33894891045596 34.09723493865592 33.789598974546784 33.61380699505585 33.372093023255815 33.152353048892145 33.04248306171031 32.84471708478301 32.66892510529207 32.49313312580114 32.22944515656473 32.03167917963743 31.59219923091009 31.394433253982786 31.130745284746382 30.713239333455412 30.119941402673504 29.9880974180553 29.526643471891596 29.262955502655192 29.065189525727888 28.889397546236953 28.669657571873284 28.47189159494598 28.40596960263688 28.31807361289141 28.18622962827321 28.05438564365501 27.87859366416407 27.636879692364037 27.439113715436733 27.17542574620033 27.04358176158213 26.933711774400294 26.845815784654825 26.757919794909355 26.713971800036624 26.626075810291155 26.60410181285479 26.60410181285479 26.60410181285479 26.60410181285479 26.626075810291155 26.626075810291155 26.60410181285479 26.60410181285479 26.58212781541842 26.58212781541842 26.560153817982055 26.538179820545686 26.51620582310932 26.494231825672955 26.494231825672955 26.472257828236586 26.42830983336385 26.42830983336385 26.42830983336385 26.42830983336385 26.42830983336385 26.42830983336385 26.42830983336385 26.42830983336385 26.42830983336385 26.42830983336385 26.45028383080022 26.51620582310932 26.648049807727524 26.845815784654825 27.219373741073063 27.768723676982237 28.230177623145945 28.955319538546053 29.570591466764327 30.493499359091743 31.52627723860099 32.36128914118294 34.09723493865592 35.48159677714705 36.426478666910825 37.5032045412928 38.57993041567478 39.986266251602274 42.1616919978026 43.304339864493684 45.06225965940304 47.457425379967034 48.29243728254899 49.654825123603736 50.95129097234938 52.95092473905878 54.62094854422267 55.74162241347739 57.14795824940487 58.57626808276872 59.4552279802234 60.75169382896905 61.63065372642373 62.971067570042116 64.26753341878776 65.19044131111518 66.66269913935176 68.09100897271563 69.5632668009522 70.61801867789782 72.0243545138253 73.01318439846182 74.52939022157113 75.38637612158945 77.53982787035342 78.4847097601172 79.38564365500824 80.13275956784472 81.09961545504487 82.39608130379051 83.51675517304523 84.3957150704999 85.538362937191 86.3953488372093 87.60391869620949 88.61472257828237 89.25196850393701 90.19685039370079 91.07581029115548 91.64713422450102 92.41622413477386 92.83373008606483 93.383080021974 93.58084599890131 93.69071598608313 93.75663797839223 93.75663797839223 93.75663797839223 93.53689800402857 93.3171580296649 92.9216260758103 92.61399011170116 92.06464017579198 91.51529023988282 90.90001831166454 90.43856436550082 89.77934444240981 89.29591649880975 88.57077458340964 87.84563266800953 87.29628273210035 86.3953488372093 85.49441494231826 84.90111701153634 83.69254715253618 83.0772752243179 82.44002929866325 81.0776414576085 80.66013550631753 79.71525361655375 78.39681377037172 77.64969785753524 76.4850759934078 75.67203808826221 74.50741622413477 73.54056033693463 72.68357443691632 70.85973264969786 69.80498077275224 68.61838491118843 67.36586705731551 65.52005127266068 64.72898736495148 63.89397546236953 62.971067570042116 61.76249771104193 60.83958981871452 59.54312396996887 57.87310016480498 56.972166269913934 55.58780443142282 54.29133858267717 53.632118659586155 52.55539278520418 51.69840688518586 50.028383080021975 48.79783922358543 47.98480131843985 46.995971433803334 45.919245559421356 45.21607764145761 44.33711774400293 43.74381981322102 42.930781908075446 42.20563999267533 41.70023805163889 40.82127815418421 40.206006225965936 40.008240249038636 39.41494231825673 38.99743636696576 38.44808643105658 37.85478850027467 37.52517853872917 36.756088628456325 36.22871268998352 35.986998718183486 35.50357077458341 34.9761948361106 34.69053286943783 34.16315693096502 33.92144295916499 33.569859000183115 33.306171030946714 33.108405054019414 32.88866507965574 32.734847097601175 32.5151071232375 32.33931514374657 32.22944515656473 32.00970518220106 31.767991210401025 31.702069218091925 31.482329243728255 31.35048525911005 31.108771287310017 30.801135323200878 30.58139534883721 30.097967405237135 29.834279436000735 29.372825489837027 28.97729353598242 28.603735579564184 28.34004761032778 27.988463651345906 27.768723676982237 27.483061710309467 27.307269730818533 27.241347738509432 27.219373741073063 27.219373741073063 27.219373741073063 27.241347738509432 27.241347738509432 27.241347738509432 27.219373741073063 27.197399743636698 27.153451748763963 27.153451748763963 27.10950375389123 27.087529756454863 27.087529756454863 27.065555759018494 27.04358176158213 27.02160776414576 26.999633766709394 26.97765976927303 26.95568577183666 26.933711774400294 26.911737776963925 26.911737776963925 26.911737776963925 26.911737776963925 26.88976377952756 26.911737776963925 26.911737776963925 26.88976377952756 26.88976377952756 26.88976377952756 26.88976377952756 26.88976377952756 26.88976377952756 26.88976377952756 26.88976377952756 26.88976377952756 26.88976377952756 26.88976377952756 26.88976377952756 26.88976377952756 26.88976377952756 26.911737776963925 26.911737776963925 26.911737776963925 26.911737776963925 26.933711774400294 26.933711774400294 26.95568577183666 26.95568577183666 26.97765976927303 27.02160776414576 27.087529756454863 27.219373741073063 27.329243728254898 27.483061710309467 27.658853689800402 27.856619666727706 28.010437648782275 28.362021607764145 28.64768357443692 29.131111518036988 29.63651345907343 29.944149423182566 30.42757736678264 31.042849295000916 31.548251236037355 32.07562717451016 32.53708112067387 33.262223036073976 33.96539095403772 34.6465848745651 35.41567478483794 36.668192638710856 37.34938655923823 38.16242446438381 38.90954037722029 39.920344259293174 41.15088811572972 42.07379600805713 43.348287859366415 44.8864676799121 45.30397363120308 46.13898553378502 47.36952939022157 48.20454129280351 49.742721113349205 50.599707013367514 51.8082768723677 53.060794726240616 54.04962461087713 54.95055850576817 55.76359641091375 56.906244277604834 57.98297015198681 58.9278520417506 59.960629921259844 61.03735579564182 61.9163156930965 63.080937557223955 64.3114814136605 65.19044131111518 66.99230910089727 67.73942501373375 68.90404687786119 70.85973264969786 72.57370444973449 73.40871635231643 74.30965024720747 75.73796008057133 77.25416590368064 78.02325581395348 79.60538362937191 80.66013550631753 81.56106940120857 82.50595129097235 84.1320271012635 84.83519501922726 86.08771287310017 86.90075077824574 87.91155466031863 88.30708661417323 89.25196850393701 90.30672038088262 91.0538362937191 92.13056216810108 93.3171580296649 93.82255997070133 94.48177989379235 94.76744186046513 95.11902581944699 95.29481779893793 95.38271378868339 95.38271378868339 95.33876579381067 95.20692180919247 94.98718183482879 94.76744186046513 94.15216993224685 93.88848196301043 93.53689800402857 93.00952206555576 92.46017212964658 91.91082219373742 90.98791430141 90.43856436550082 89.66947445522798 89.14209851675518 88.592748580846 87.20838674235489 85.9998168833547 85.4065189525728 84.70335103460906 83.89031312946346 82.90148324482695 82.48397729353599 81.71488738326315 80.46236952939023 79.47353964475371 78.85826771653544 77.73759384728072 76.92455594213514 75.6940120856986 74.37557223951657 73.51858633949826 72.35396447537082 71.0355246291888 69.98077275224318 68.81615088811573 67.47573704449735 66.26716718549716 65.36623329060612 64.5751693828969 63.23475553927852 62.00421168284197 60.77366782640542 59.499175975096136 58.57626808276872 57.235854239150335 56.33492034425929 55.12635048525911 53.93975462369529 52.81908075444058 52.1378868339132 51.083134956967584 50.379967039003844 49.369163156930966 48.42428126716719 47.457425379967034 46.86412744918513 46.248855520966856 45.34792162607581 44.44698773118476 43.91961179271196 42.776963926020876 41.65629005676616 41.019044131111514 40.469694195202344 39.920344259293174 39.26112433620216 38.42611243362022 37.85478850027467 37.1076725874382 36.360556674601725 35.83318073612892 35.10803882072881 34.60263687969236 33.96539095403772 33.350119025819446 32.97656106940121 32.47115912836477 32.07562717451016 31.833913202710125 31.65812122321919 31.57022523347372 31.46035524629189 31.328511261673686 31.24061527192822 31.130745284746382 30.779161325764512 30.647317341146312 30.29573338216444 29.812305438564366 29.262955502655192 28.669657571873284 28.03241164621864 27.658853689800402 27.373191723127633 27.307269730818533 27.197399743636698 27.10950375389123 27.065555759018494 27.065555759018494 27.04358176158213 27.065555759018494 27.065555759018494 27.065555759018494 27.04358176158213 27.04358176158213 27.02160776414576 27.02160776414576 27.02160776414576 27.02160776414576 26.999633766709394 26.95568577183666 26.933711774400294 26.911737776963925 26.867789782091194 26.80186778978209 26.757919794909355 26.691997802600255 26.648049807727524 26.58212781541842 26.51620582310932 26.45028383080022 26.36238784105475 26.274491851309286 26.186595861563816 26.054751876945616 26.01080388207288 25.944881889763778 25.900933894891047 25.835011902581943 25.813037905145578 25.769089910272843 25.703167917963743 25.65921992309101 25.615271928218274 25.571323933345543 25.571323933345543 25.571323933345543 25.549349935909174 25.527375938472808 25.527375938472808 25.50540194103644 25.50540194103644 25.527375938472808 25.527375938472808 25.527375938472808 25.527375938472808 25.50540194103644 25.527375938472808 25.50540194103644 25.483427943600073 25.417505951290973 25.35158395898187 25.30763596410914 25.263687969236404 25.241713971800035 25.241713971800035 25.241713971800035 25.241713971800035 25.263687969236404 25.263687969236404 25.263687969236404 25.263687969236404 25.263687969236404 25.263687969236404 25.263687969236404 25.263687969236404 25.28566196667277 25.263687969236404 25.263687969236404 25.263687969236404 25.263687969236404 25.28566196667277 25.263687969236404 25.263687969236404 25.263687969236404 25.263687969236404 25.241713971800035 25.241713971800035 25.241713971800035 25.21973997436367 25.21973997436367 25.21973997436367 25.197765976927304 25.197765976927304 25.197765976927304 25.197765976927304 25.175791979490935 25.175791979490935 25.175791979490935 25.175791979490935 25.175791979490935 25.175791979490935 25.175791979490935 25.15381798205457 25.15381798205457 25.15381798205457 25.15381798205457 25.15381798205457 25.1318439846182 25.15381798205457 25.15381798205457 25.175791979490935 25.175791979490935 25.15381798205457 25.175791979490935 25.15381798205457 25.175791979490935 25.175791979490935 25.175791979490935 25.175791979490935 25.197765976927304 25.197765976927304 25.197765976927304 25.197765976927304 25.197765976927304 25.197765976927304 25.197765976927304 25.21973997436367 25.197765976927304 25.197765976927304 25.21973997436367 25.21973997436367 25.21973997436367 25.197765976927304 25.21973997436367 25.21973997436367 25.21973997436367 25.21973997436367 25.21973997436367 25.21973997436367 25.21973997436367 25.21973997436367 25.21973997436367 25.21973997436367 25.197765976927304 25.197765976927304 25.197765976927304 25.197765976927304 25.197765976927304 25.197765976927304 25.175791979490935 25.175791979490935 25.175791979490935 25.175791979490935 25.175791979490935 25.175791979490935 25.175791979490935 25.175791979490935 25.15381798205457 25.175791979490935 25.15381798205457 25.15381798205457 25.15381798205457 25.15381798205457 25.15381798205457 25.15381798205457 25.15381798205457 25.15381798205457 25.15381798205457 25.15381798205457 25.15381798205457 25.15381798205457 25.175791979490935 25.15381798205457 25.175791979490935 25.175791979490935 25.175791979490935 25.175791979490935 25.197765976927304 25.197765976927304 25.175791979490935 25.197765976927304 25.197765976927304 25.197765976927304 25.197765976927304 25.197765976927304 25.197765976927304 25.197765976927304 25.197765976927304 25.197765976927304 25.197765976927304 25.197765976927304 25.197765976927304 25.197765976927304 25.197765976927304 25.197765976927304 25.197765976927304 25.197765976927304 25.197765976927304 25.197765976927304 25.197765976927304 25.197765976927304 25.175791979490935 25.175791979490935 25.175791979490935 25.175791979490935 25.175791979490935 25.175791979490935 25.175791979490935 25.175791979490935 25.175791979490935 25.175791979490935 25.175791979490935 25.175791979490935 25.15381798205457 25.15381798205457 25.15381798205457 25.15381798205457 25.15381798205457 25.15381798205457 25.15381798205457 25.15381798205457 25.15381798205457 25.15381798205457 25.15381798205457 25.15381798205457 25.15381798205457 25.175791979490935 25.175791979490935 25.175791979490935 25.175791979490935 25.175791979490935 25.175791979490935 25.175791979490935 25.197765976927304 25.175791979490935 25.175791979490935 25.197765976927304 25.197765976927304 25.197765976927304 25.197765976927304 25.197765976927304 25.197765976927304 25.175791979490935 25.197765976927304 25.197765976927304 25.197765976927304 25.197765976927304 25.197765976927304 25.175791979490935 25.197765976927304 25.197765976927304 25.175791979490935 25.197765976927304 25.175791979490935 25.175791979490935 25.175791979490935 25.175791979490935 25.175791979490935 25.175791979490935 25.175791979490935 25.175791979490935 25.175791979490935 25.175791979490935 25.175791979490935 25.175791979490935 25.175791979490935 25.175791979490935 25.175791979490935 25.175791979490935 25.15381798205457 25.15381798205457 25.15381798205457 25.15381798205457 25.15381798205457 25.15381798205457 25.15381798205457 25.175791979490935 25.175791979490935 25.15381798205457 25.175791979490935 25.175791979490935 25.175791979490935 25.175791979490935 25.175791979490935 25.175791979490935 25.175791979490935 25.175791979490935 25.175791979490935 25.175791979490935 25.175791979490935 25.175791979490935 25.175791979490935 25.175791979490935 25.175791979490935 25.175791979490935 25.197765976927304 25.197765976927304 25.175791979490935 25.197765976927304 25.197765976927304 25.175791979490935 25.175791979490935 25.175791979490935 25.175791979490935 25.175791979490935 25.175791979490935 25.175791979490935 25.175791979490935 25.175791979490935 25.175791979490935 25.175791979490935 25.175791979490935 25.175791979490935 25.175791979490935 25.175791979490935 25.15381798205457 25.175791979490935 
