25.0 25.0 25.021973997436366 25.0 25.0 25.0 25.021973997436366 25.0 25.0 25.0 25.0 25.0 25.0 25.0 25.0 25.0 25.0 25.0 25.0 25.021973997436366 25.0 25.0 25.021973997436366 25.0 25.0 25.0 25.0 25.0 25.0 25.0 25.0 25.0 25.0 25.0 25.0 25.0 25.0 25.0 25.0 25.0 25.0 25.0 25.0 25.0 25.0 25.0 25.0 25.0 25.0 25.021973997436366 25.0 25.021973997436366 25.0 25.0 25.0 25.021973997436366 25.0 25.0 25.0 25.0 25.0 25.0 25.0 25.0 25.0 25.021973997436366 25.0 25.021973997436366 25.0 25.0 25.0 25.0 25.0 25.0 25.0 25.0 25.0 25.021973997436366 25.0 25.0 25.021973997436366 25.021973997436366 25.021973997436366 25.0 25.0 25.0 25.0 25.0 25.0 25.0 25.021973997436366 25.0 25.0 25.021973997436366 25.0 25.0 25.0 25.0 25.0 25.0 25.0 25.021973997436366 25.0 25.0 25.0 25.0 25.0 25.0 25.0 25.0 25.0 25.0 25.0 25.0 25.0 25.0 25.0 25.0 25.0 25.0 25.0 25.0 25.0 25.0 25.021973997436366 25.0 25.0 25.0 25.0 25.0 25.0 25.0 25.0 25.0 25.0 25.0 25.0 25.0 25.0 25.0 25.0 25.0 25.0 25.0 25.0 25.0 25.0 25.0 25.0 25.0 25.0 25.0 25.0 25.0 25.0 25.0 25.0 25.0 25.0 25.021973997436366 25.0 25.0 25.0 25.0 25.0 25.0 25.0 25.0 25.021973997436366 25.0 25.0 25.0 25.0 25.0 25.0 25.0 25.0 25.0 25.0 25.0 25.0 25.0 25.0 25.0 25.0 25.0 25.0 25.0 25.0 25.0 25.0 25.0 25.0 25.0 25.0 25.0 25.0 25.0 25.0 25.0 25.0 25.0 25.0 25.0 25.0 25.0 25.0 25.0 25.0 25.0 25.0 25.0 25.0 25.0 25.0 25.0 25.021973997436366 25.0 25.0 25.0 25.0 25.0 25.0 25.0 25.0 25.021973997436366 25.0 25.0 25.0 25.0 25.0 25.0 25.0 25.0 25.0 25.021973997436366 25.0 25.021973997436366 25.0 25.0 25.0 25.0 25.021973997436366 25.0 25.0 25.021973997436366 25.0 25.0 25.0 25.021973997436366 25.021973997436366 25.0 25.0 25.0 25.0 25.021973997436366 25.0 25.0 25.0 25.0 25.0 25.0 25.0 25.0 25.0 25.0 25.0 25.0 25.0 25.0 25.021973997436366 25.021973997436366 25.0 25.0 25.021973997436366 25.0 25.0 25.021973997436366 25.0 25.0 25.0 25.0 25.021973997436366 25.0 25.0 25.0 25.0 25.021973997436366 25.021973997436366 25.0 25.021973997436366 25.021973997436366 25.021973997436366 25.0 25.0 25.0 25.021973997436366 25.021973997436366 25.0 25.0 25.0 25.021973997436366 25.021973997436366 25.0 25.021973997436366 25.021973997436366 25.0 25.021973997436366 25.0 25.0 25.021973997436366 25.0 25.0 25.021973997436366 25.021973997436366 25.021973997436366 25.021973997436366 25.021973997436366 25.021973997436366 25.021973997436366 25.021973997436366 25.0 25.021973997436366 25.021973997436366 25.021973997436366 25.0 25.021973997436366 25.021973997436366 25.021973997436366 25.021973997436366 25.021973997436366 25.021973997436366 25.021973997436366 25.021973997436366 25.0 25.021973997436366 25.021973997436366 25.021973997436366 25.021973997436366 25.021973997436366 25.021973997436366 25.021973997436366 25.021973997436366 25.021973997436366 25.021973997436366 25.021973997436366 25.021973997436366 25.021973997436366 25.021973997436366 25.021973997436366 25.021973997436366 25.021973997436366 25.021973997436366 25.021973997436366 25.021973997436366 25.021973997436366 25.021973997436366 25.021973997436366 25.021973997436366 25.021973997436366 25.021973997436366 25.021973997436366 25.021973997436366 25.021973997436366 25.021973997436366 25.021973997436366 25.021973997436366 25.043947994872735 25.021973997436366 25.021973997436366 25.021973997436366 25.021973997436366 25.021973997436366 25.021973997436366 25.021973997436366 25.021973997436366 25.021973997436366 25.021973997436366 25.021973997436366 25.021973997436366 25.021973997436366 25.021973997436366 25.021973997436366 25.021973997436366 25.021973997436366 25.021973997436366 25.021973997436366 25.021973997436366 25.021973997436366 25.021973997436366 25.021973997436366 25.021973997436366 25.021973997436366 25.021973997436366 25.021973997436366 25.021973997436366 25.021973997436366 25.021973997436366 25.021973997436366 25.021973997436366 25.021973997436366 25.021973997436366 25.021973997436366 25.021973997436366 25.021973997436366 25.021973997436366 25.021973997436366 25.021973997436366 25.021973997436366 25.021973997436366 25.021973997436366 25.021973997436366 25.021973997436366 25.021973997436366 25.021973997436366 25.021973997436366 25.021973997436366 25.021973997436366 25.021973997436366 25.021973997436366 25.021973997436366 25.021973997436366 25.021973997436366 25.021973997436366 25.021973997436366 25.021973997436366 25.021973997436366 25.021973997436366 25.021973997436366 25.021973997436366 25.021973997436366 25.021973997436366 25.021973997436366 25.021973997436366 25.021973997436366 25.021973997436366 25.021973997436366 25.021973997436366 25.021973997436366 25.021973997436366 25.021973997436366 25.021973997436366 25.021973997436366 25.021973997436366 25.021973997436366 25.021973997436366 25.021973997436366 25.021973997436366 25.021973997436366 25.021973997436366 25.021973997436366 25.021973997436366 25.021973997436366 25.021973997436366 25.043947994872735 25.021973997436366 25.043947994872735 25.021973997436366 25.021973997436366 25.021973997436366 25.021973997436366 25.043947994872735 25.021973997436366 25.021973997436366 25.021973997436366 25.021973997436366 25.021973997436366 25.021973997436366 25.021973997436366 25.021973997436366 25.043947994872735 25.021973997436366 25.021973997436366 25.021973997436366 25.043947994872735 25.043947994872735 25.021973997436366 25.043947994872735 25.043947994872735 25.021973997436366 25.021973997436366 25.043947994872735 25.021973997436366 25.021973997436366 25.021973997436366 25.021973997436366 25.021973997436366 25.021973997436366 25.021973997436366 25.021973997436366 25.021973997436366 25.043947994872735 25.021973997436366 25.021973997436366 25.021973997436366 25.021973997436366 25.021973997436366 25.043947994872735 25.021973997436366 25.021973997436366 25.021973997436366 25.021973997436366 25.021973997436366 25.021973997436366 25.021973997436366 25.021973997436366 25.021973997436366 25.021973997436366 25.021973997436366 25.021973997436366 25.043947994872735 25.021973997436366 25.021973997436366 25.021973997436366 25.021973997436366 25.021973997436366 25.021973997436366 25.021973997436366 25.021973997436366 25.021973997436366 25.021973997436366 25.021973997436366 25.021973997436366 25.043947994872735 25.021973997436366 25.021973997436366 25.043947994872735 25.043947994872735 25.021973997436366 25.021973997436366 25.021973997436366 25.021973997436366 25.043947994872735 25.043947994872735 25.021973997436366 25.043947994872735 25.021973997436366 25.043947994872735 25.021973997436366 25.043947994872735 25.043947994872735 25.021973997436366 25.043947994872735 25.021973997436366 25.043947994872735 25.021973997436366 25.043947994872735 25.021973997436366 25.043947994872735 25.043947994872735 25.043947994872735 25.021973997436366 25.043947994872735 25.021973997436366 25.043947994872735 25.043947994872735 25.043947994872735 25.043947994872735 25.043947994872735 25.021973997436366 25.021973997436366 25.043947994872735 25.043947994872735 25.043947994872735 25.043947994872735 25.043947994872735 25.043947994872735 25.043947994872735 25.043947994872735 25.043947994872735 25.043947994872735 25.021973997436366 25.043947994872735 25.043947994872735 25.043947994872735 25.021973997436366 25.043947994872735 25.043947994872735 25.021973997436366 25.021973997436366 25.043947994872735 25.043947994872735 25.043947994872735 25.043947994872735 25.021973997436366 25.043947994872735 25.043947994872735 25.043947994872735 25.043947994872735 25.043947994872735 25.043947994872735 25.043947994872735 25.043947994872735 25.043947994872735 25.043947994872735 25.043947994872735 25.043947994872735 25.043947994872735 25.043947994872735 25.043947994872735 25.043947994872735 25.043947994872735 25.043947994872735 25.043947994872735 25.043947994872735 25.043947994872735 25.043947994872735 25.043947994872735 25.043947994872735 25.043947994872735 25.043947994872735 25.043947994872735 25.043947994872735 25.043947994872735 25.043947994872735 25.043947994872735 25.043947994872735 25.043947994872735 25.043947994872735 25.043947994872735 25.043947994872735 25.043947994872735 25.043947994872735 25.043947994872735 25.043947994872735 25.043947994872735 25.043947994872735 25.043947994872735 25.043947994872735 25.043947994872735 25.043947994872735 25.043947994872735 25.043947994872735 25.043947994872735 25.043947994872735 25.043947994872735 25.043947994872735 25.043947994872735 25.043947994872735 25.043947994872735 25.043947994872735 25.021973997436366 25.043947994872735 25.043947994872735 25.043947994872735 25.043947994872735 25.043947994872735 25.043947994872735 25.043947994872735 25.043947994872735 25.043947994872735 25.043947994872735 25.043947994872735 25.043947994872735 25.043947994872735 25.043947994872735 25.043947994872735 25.043947994872735 25.043947994872735 25.043947994872735 25.043947994872735 25.043947994872735 25.043947994872735 25.043947994872735 25.043947994872735 25.043947994872735 25.043947994872735 25.043947994872735 25.043947994872735 25.043947994872735 25.043947994872735 25.043947994872735 25.043947994872735 25.043947994872735 25.043947994872735 25.043947994872735 25.043947994872735 25.043947994872735 25.043947994872735 25.043947994872735 25.043947994872735 25.043947994872735 25.043947994872735 25.043947994872735 25.043947994872735 25.043947994872735 25.043947994872735 25.043947994872735 25.043947994872735 25.043947994872735 25.043947994872735 25.043947994872735 25.043947994872735 25.043947994872735 25.043947994872735 25.043947994872735 25.043947994872735 25.043947994872735 25.043947994872735 25.043947994872735 25.043947994872735 25.043947994872735 25.043947994872735 25.043947994872735 25.043947994872735 25.043947994872735 25.043947994872735 25.043947994872735 25.043947994872735 25.043947994872735 25.043947994872735 25.043947994872735 25.043947994872735 25.043947994872735 25.043947994872735 25.043947994872735 25.043947994872735 25.043947994872735 25.043947994872735 25.0659219923091 25.0659219923091 25.0659219923091 25.0659219923091 25.109869987181835 25.109869987181835 25.08789598974547 25.109869987181835 25.08789598974547 25.08789598974547 25.08789598974547 25.08789598974547 25.08789598974547 25.08789598974547 25.08789598974547 25.08789598974547 25.08789598974547 25.08789598974547 25.08789598974547 25.109869987181835 25.1318439846182 25.15381798205457 25.175791979490935 25.197765976927304 25.241713971800035 25.28566196667277 25.28566196667277 25.30763596410914 25.35158395898187 25.395531953854604 25.43947994872734 25.50540194103644 25.615271928218274 25.72514191540011 25.791063907709212 25.900933894891047 25.988829884636512 26.120673869254716 26.274491851309286 26.38436183849112 26.51620582310932 26.60410181285479 26.58212781541842 26.406335835927486 26.252517853872916 25.593297930781908 27.329243728254898 27.592931697491302 28.142281633400476 29.043215528291523 29.460721479582496 30.097967405237135 30.625343343709943 31.30653726423732 31.767991210401025 32.16352316425563 33.020509064273945 33.723676982237684 34.207104925837754 34.9102728438015 35.50357077458341 36.22871268998352 37.1076725874382 37.65702252334737 38.62387841054752 39.612708295184035 40.315876213147774 41.39260208752975 42.46932796191174 43.61197582860282 44.73264969785754 45.58963559787585 46.402673503021425 47.215711408167 48.57809924922175 49.720747115912836 50.46786302874931 51.4786669108222 52.53341878776781 53.192638710858816 54.18146859549533 54.88463651345907 55.93938839040469 56.9282182750412 57.69730818531404 58.66416407251419 59.652993957150706 60.33418787767808 61.34499175975096 62.00421168284197 62.971067570042116 63.93792345724226 64.5751693828969 65.82768723676982 66.70664713422451 67.32191906244277 67.91521699322467 68.72825489837027 69.5632668009522 70.13459073429775 71.01355063175242 71.84856253433438 72.77147042666178 73.1010803882073 74.24372825489837 74.83702618568029 75.6940120856986 76.50704999084417 77.12232191906244 77.91338582677164 78.7483977293536 79.29774766526278 80.17670756271745 80.74803149606299 81.53909540377221 82.61582127815419 83.14319721662699 83.62662516022706 84.61545504486358 85.03296099615454 85.42849295000916 85.88994689617286 86.28547885002747 86.87877678080937 87.16443874748215 87.60391869620949 87.91155466031863 88.13129463468229 88.21919062442777 88.30708661417323 88.37300860648233 88.48287859366417 88.50485259110053 88.61472257828237 88.6586705731551 88.74656656290057 88.8564365500824 88.9223585423915 89.03222852957333 89.14209851675518 89.20802050906427 89.25196850393701 89.27394250137338 89.29591649880975 89.29591649880975 89.31789049624611 89.29591649880975 89.29591649880975 89.29591649880975 89.29591649880975 89.27394250137338 89.29591649880975 89.29591649880975 89.29591649880975 89.29591649880975 89.29591649880975 89.29591649880975 89.29591649880975 89.29591649880975 89.29591649880975 89.29591649880975 89.31789049624611 89.29591649880975 89.27394250137338 89.27394250137338 89.25196850393701 89.22999450650065 89.16407251419155 89.09815052188245 89.01025453213697 88.9223585423915 88.83446255264604 88.74656656290057 88.68064457059147 88.61472257828237 88.52682658853689 88.43893059879144 88.39498260391869 88.30708661417323 88.26313861930049 88.21919062442777 88.17524262955503 88.13129463468229 88.08734663980957 88.08734663980957 88.06537264237319 88.04339864493683 88.04339864493683 88.02142464750045 87.99945065006409 87.99945065006409 87.99945065006409 88.02142464750045 87.99945065006409 87.99945065006409 87.99945065006409 87.99945065006409 87.99945065006409 87.99945065006409 87.99945065006409 87.99945065006409 87.99945065006409 87.99945065006409 87.99945065006409 87.99945065006409 87.99945065006409 87.99945065006409 87.99945065006409 87.99945065006409 87.99945065006409 87.99945065006409 87.99945065006409 87.99945065006409 87.99945065006409 87.99945065006409 87.99945065006409 87.99945065006409 87.99945065006409 87.99945065006409 87.99945065006409 87.99945065006409 87.99945065006409 87.99945065006409 87.99945065006409 87.99945065006409 87.99945065006409 87.99945065006409 87.99945065006409 87.99945065006409 87.99945065006409 87.99945065006409 87.99945065006409 87.99945065006409 87.99945065006409 87.99945065006409 87.97747665262773 87.99945065006409 87.99945065006409 87.99945065006409 87.99945065006409 87.99945065006409 87.99945065006409 87.99945065006409 87.99945065006409 87.99945065006409 87.99945065006409 87.99945065006409 87.99945065006409 87.97747665262773 87.95550265519137 87.95550265519137 87.93352865775499 87.91155466031863 87.91155466031863 87.91155466031863 87.91155466031863 87.91155466031863 87.91155466031863 87.91155466031863 87.91155466031863 87.88958066288225 87.91155466031863 87.91155466031863 87.91155466031863 87.88958066288225 87.91155466031863 87.88958066288225 87.86760666544589 87.82365867057317 87.80168467313679 87.77971067570043 87.75773667826405 87.73576268082769 87.71378868339133 87.71378868339133 87.71378868339133 87.71378868339133 87.71378868339133 87.69181468595497 87.71378868339133 87.71378868339133 87.71378868339133 87.69181468595497 87.73576268082769 87.71378868339133 87.71378868339133 87.71378868339133 87.73576268082769 87.69181468595497 87.71378868339133 87.69181468595497 87.69181468595497 87.64786669108221 87.62589269364585 87.60391869620949 87.60391869620949 87.55997070133675 87.51602270646401 87.49404870902765 87.49404870902765 87.45010071415491 87.42812671671855 87.42812671671855 87.40615271928218 87.40615271928218 87.40615271928218 87.40615271928218 87.40615271928218 87.38417872184581 87.38417872184581 87.38417872184581 87.38417872184581 87.36220472440945 87.34023072697309 87.31825672953671 87.29628273210035 87.27430873466398 87.23036073979125 87.20838674235489 87.14246475004578 87.12049075260941 87.07654275773669 87.03259476286395 87.03259476286395 86.96667277055485 86.94469877311849 86.90075077824574 86.87877678080937 86.87877678080937 86.90075077824574 86.87877678080937 86.87877678080937 86.90075077824574 86.90075077824574 86.90075077824574 86.90075077824574 86.90075077824574 86.90075077824574 86.90075077824574 86.90075077824574 86.90075077824574 86.90075077824574 86.90075077824574 86.90075077824574 86.90075077824574 86.9227247756821 86.90075077824574 86.9227247756821 86.90075077824574 86.9227247756821 86.9227247756821 86.90075077824574 86.90075077824574 86.90075077824574 86.90075077824574 86.90075077824574 86.90075077824574 86.90075077824574 86.90075077824574 86.90075077824574 86.87877678080937 86.87877678080937 86.85680278337301 86.83482878593665 86.81285478850029 86.81285478850029 86.81285478850029 86.7908807910639 86.7908807910639 86.76890679362754 86.74693279619117 86.72495879875481 86.70298480131844 86.63706280900934 86.59311481413661 86.54916681926387 86.50521882439114 86.48324482695477 86.46127082951841 86.41732283464567 86.37337483977294 86.37337483977294 86.32942684490021 86.28547885002747 86.24153085515474 86.15363486540927 86.06573887566381 85.97784288591834 85.88994689617286 85.8020509064274 85.62625892693646 85.45046694744553 85.23072697308186 85.01098699871818 84.87914301409998 84.63742904229994 84.46163706280902 84.21992309100898 83.95623512177258 83.69254715253618 83.51675517304523 83.23109320637246 83.01135323200879 82.70371726789965 82.35213330891779 82.08844533968139 81.67093938839041 81.18751144479035 80.85790148324483 80.30855154733565 79.91301959348105 79.12195568577184 78.6824757370445 78.33089177806264 77.75956784471708 76.96850393700788 76.5509979857169 76.00164804980773 75.5621681010804 74.99084416773485 74.50741622413477 74.13385826771653 73.2329243728255 72.57370444973449 72.13422450100714 71.47500457791614 71.05749862662516 70.42025270097052 69.6951107855704 69.16773484709759 68.35469694195203 67.47573704449735 66.83849111884271 65.67386925471524 65.10254532136972 64.59714338033328 63.476469511078555 63.16883354696942 62.37776963926021 61.63065372642373 60.86156381615089 60.202343893059876 59.69694195202344 59.1256180186779 58.51034609045962 58.02691814685955 57.30177623145944 56.752426295550265 55.917414392968325 55.28016846731368 55.30214246475005 54.55502655191357 53.851858633949824 53.412378685222485 52.928950741622415 52.423548800585976 51.83025086980406 51.01721296465848 50.62168101080388 50.028383080021975 49.4131111518037 49.171397180003666 48.60007324665812 47.94085332356711 47.2816334004761 46.556491485075995 46.07306354147592 45.36989562351218 44.66672770554844 44.16132576451199 43.45815784654825 42.95275590551181 42.2276139901117 41.48049807727523 41.019044131111514 40.096136238784105 39.41494231825673 38.95348837209302 38.49203442592932 38.05255447720198 37.5691265336019 37.063724592565464 36.58029664896539 36.14081670023805 35.76725874381981 35.52554477201978 35.30580479765611 35.10803882072881 34.69053286943783 34.33894891045596 34.11920893609229 33.81157297198315 33.48196301043765 33.218275041201245 32.82274308734664 32.55905511811024 32.16352316425563 31.74601721296466 31.482329243728255 31.08679728987365 30.823109320637247 30.36165537447354 30.119941402673504 29.8562534334371 29.54861746932796 29.153085515473357 28.97729353598242 28.669657571873284 28.449917597509614 28.142281633400476 27.96648965390954 27.87859366416407 27.790697674418606 27.702801684673137 27.658853689800402 27.570957700054933 27.527009705182202 27.483061710309467 27.417139718000367 27.395165720564 27.329243728254898 27.285295733382164 27.263321735945798 27.219373741073063 27.17542574620033 27.10950375389123 27.04358176158213 26.97765976927303 26.88976377952756 26.73594579747299 26.67002380516389 26.538179820545686 26.45028383080022 26.29646584874565 26.23054385643655 26.208569859000182 26.208569859000182 26.186595861563816 26.186595861563816 26.14264786669108 26.120673869254716 26.054751876945616 25.988829884636512 25.944881889763778 25.900933894891047 25.878959897454678 25.835011902581943 25.813037905145578 25.791063907709212 25.769089910272843 25.747115912836477 25.72514191540011 25.72514191540011 25.72514191540011 25.703167917963743 25.703167917963743 25.681193920527377 25.65921992309101 25.615271928218274 25.615271928218274 25.593297930781908 25.571323933345543 25.549349935909174 25.50540194103644 25.50540194103644 25.483427943600073 25.461453946163708 25.461453946163708 25.43947994872734 25.43947994872734 25.43947994872734 25.43947994872734 25.43947994872734 25.417505951290973 25.417505951290973 25.417505951290973 25.417505951290973 25.417505951290973 25.417505951290973 25.417505951290973 25.417505951290973 25.395531953854604 25.417505951290973 25.395531953854604 25.395531953854604 25.395531953854604 25.395531953854604 25.395531953854604 25.395531953854604 25.395531953854604 25.395531953854604 25.395531953854604 25.37355795641824 25.37355795641824 25.37355795641824 25.37355795641824 25.37355795641824 25.37355795641824 25.37355795641824 25.37355795641824 25.37355795641824 25.37355795641824 25.37355795641824 25.37355795641824 25.37355795641824 25.37355795641824 25.37355795641824 25.37355795641824 25.37355795641824 25.37355795641824 25.37355795641824 25.395531953854604 25.37355795641824 25.395531953854604 25.37355795641824 25.37355795641824 25.37355795641824 25.395531953854604 25.37355795641824 25.37355795641824 25.37355795641824 25.37355795641824 25.37355795641824 25.37355795641824 25.37355795641824 25.37355795641824 25.37355795641824 25.37355795641824 25.37355795641824 25.37355795641824 25.37355795641824 25.37355795641824 25.35158395898187 25.35158395898187 25.37355795641824 25.35158395898187 25.35158395898187 25.35158395898187 25.35158395898187 25.35158395898187 25.35158395898187 25.35158395898187 25.35158395898187 25.35158395898187 25.35158395898187 25.35158395898187 25.35158395898187 25.329609961545504 25.329609961545504 25.35158395898187 25.329609961545504 25.329609961545504 25.35158395898187 25.329609961545504 25.35158395898187 25.35158395898187 25.329609961545504 25.35158395898187 25.329609961545504 25.329609961545504 25.329609961545504 25.329609961545504 25.329609961545504 25.329609961545504 25.329609961545504 25.329609961545504 25.329609961545504 25.329609961545504 25.329609961545504 25.329609961545504 25.329609961545504 25.329609961545504 25.329609961545504 25.329609961545504 25.329609961545504 25.329609961545504 25.329609961545504 25.329609961545504 25.329609961545504 25.329609961545504 25.30763596410914 25.329609961545504 25.329609961545504 25.30763596410914 25.30763596410914 25.30763596410914 25.30763596410914 25.30763596410914 25.30763596410914 25.30763596410914 25.30763596410914 25.30763596410914 25.30763596410914 25.30763596410914 25.30763596410914 25.30763596410914 25.30763596410914 25.30763596410914 25.30763596410914 25.28566196667277 25.30763596410914 25.30763596410914 25.28566196667277 25.28566196667277 25.28566196667277 25.28566196667277 25.28566196667277 25.28566196667277 25.28566196667277 25.28566196667277 25.28566196667277 25.28566196667277 25.28566196667277 25.28566196667277 25.28566196667277 25.28566196667277 25.28566196667277 25.28566196667277 25.28566196667277 25.28566196667277 25.28566196667277 25.28566196667277 25.28566196667277 25.28566196667277 25.263687969236404 25.28566196667277 25.28566196667277 25.28566196667277 25.28566196667277 25.28566196667277 25.28566196667277 25.28566196667277 25.28566196667277 25.28566196667277 25.28566196667277 25.263687969236404 25.263687969236404 25.263687969236404 25.263687969236404 25.263687969236404 25.263687969236404 25.263687969236404 25.263687969236404 25.263687969236404 25.263687969236404 25.263687969236404 25.263687969236404 25.263687969236404 25.263687969236404 25.263687969236404 25.263687969236404 25.263687969236404 25.263687969236404 25.263687969236404 25.263687969236404 25.241713971800035 25.263687969236404 25.263687969236404 25.241713971800035 25.263687969236404 25.241713971800035 25.241713971800035 25.263687969236404 25.263687969236404 25.263687969236404 25.241713971800035 25.241713971800035 25.241713971800035 25.241713971800035 25.241713971800035 25.241713971800035 25.241713971800035 25.241713971800035 25.241713971800035 25.21973997436367 25.241713971800035 25.241713971800035 25.241713971800035 25.21973997436367 25.241713971800035 25.241713971800035 25.241713971800035 25.21973997436367 25.241713971800035 25.241713971800035 25.241713971800035 25.241713971800035 25.241713971800035 25.241713971800035 25.241713971800035 25.241713971800035 25.241713971800035 25.263687969236404 25.263687969236404 25.263687969236404 25.28566196667277 25.28566196667277 25.28566196667277 25.30763596410914 25.30763596410914 25.329609961545504 25.329609961545504 25.329609961545504 25.35158395898187 25.37355795641824 25.395531953854604 25.417505951290973 25.461453946163708 25.50540194103644 25.571323933345543 25.65921992309101 25.72514191540011 25.856985900018312 25.900933894891047 26.032777879509247 26.164621864127447 26.252517853872916 26.36238784105475 26.494231825672955 26.560153817982055 26.67002380516389 26.757919794909355 26.867789782091194 26.97765976927303 27.04358176158213 27.131477751327594 27.285295733382164 27.351217725691264 27.461087712873102 27.636879692364037 27.81267167185497 28.010437648782275 28.142281633400476 28.31807361289141 28.49386559238235 28.62570957700055 28.933345541109688 29.219007507782457 29.592565464200696 30.054019410364404 30.383629371909905 30.932979307819082 31.46035524629189 31.921809192455594 32.66892510529207 33.196301043764876 33.98736495147409 35.0421168284197 35.56949276689251 36.338582677165356 37.063724592565464 37.54715253616554 37.98663248489288 38.62387841054752 39.26112433620216 39.8324482695477 40.227980223402305 40.79930415674785 41.59036806445706 41.94195202343893 42.35945797472991 42.75498992858451 43.348287859366415 43.98553378502106 44.44698773118476 45.43581761582128 45.94121955685772 46.79820545687603 47.4134773850943 48.00677531587621 48.88573521333089 49.940487090276505 50.29207104925838 51.149056949276684 51.8741988646768 52.81908075444058 53.412378685222485 54.11554660318623 55.34609045962278 56.400842336568395 57.060062259659404 58.09284013916865 59.03772202893243 59.718915949459806 60.61984984435085 61.27906976744186 62.18000366233291 63.124885552096686 63.718183482878594 64.48727339315144 65.25636330342428 65.9815052188244 66.5088811572972 66.92638710858817 67.58560703167919 68.24482695477019 68.68430690349753 69.58524079838858 70.00274674967955 70.68394067020692 71.07947262406154 71.6288225599707 72.20014649331624 72.81541842153452 73.27687236769822 74.00201428309833 74.41952023438931 75.10071415491669 75.957700054935 76.44112799853508 77.10034792162608 77.78154184215344 78.24299578831716 78.92418970884452 79.36366965757188 80.30855154733565 80.83592748580847 81.2754074345358 81.84673136788135 82.61582127815419 82.96740523713606 83.4728071781725 83.82439113715438 84.37374107306354 84.90111701153634 85.27467496795458 85.78007690899102 86.10968687053654 86.59311481413661 87.03259476286395 87.31825672953671 87.69181468595497 88.04339864493683 88.26313861930049 88.52682658853689 88.70261856802784 88.9223585423915 89.12012451931881 89.20802050906427 89.27394250137338 89.40578648599158 89.42776048342795 89.49368247573705 89.51565647317341 89.51565647317341 89.51565647317341 89.51565647317341 89.51565647317341 89.51565647317341 89.51565647317341 89.51565647317341 89.53763047060978 89.51565647317341 89.51565647317341 89.49368247573705 89.49368247573705 89.44973448086431 89.44973448086431 89.40578648599158 89.38381248855521 89.38381248855521 89.38381248855521 89.38381248855521 89.38381248855521 89.38381248855521 89.38381248855521 89.36183849111885 89.33986449368247 89.29591649880975 89.27394250137338 89.27394250137338 89.27394250137338 89.25196850393701 89.25196850393701 89.22999450650065 89.22999450650065 89.20802050906427 89.14209851675518 89.14209851675518 89.09815052188245 89.07617652444607 89.0542025270097 89.0542025270097 89.03222852957333 88.9882805347006 88.96630653726424 88.94433253982787 88.96630653726424 88.96630653726424 88.96630653726424 88.94433253982787 88.96630653726424 88.96630653726424 88.94433253982787 88.94433253982787 88.9223585423915 88.87841054751877 88.8564365500824 88.81248855520967 88.7905145577733 88.76854056033693 88.7905145577733 88.76854056033693 88.76854056033693 88.7905145577733 88.76854056033693 88.76854056033693 88.76854056033693 88.7905145577733 88.76854056033693 88.74656656290057 88.74656656290057 88.7245925654642 88.70261856802784 88.6586705731551 88.61472257828237 88.61472257828237 88.61472257828237 88.61472257828237 88.61472257828237 88.61472257828237 88.61472257828237 88.592748580846 88.61472257828237 88.61472257828237 88.61472257828237 88.592748580846 88.61472257828237 88.592748580846 88.61472257828237 88.61472257828237 88.61472257828237 88.61472257828237 88.592748580846 88.61472257828237 88.592748580846 88.61472257828237 88.61472257828237 88.592748580846 88.592748580846 88.61472257828237 88.592748580846 88.592748580846 88.61472257828237 88.592748580846 88.592748580846 88.592748580846 88.592748580846 88.592748580846 88.57077458340964 88.57077458340964 88.54880058597325 88.54880058597325 88.52682658853689 88.52682658853689 88.50485259110053 88.50485259110053 88.48287859366417 88.43893059879144 88.43893059879144 88.43893059879144 88.41695660135505 88.39498260391869 88.37300860648233 88.35103460904597 88.35103460904597 88.35103460904597 88.32906061160959 88.30708661417323 88.30708661417323 88.30708661417323 88.30708661417323 88.30708661417323 88.30708661417323 88.30708661417323 88.30708661417323 88.30708661417323 88.30708661417323 88.30708661417323 88.30708661417323 88.30708661417323 88.30708661417323 88.28511261673685 88.28511261673685 88.28511261673685 88.28511261673685 88.28511261673685 88.28511261673685 88.26313861930049 88.28511261673685 88.26313861930049 88.28511261673685 88.26313861930049 88.26313861930049 88.26313861930049 88.26313861930049 88.26313861930049 88.26313861930049 88.26313861930049 88.24116462186413 88.21919062442777 88.19721662699139 88.17524262955503 88.17524262955503 88.17524262955503 88.17524262955503 88.15326863211865 88.15326863211865 88.15326863211865 88.15326863211865 88.15326863211865 88.15326863211865 88.13129463468229 88.15326863211865 88.13129463468229 88.13129463468229 88.13129463468229 88.13129463468229 88.13129463468229 88.13129463468229 88.13129463468229 88.13129463468229 88.13129463468229 88.13129463468229 88.13129463468229 88.10932063724593 88.13129463468229 88.10932063724593 88.10932063724593 88.08734663980957 88.06537264237319 88.04339864493683 88.02142464750045 87.99945065006409 87.97747665262773 87.93352865775499 87.88958066288225 87.86760666544589 87.80168467313679 87.77971067570043 87.73576268082769 87.73576268082769 87.73576268082769 87.71378868339133 87.69181468595497 87.69181468595497 87.69181468595497 87.69181468595497 87.71378868339133 87.69181468595497 87.71378868339133 87.69181468595497 87.71378868339133 87.71378868339133 87.71378868339133 87.69181468595497 87.69181468595497 87.71378868339133 87.69181468595497 87.69181468595497 87.69181468595497 87.69181468595497 87.69181468595497 87.69181468595497 87.66984068851858 87.64786669108221 87.64786669108221 87.60391869620949 87.60391869620949 87.55997070133675 87.55997070133675 87.53799670390038 87.51602270646401 87.47207471159129 87.42812671671855 87.40615271928218 87.34023072697309 87.34023072697309 87.29628273210035 87.27430873466398 87.25233473722761 87.20838674235489 87.16443874748215 87.14246475004578 87.07654275773669 87.07654275773669 87.03259476286395 87.03259476286395 86.98864676799121 86.94469877311849 86.87877678080937 86.74693279619117 86.59311481413661 86.5271928218275 86.35140084233657 86.19758286028201 85.9338948910456 85.7361289141183 85.58231093206373 85.36257095770006 85.09888298846366 84.94506500640908 84.65940303973632 84.46163706280902 84.1979490935726 83.91228712689984 83.7364951474089 83.4728071781725 83.12122321919063 83.03332722944516 82.76963926020875 82.59384728071782 82.28621131660869 81.97857535249955 81.75883537813587 81.2754074345358 80.87987548068119 80.59421351400843 80.35249954220839 79.93499359091741 79.51748763962644 79.07800769089911 78.77037172678996 78.30891778062626 77.84746383446256 77.53982787035342 77.10034792162608 76.79271195751694 76.3532320087896 75.89177806262589 75.58414209851676 75.12268815235305 74.74913019593481 74.15583226515291 73.84819630104377 73.4966123420619 73.01318439846182 72.37593847280718 72.00238051638894 71.56290056766161 71.25526460355246 70.77183665995238 70.46420069584326 69.98077275224318 69.4973448086431 69.01391686504303 68.7062809009339 68.17890496246109 67.82732100347921 67.29994506500641 66.72862113166087 66.39901117011536 65.8496612342062 65.32228529573338 64.99267533418788 64.33345541109688 63.981871452114994 63.652261490569494 63.146859549533055 62.79527559055118 62.20197765976927 61.45486174693279 61.01538179820545 60.53195385460538 60.158395898187145 59.54312396996887 59.14759201611427 58.55429408533236 57.87310016480498 57.191906244277604 56.752426295550265 56.22505035707746 55.87346639809559 55.01648049807727 54.5330525544772 54.071598608313494 53.478300677531585 52.81908075444058 52.357626808276876 51.36879692364036 50.92931697491302 50.35799304156748 49.874565097967405 49.544955136421905 48.97363120307636 48.35835927485809 47.74308734663981 47.193737410730634 46.754257462003295 46.16095953122139 45.58963559787585 45.36989562351218 45.36989562351218 45.28199963376671 45.0183116645303 44.6887017029848 44.44698773118476 44.05145577733016 43.502105841420985 43.304339864493684 42.90880791063908 42.60117194652994 42.1616919978026 41.72221204907526 41.41457608496612 40.84325215162058 40.403772202893244 40.162058231093205 39.8324482695477 39.458890313129466 39.19520234389306 38.66782640542025 38.38216443874748 37.98663248489288 37.52517853872917 37.28346456692913 36.865958615638164 36.58029664896539 36.20673869254715 35.78923274125618 35.52554477201978 35.15198681560154 34.7784288591833 34.51474088994689 34.18513092840139 33.943416956601354 33.591832997619484 33.240249038637614 33.04248306171031 32.60300311298297 32.27339315143747 32.09760117194653 31.855887200146494 31.548251236037355 31.262589269364586 30.998901300128182 30.823109320637247 30.58139534883721 30.339681377037174 30.185863394982604 29.966123420618935 29.812305438564366 29.592565464200696 29.328877494964292 29.087163523164257 28.889397546236953 28.64768357443692 28.581761582127815 28.47189159494598 28.40596960263688 28.27412561801868 28.16425563083684 28.076359641091376 27.96648965390954 27.87859366416407 27.768723676982237 27.68082768723677 27.548983702618568 27.395165720564 27.241347738509432 27.131477751327594 26.97765976927303 26.88976377952756 26.757919794909355 26.648049807727524 26.560153817982055 26.472257828236586 26.472257828236586 26.472257828236586 26.472257828236586 26.472257828236586 26.472257828236586 26.472257828236586 26.472257828236586 26.472257828236586 26.472257828236586 26.42830983336385 26.42830983336385 26.42830983336385 26.42830983336385 26.42830983336385 26.42830983336385 26.406335835927486 26.406335835927486 26.406335835927486 26.38436183849112 26.36238784105475 26.340413843618386 26.318439846182017 26.318439846182017 26.29646584874565 26.29646584874565 26.29646584874565 26.29646584874565 26.29646584874565 26.29646584874565 26.274491851309286 26.29646584874565 26.29646584874565 26.29646584874565 26.29646584874565 26.274491851309286 26.274491851309286 26.274491851309286 26.274491851309286 26.274491851309286 26.274491851309286 26.274491851309286 26.274491851309286 26.274491851309286 26.274491851309286 26.274491851309286 26.274491851309286 26.274491851309286 26.252517853872916 26.252517853872916 26.252517853872916 26.252517853872916 26.252517853872916 26.252517853872916 26.252517853872916 26.252517853872916 26.252517853872916 26.252517853872916 26.23054385643655 26.23054385643655 26.23054385643655 26.23054385643655 26.23054385643655 26.208569859000182 26.208569859000182 26.208569859000182 26.208569859000182 26.208569859000182 26.208569859000182 26.208569859000182 26.208569859000182 26.208569859000182 26.186595861563816 26.208569859000182 26.186595861563816 26.186595861563816 26.186595861563816 26.186595861563816 26.186595861563816 26.186595861563816 26.186595861563816 26.186595861563816 26.186595861563816 26.186595861563816 26.186595861563816 26.186595861563816 26.186595861563816 26.186595861563816 26.186595861563816 26.186595861563816 26.186595861563816 26.186595861563816 26.186595861563816 26.186595861563816 26.164621864127447 26.186595861563816 26.164621864127447 26.186595861563816 26.186595861563816 26.164621864127447 26.164621864127447 26.164621864127447 26.164621864127447 26.164621864127447 26.164621864127447 26.164621864127447 26.164621864127447 26.14264786669108 26.164621864127447 26.14264786669108 26.14264786669108 26.14264786669108 26.14264786669108 26.14264786669108 26.14264786669108 26.14264786669108 26.14264786669108 26.14264786669108 26.14264786669108 26.14264786669108 26.14264786669108 26.14264786669108 26.14264786669108 26.14264786669108 26.120673869254716 26.14264786669108 26.14264786669108 26.14264786669108 26.14264786669108 26.120673869254716 26.120673869254716 26.120673869254716 26.120673869254716 26.120673869254716 26.14264786669108 26.120673869254716 26.120673869254716 26.120673869254716 26.120673869254716 26.120673869254716 26.120673869254716 26.120673869254716 26.120673869254716 26.120673869254716 26.120673869254716 26.120673869254716 26.120673869254716 26.120673869254716 26.120673869254716 26.120673869254716 26.120673869254716 26.120673869254716 26.120673869254716 26.120673869254716 26.120673869254716 26.120673869254716 26.120673869254716 26.120673869254716 26.098699871818347 26.120673869254716 26.120673869254716 26.120673869254716 26.120673869254716 26.098699871818347 26.098699871818347 26.098699871818347 26.098699871818347 26.098699871818347 26.07672587438198 26.098699871818347 26.098699871818347 26.098699871818347 26.098699871818347 26.07672587438198 26.07672587438198 26.07672587438198 26.07672587438198 26.07672587438198 26.07672587438198 26.07672587438198 26.07672587438198 26.07672587438198 26.098699871818347 26.07672587438198 26.07672587438198 26.07672587438198 26.07672587438198 26.07672587438198 26.098699871818347 26.098699871818347 26.07672587438198 26.098699871818347 26.098699871818347 26.098699871818347 26.098699871818347 26.098699871818347 26.098699871818347 26.120673869254716 26.120673869254716 26.120673869254716 26.14264786669108 26.14264786669108 26.14264786669108 26.14264786669108 26.164621864127447 26.164621864127447 26.164621864127447 26.164621864127447 26.164621864127447 26.164621864127447 26.164621864127447 26.186595861563816 26.208569859000182 26.208569859000182 26.208569859000182 26.23054385643655 26.23054385643655 26.252517853872916 26.252517853872916 26.274491851309286 26.29646584874565 26.36238784105475 26.406335835927486 26.472257828236586 26.560153817982055 26.67002380516389 26.73594579747299 26.779893792345725 26.779893792345725 26.757919794909355 26.779893792345725 26.713971800036624 26.626075810291155 26.80186778978209 27.065555759018494 27.417139718000367 27.988463651345906 28.55978758469145 29.175059512909723 29.812305438564366 30.251785387291704 30.911005310382713 31.35048525911005 32.00970518220106 32.734847097601175 33.459989013001284 33.943416956601354 34.66855887200147 35.17396081303791 35.87712873100165 36.58029664896539 37.28346456692913 37.74491851309284 38.44808643105658 38.90954037722029 39.524812305438566 39.920344259293174 40.579564182384175 40.79930415674785 41.19483611060245 41.76616004394799 42.55722395165721 42.996703900384546 44.11737776963926 44.79857169016664 45.63358359274858 46.16095953122139 46.64438747482146 47.50137337483977 48.44625526460355 49.25929316974913 50.072331074894706 50.75352499542208 51.58853689800403 52.48947079289508 53.126716718549716 54.09357260574986 54.99450650064091 55.58780443142282 56.752426295550265 57.14795824940487 57.89507416224135 58.75206006225966 59.23548800585973 60.026551913568944 61.05932979307819 61.60867972898736 62.37776963926021 62.905145577733016 63.74015748031496 64.48727339315144 65.0366233290606 65.73979124702436 66.26716718549716 67.03625709577 67.84929500091559 68.39864493682475 69.32155282915217 69.98077275224318 70.46420069584326 71.14539461637062 71.60684856253434 72.2880424830617 73.27687236769822 73.80424830617103 74.55136421900751 75.38637612158945 75.91375206006227 76.44112799853508 77.10034792162608 77.73759384728072 78.33089177806264 78.72642373191724 79.25379967039004 79.78117560886285 80.19868156015382 80.61618751144479 80.92382347555393 81.31935542940855 81.67093938839041 81.89067936275407 82.33015931148142 82.59384728071782 82.76963926020875 83.01135323200879 83.23109320637246 83.53872917048159 83.95623512177258 84.17597509613624 84.48361106024538 84.81322102179088 85.01098699871818 85.45046694744553 85.69218091924556 85.91192089360922 86.19758286028201 86.41732283464567 86.76890679362754 87.03259476286395 87.29628273210035 87.42812671671855 87.55997070133675 87.75773667826405 87.95550265519137 88.10932063724593 88.32906061160959 88.63669657571873 88.81248855520967 89.01025453213697 89.20802050906427 89.51565647317341 89.77934444240981 90.06500640908259 90.28474638344626 90.41659036806446 90.61435634499176 90.7242263321736 90.90001831166454 91.00988829884636 91.07581029115548 91.1197582860282 91.14173228346456 91.14173228346456 91.1197582860282 91.1197582860282 91.07581029115548 91.00988829884636 90.9219923091009 90.8560703167918 90.81212232191906 90.74620032960996 90.61435634499176 90.54843435268266 90.50448635780992 90.43856436550082 90.39461637062809 90.37264237319172 90.35066837575536 90.328694378319 90.28474638344626 90.26277238600989 90.24079838857352 90.21882439113715 90.24079838857352 90.24079838857352 90.21882439113715 90.21882439113715 90.21882439113715 90.21882439113715 90.21882439113715 90.19685039370079 90.21882439113715 90.21882439113715 90.21882439113715 90.21882439113715 90.19685039370079 90.13092840139169 90.10895440395532 90.08698040651895 90.06500640908259 90.06500640908259 90.06500640908259 90.04303241164622 90.02105841420986 89.97711041933712 89.93316242446438 89.86724043215528 89.82329243728255 89.80131843984618 89.77934444240981 89.73539644753708 89.69144845266435 89.66947445522798 89.62552646035525 89.60355246291888 89.60355246291888 89.58157846548252 89.60355246291888 89.60355246291888 89.58157846548252 89.58157846548252 89.58157846548252 89.58157846548252 89.60355246291888 89.58157846548252 89.55960446804615 89.53763047060978 89.49368247573705 89.44973448086431 89.40578648599158 89.38381248855521 89.36183849111885 89.38381248855521 89.36183849111885 89.36183849111885 89.38381248855521 89.38381248855521 89.38381248855521 89.38381248855521 89.38381248855521 89.36183849111885 89.36183849111885 89.33986449368247 89.29591649880975 89.25196850393701 89.22999450650065 89.18604651162791 89.16407251419155 89.12012451931881 89.07617652444607 89.03222852957333 88.96630653726424 88.9223585423915 88.87841054751877 88.83446255264604 88.81248855520967 88.81248855520967 88.7905145577733 88.76854056033693 88.74656656290057 88.74656656290057 88.70261856802784 88.70261856802784 88.6586705731551 88.6586705731551 88.61472257828237 88.592748580846 88.52682658853689 88.52682658853689 88.48287859366417 88.4609045962278 88.43893059879144 88.43893059879144 88.41695660135505 88.39498260391869 88.37300860648233 88.35103460904597 88.30708661417323 88.28511261673685 88.24116462186413 88.15326863211865 88.10932063724593 88.08734663980957 88.02142464750045 87.97747665262773 87.93352865775499 87.86760666544589 87.80168467313679 87.73576268082769 87.66984068851858 87.62589269364585 87.55997070133675 87.51602270646401 87.49404870902765 87.47207471159129 87.45010071415491 87.45010071415491 87.42812671671855 87.42812671671855 87.40615271928218 87.42812671671855 87.40615271928218 87.40615271928218 87.42812671671855 87.42812671671855 87.42812671671855 87.47207471159129 87.47207471159129 87.47207471159129 87.42812671671855 87.40615271928218 87.40615271928218 87.36220472440945 87.31825672953671 87.29628273210035 87.27430873466398 87.25233473722761 87.23036073979125 87.20838674235489 87.18641274491851 87.16443874748215 87.14246475004578 87.12049075260941 87.09851675517305 87.09851675517305 87.09851675517305 87.09851675517305 87.09851675517305 87.09851675517305 87.09851675517305 87.07654275773669 87.05456876030031 87.03259476286395 87.03259476286395 86.98864676799121 86.98864676799121 86.96667277055485 86.94469877311849 86.94469877311849 86.94469877311849 86.94469877311849 86.94469877311849 86.94469877311849 86.94469877311849 86.94469877311849 86.94469877311849 86.94469877311849 86.94469877311849 86.94469877311849 86.94469877311849 86.94469877311849 86.94469877311849 86.94469877311849 86.94469877311849 86.94469877311849 86.90075077824574 86.87877678080937 86.87877678080937 86.85680278337301 86.85680278337301 86.83482878593665 86.81285478850029 86.7908807910639 86.7908807910639 86.7908807910639 86.7908807910639 86.7908807910639 86.7908807910639 86.7908807910639 86.7908807910639 86.7908807910639 86.74693279619117 86.72495879875481 86.68101080388207 86.63706280900934 86.61508881157297 86.57114081670024 86.57114081670024 86.5271928218275 86.50521882439114 86.50521882439114 86.50521882439114 86.50521882439114 86.50521882439114 86.50521882439114 86.50521882439114 86.5271928218275 86.5271928218275 86.54916681926387 86.54916681926387 86.57114081670024 86.57114081670024 86.54916681926387 86.54916681926387 86.54916681926387 86.54916681926387 86.54916681926387 86.54916681926387 86.54916681926387 86.54916681926387 86.54916681926387 86.54916681926387 86.50521882439114 86.50521882439114 86.48324482695477 86.3953488372093 86.37337483977294 86.32942684490021 86.2635048525911 86.24153085515474 86.21955685771837 86.19758286028201 86.15363486540927 86.1316608679729 86.1316608679729 86.02179088079106 85.97784288591834 85.88994689617286 85.8020509064274 85.64823292437282 85.538362937191 85.27467496795458 85.09888298846366 84.85716901666362 84.68137703717268 84.50558505768174 84.1979490935726 83.78044314228164 83.56070316791798 83.23109320637246 82.98937923457243 82.59384728071782 82.33015931148142 82.06647134224502 81.49514740889947 81.03369346273576 80.68210950375389 80.13275956784472 79.73722761399011 79.16590368064458 78.52865775498992 78.1550997985717 77.56180186778978 77.0124519318806 76.616919978026 76.0895440395532 75.49624610877129 74.90294817798939 74.44149423182567 74.06793627540745 73.45266434718917 72.55173045229812 72.11225050357078 71.38710858817066 70.9036806445706 70.11261673686138 69.32155282915217 68.7062809009339 67.98113898553379 67.47573704449735 66.7725691265336 66.00347921626076 65.47610327778796 64.92675334187878 64.04779344442409 63.608313495696756 63.124885552096686 62.66343160593298 61.87236769822377 61.49880974180553 61.10327778795092 60.246291887932614 59.56509796740524 59.08167002380517 58.57626808276872 57.80717817249588 57.41164621864127 56.884270280168465 56.620582310932065 56.13715436733199 55.58780443142282 55.17029848013185 54.55502655191357 54.137520600622594 53.478300677531585 52.797106757004215 52.24775682109504 51.65445889031313 50.90734297747665 50.46786302874931 49.808643105658305 49.2812671671855 48.60007324665812 47.69913935176707 47.2816334004761 46.86412744918513 46.16095953122139 45.74345357993042 45.30397363120308 45.0183116645303 44.7546236952939 44.46896172862113 44.271195751693824 44.05145577733016 43.831715802966485 43.721845815784654 43.48013184398462 43.348287859366415 43.172495879875484 42.97472990294818 42.798937923457245 42.40340596960264 42.0298480131844 41.76616004394799 41.48049807727523 41.21681010803882 40.77733015931148 40.184032228529574 39.8324482695477 39.41494231825673 38.99743636696576 38.40413843618385 38.27229445156565 38.14045046694744 37.78886650796557 37.415308551547334 37.1735945797473 36.865958615638164 36.646218641274494 36.09686870536532 35.83318073612892 35.48159677714705 34.88829884636513 34.47079289507416 34.25105292071049 33.98736495147409 33.767624977110415 33.48196301043765 33.196301043764876 32.82274308734664 32.581029115546606 32.07562717451016 31.833913202710125 31.52627723860099 31.30653726423732 31.08679728987365 30.889031312946347 30.603369346273574 30.339681377037174 29.9880974180553 29.76835744369163 29.460721479582496 29.19703351034609 29.087163523164257 28.867423548800588 28.669657571873284 28.16425563083684 27.768723676982237 27.790697674418606 27.702801684673137 27.527009705182202 27.395165720564 27.241347738509432 27.17542574620033 27.065555759018494 26.911737776963925 26.82384178721846 26.626075810291155 26.472257828236586 26.29646584874565 26.208569859000182 26.164621864127447 26.120673869254716 26.164621864127447 26.274491851309286 26.472257828236586 26.538179820545686 26.60410181285479 26.58212781541842 26.538179820545686 26.472257828236586 26.406335835927486 26.38436183849112 26.406335835927486 26.406335835927486 26.38436183849112 26.38436183849112 26.38436183849112 26.38436183849112 26.38436183849112 26.36238784105475 26.36238784105475 26.340413843618386 26.318439846182017 26.274491851309286 26.274491851309286 26.274491851309286 26.274491851309286 26.274491851309286 26.252517853872916 26.23054385643655 26.23054385643655 26.23054385643655 26.208569859000182 26.208569859000182 26.186595861563816 26.186595861563816 26.164621864127447 26.164621864127447 26.164621864127447 26.14264786669108 26.164621864127447 26.14264786669108 26.14264786669108 26.14264786669108 26.14264786669108 26.120673869254716 26.120673869254716 26.098699871818347 26.098699871818347 26.098699871818347 26.120673869254716 26.120673869254716 26.098699871818347 26.098699871818347 26.098699871818347 26.098699871818347 26.098699871818347 26.098699871818347 26.07672587438198 26.07672587438198 26.07672587438198 26.07672587438198 26.07672587438198 26.07672587438198 26.07672587438198 26.07672587438198 26.07672587438198 26.07672587438198 26.07672587438198 26.07672587438198 26.07672587438198 26.07672587438198 26.07672587438198 26.07672587438198 26.07672587438198 26.07672587438198 26.07672587438198 26.07672587438198 26.07672587438198 26.07672587438198 26.07672587438198 26.07672587438198 26.07672587438198 26.07672587438198 26.07672587438198 26.07672587438198 26.07672587438198 26.07672587438198 26.07672587438198 26.07672587438198 26.07672587438198 26.07672587438198 26.07672587438198 26.07672587438198 26.07672587438198 26.07672587438198 26.07672587438198 26.07672587438198 26.07672587438198 26.07672587438198 26.07672587438198 26.07672587438198 26.07672587438198 26.07672587438198 26.07672587438198 26.054751876945616 26.07672587438198 26.07672587438198 26.07672587438198 26.07672587438198 26.07672587438198 26.07672587438198 26.054751876945616 26.054751876945616 26.054751876945616 26.054751876945616 26.054751876945616 26.054751876945616 26.054751876945616 26.054751876945616 26.054751876945616 26.054751876945616 26.054751876945616 26.054751876945616 26.054751876945616 26.054751876945616 26.054751876945616 26.054751876945616 26.054751876945616 26.054751876945616 26.054751876945616 26.054751876945616 26.054751876945616 26.054751876945616 26.054751876945616 26.054751876945616 26.054751876945616 26.032777879509247 26.032777879509247 26.032777879509247 26.032777879509247 26.032777879509247 26.032777879509247 26.032777879509247 26.032777879509247 26.032777879509247 26.032777879509247 26.032777879509247 26.032777879509247 26.032777879509247 26.032777879509247 26.032777879509247 26.032777879509247 26.032777879509247 26.032777879509247 26.032777879509247 26.032777879509247 26.032777879509247 26.032777879509247 26.032777879509247 26.032777879509247 26.032777879509247 26.032777879509247 26.032777879509247 26.032777879509247 26.032777879509247 26.032777879509247 26.032777879509247 26.032777879509247 26.032777879509247 26.01080388207288 26.032777879509247 26.032777879509247 26.01080388207288 26.01080388207288 26.01080388207288 26.01080388207288 26.01080388207288 26.01080388207288 26.01080388207288 26.01080388207288 26.01080388207288 26.01080388207288 26.01080388207288 26.01080388207288 26.01080388207288 26.01080388207288 26.01080388207288 26.01080388207288 26.01080388207288 26.01080388207288 26.01080388207288 25.988829884636512 26.01080388207288 25.988829884636512 25.988829884636512 25.988829884636512 25.988829884636512 25.988829884636512 25.988829884636512 25.988829884636512 25.988829884636512 25.988829884636512 25.988829884636512 25.988829884636512 25.988829884636512 25.966855887200147 25.966855887200147 25.966855887200147 25.966855887200147 25.966855887200147 25.966855887200147 25.966855887200147 25.966855887200147 25.966855887200147 25.966855887200147 25.944881889763778 25.944881889763778 25.944881889763778 25.944881889763778 25.944881889763778 25.944881889763778 25.944881889763778 25.944881889763778 25.922907892327412 25.922907892327412 25.944881889763778 25.922907892327412 25.922907892327412 25.922907892327412 25.922907892327412 25.922907892327412 25.922907892327412 25.922907892327412 25.922907892327412 25.922907892327412 25.922907892327412 25.922907892327412 25.922907892327412 25.922907892327412 25.922907892327412 25.922907892327412 25.922907892327412 25.922907892327412 25.944881889763778 25.922907892327412 25.944881889763778 25.944881889763778 25.944881889763778 25.944881889763778 25.944881889763778 25.944881889763778 25.944881889763778 25.944881889763778 25.966855887200147 25.966855887200147 25.988829884636512 26.01080388207288 26.01080388207288 26.01080388207288 26.01080388207288 26.01080388207288 26.032777879509247 26.032777879509247 26.01080388207288 25.988829884636512 25.856985900018312 25.37355795641824 23.76945614356345 23.242080205090645 23.32997619483611 23.48379417689068 23.70353415125435 23.85735213330892 23.945248123054384 23.98919611792712 24.055118110236222 24.077092107672588 24.077092107672588 24.121040102545322 24.252884087163523 24.450650064090826 24.450650064090826 24.406702069218092 24.472624061527192 24.516572056399927 24.604468046145396 24.758286028199965 25.15381798205457 26.42830983336385 27.724775682109502 28.49386559238235 28.71360556674602 29.219007507782457 29.944149423182566 30.713239333455412 31.43838124885552 31.94378318989196 32.581029115546606 33.350119025819446 33.92144295916499 34.6465848745651 35.17396081303791 35.921076725874386 36.668192638710856 37.041750595129095 37.4372825489837 38.44808643105658 39.04138436183849 39.612708295184035 40.184032228529574 41.37062809009339 42.60117194652994 43.128547885002746 44.22724775682109 44.8864676799121 45.74345357993042 46.57846548251236 47.65519135689434 48.66599523896723 49.676799121040105 50.533785021058414 51.43471891594946 52.04999084416774 53.01684673136788 53.961728621131655 54.55502655191357 55.65372642373192 56.664530305804796 57.36769822376854 58.51034609045962 58.81798205456876 59.674967954587075 60.509979857169014 61.21314777513276 62.13605566746017 63.366599523896724 64.00384544955136 64.99267533418788 65.62992125984252 66.5748031496063 67.25599707013367 68.24482695477019 69.21168284197034 70.13459073429775 70.74986266251602 71.56290056766161 72.17817249587988 73.12305438564366 73.95806628822561 74.50741622413477 75.38637612158945 76.17744002929867 76.90258194469877 77.56180186778978 78.00128181651712 78.63852774217176 79.07800769089911 79.56143563449919 80.08881157297199 80.87987548068119 81.2754074345358 81.80278337300861 82.13239333455411 82.63779527559055 83.0772752243179 83.38491118842703 83.78044314228164 84.15400109869987 84.37374107306354 84.65940303973632 84.83519501922726 85.18677897820913 85.45046694744553 85.56033693462736 85.91192089360922 86.10968687053654 86.32942684490021 86.72495879875481 86.94469877311849 87.31825672953671 87.49404870902765 87.60391869620949 87.86760666544589 88.04339864493683 88.37300860648233 88.57077458340964 88.68064457059147 88.81248855520967 88.9223585423915 89.01025453213697 89.09815052188245 89.18604651162791 89.25196850393701 89.29591649880975 89.31789049624611 89.31789049624611 89.33986449368247 89.33986449368247 89.33986449368247 89.33986449368247 89.33986449368247 89.33986449368247 89.31789049624611 89.31789049624611 89.31789049624611 89.31789049624611 89.31789049624611 89.29591649880975 89.29591649880975 89.27394250137338 89.20802050906427 89.18604651162791 89.16407251419155 89.12012451931881 89.07617652444607 89.0542025270097 89.01025453213697 88.96630653726424 88.9223585423915 88.87841054751877 88.81248855520967 88.74656656290057 88.7245925654642 88.70261856802784 88.6586705731551 88.61472257828237 88.61472257828237 88.61472257828237 88.61472257828237 88.61472257828237 88.61472257828237 88.61472257828237 88.61472257828237 88.61472257828237 88.592748580846 88.52682658853689 88.50485259110053 88.48287859366417 88.4609045962278 88.41695660135505 88.39498260391869 88.37300860648233 88.35103460904597 88.32906061160959 88.30708661417323 88.28511261673685 88.26313861930049 88.24116462186413 88.24116462186413 88.21919062442777 88.19721662699139 88.19721662699139 88.17524262955503 88.15326863211865 88.08734663980957 88.08734663980957 88.06537264237319 88.04339864493683 88.04339864493683 88.04339864493683 88.02142464750045 87.99945065006409 87.99945065006409 87.99945065006409 87.99945065006409 87.99945065006409 87.99945065006409 87.99945065006409 87.99945065006409 87.97747665262773 87.95550265519137 87.95550265519137 87.91155466031863 87.86760666544589 87.82365867057317 87.80168467313679 87.80168467313679 87.77971067570043 87.77971067570043 87.73576268082769 87.71378868339133 87.71378868339133 87.71378868339133 87.69181468595497 87.69181468595497 87.64786669108221 87.60391869620949 87.58194469877311 87.53799670390038 87.51602270646401 87.49404870902765 87.45010071415491 87.42812671671855 87.42812671671855 87.42812671671855 87.42812671671855 87.42812671671855 87.42812671671855 87.42812671671855 87.42812671671855 87.42812671671855 87.42812671671855 87.40615271928218 87.42812671671855 87.40615271928218 87.40615271928218 87.38417872184581 87.38417872184581 87.38417872184581 87.38417872184581 87.38417872184581 87.38417872184581 87.38417872184581 87.38417872184581 87.38417872184581 87.34023072697309 87.34023072697309 87.27430873466398 87.25233473722761 87.23036073979125 87.20838674235489 87.20838674235489 87.20838674235489 87.18641274491851 87.18641274491851 87.16443874748215 87.12049075260941 87.12049075260941 87.07654275773669 87.07654275773669 87.03259476286395 87.01062076542757 86.96667277055485 86.94469877311849 86.90075077824574 86.87877678080937 86.85680278337301 86.83482878593665 86.81285478850029 86.7908807910639 86.81285478850029 86.7908807910639 86.81285478850029 86.81285478850029 86.81285478850029 86.7908807910639 86.81285478850029 86.7908807910639 86.7908807910639 86.76890679362754 86.74693279619117 86.72495879875481 86.68101080388207 86.68101080388207 86.63706280900934 86.63706280900934 86.61508881157297 86.61508881157297 86.63706280900934 86.63706280900934 86.63706280900934 86.63706280900934 86.63706280900934 86.63706280900934 86.63706280900934 86.63706280900934 86.63706280900934 86.63706280900934 86.63706280900934 86.63706280900934 86.63706280900934 86.63706280900934 86.6590368064457 86.63706280900934 86.63706280900934 86.6590368064457 86.6590368064457 86.63706280900934 86.6590368064457 86.6590368064457 86.6590368064457 86.6590368064457 86.63706280900934 86.63706280900934 86.6590368064457 86.63706280900934 86.63706280900934 86.6590368064457 86.63706280900934 86.6590368064457 86.63706280900934 86.63706280900934 86.63706280900934 86.59311481413661 86.46127082951841 86.32942684490021 86.21955685771837 86.06573887566381 85.9338948910456 85.71415491668193 85.49441494231826 85.36257095770006 85.14283098333638 84.94506500640908 84.79124702435452 84.57150704999086 84.35176707562718 84.11005310382714 83.91228712689984 83.7364951474089 83.3409631935543 83.03332722944516 82.83556125251786 82.46200329609962 82.19831532686322 81.80278337300861 81.36330342428127 81.05566746017213 80.55026551913569 80.22065555759019 79.69327961911739 79.20985167551731 78.8802417139718 78.39681377037172 77.93535982420804 77.58377586522616 77.16626991393517 76.90258194469877 76.44112799853508 75.8258560703168 75.47427211133493 74.99084416773485 74.46346822926205 74.26570225233473 73.58450833180737 73.14502838308002 72.55173045229812 71.93645852407984 71.4969785753525 70.88170664713422 70.28840871635232 69.84892876762498 69.21168284197034 68.75022889580663 68.09100897271563 67.58560703167919 67.19007507782457 66.28914118293352 65.8496612342062 65.32228529573338 64.70701336751512 64.20161142647866 63.10291155466032 62.37776963926021 62.0481596777147 61.41091375206006 60.70774583409632 60.422083867423545 59.69694195202344 58.9937740340597 58.26863211865959 57.63138619300494 57.21388024171397 56.664530305804796 56.07123237502289 55.67570042116829 55.14832448269547 54.68687053653177 54.04962461087713 53.302508698040654 52.51144479033144 51.7423548800586 50.99523896722212 50.511811023622045 50.138253067203806 49.742721113349205 49.12744918513093 48.31441127998535 47.89690532869437 47.127815418421534 46.64438747482146 45.96319355429409 45.21607764145761 44.57883171580296 43.655923823475554 43.150521882439115 42.88683391320271 42.27156198498443 42.05182201062077 41.21681010803882 40.71140816700238 40.249954220838674 39.678630287493135 39.12928035158396 38.73374839772936 38.27229445156565 37.87676249771104 37.59110053103827 37.45925654642007 37.195568577183664 37.019776597692726 36.712140633583594 36.404504669474456 36.16279069767442 35.96502472074712 35.61344076176525 35.19593481047427 34.8443508514924 34.38289690532869 33.89946896172862 33.54788500274675 33.020509064273945 33.020509064273945 32.82274308734664 32.53708112067387 32.581029115546606 32.14154916681926 31.548251236037355 31.35048525911005 30.86705731550998 30.559421351400843 29.9880974180553 29.724409448818896 29.41677348470976 28.62570957700055 27.922541659036806 27.570957700054933 27.087529756454863 26.97765976927303 26.757919794909355 26.73594579747299 27.04358176158213 26.95568577183666 26.713971800036624 26.494231825672955 26.032777879509247 25.791063907709212 25.50540194103644 25.461453946163708 25.37355795641824 25.30763596410914 25.28566196667277 25.197765976927304 25.197765976927304 25.175791979490935 25.28566196667277 25.197765976927304 25.175791979490935 25.08789598974547 25.0 24.890130012818165 24.736312030763596 24.69236403589086 24.604468046145396 24.824208020509065 25.28566196667277 26.120673869254716 26.274491851309286 26.38436183849112 26.29646584874565 26.274491851309286 26.274491851309286 26.252517853872916 26.252517853872916 26.274491851309286 26.274491851309286 26.274491851309286 26.252517853872916 26.252517853872916 26.23054385643655 26.23054385643655 26.23054385643655 26.164621864127447 26.14264786669108 26.098699871818347 26.054751876945616 26.01080388207288 25.988829884636512 25.966855887200147 25.966855887200147 25.944881889763778 25.944881889763778 25.922907892327412 25.922907892327412 25.900933894891047 25.900933894891047 25.900933894891047 25.878959897454678 25.878959897454678 25.878959897454678 25.856985900018312 25.856985900018312 25.856985900018312 25.856985900018312 25.856985900018312 25.856985900018312 25.856985900018312 25.856985900018312 25.856985900018312 25.856985900018312 25.856985900018312 25.835011902581943 25.856985900018312 25.856985900018312 25.856985900018312 25.856985900018312 25.835011902581943 25.835011902581943 25.835011902581943 25.835011902581943 25.813037905145578 25.813037905145578 25.813037905145578 25.813037905145578 25.813037905145578 25.791063907709212 25.813037905145578 25.813037905145578 25.813037905145578 25.813037905145578 25.791063907709212 25.813037905145578 25.791063907709212 25.813037905145578 25.791063907709212 25.791063907709212 25.813037905145578 25.791063907709212 25.791063907709212 25.791063907709212 25.791063907709212 25.791063907709212 25.791063907709212 25.791063907709212 25.769089910272843 25.769089910272843 25.769089910272843 25.769089910272843 25.769089910272843 25.769089910272843 25.769089910272843 25.769089910272843 25.747115912836477 25.747115912836477 25.747115912836477 25.747115912836477 25.747115912836477 25.72514191540011 25.72514191540011 25.72514191540011 25.72514191540011 25.72514191540011 25.72514191540011 25.72514191540011 25.72514191540011 25.703167917963743 25.703167917963743 25.703167917963743 25.703167917963743 25.703167917963743 25.703167917963743 25.703167917963743 25.703167917963743 25.703167917963743 25.703167917963743 25.703167917963743 25.703167917963743 25.703167917963743 25.703167917963743 25.703167917963743 25.703167917963743 25.703167917963743 25.703167917963743 25.703167917963743 25.703167917963743 25.703167917963743 25.703167917963743 25.703167917963743 25.703167917963743 25.703167917963743 25.703167917963743 25.72514191540011 25.703167917963743 25.703167917963743 25.72514191540011 25.703167917963743 25.703167917963743 25.703167917963743 25.703167917963743 25.703167917963743 25.703167917963743 25.703167917963743 25.72514191540011 25.703167917963743 25.703167917963743 25.72514191540011 25.703167917963743 25.703167917963743 25.703167917963743 25.703167917963743 25.703167917963743 25.703167917963743 25.703167917963743 25.703167917963743 25.703167917963743 25.703167917963743 25.703167917963743 25.703167917963743 25.703167917963743 25.703167917963743 25.703167917963743 25.703167917963743 25.703167917963743 25.703167917963743 25.703167917963743 25.703167917963743 25.703167917963743 25.703167917963743 25.703167917963743 25.703167917963743 25.681193920527377 25.703167917963743 25.703167917963743 25.703167917963743 25.681193920527377 25.703167917963743 25.703167917963743 25.681193920527377 25.681193920527377 25.703167917963743 25.681193920527377 25.681193920527377 25.681193920527377 25.681193920527377 25.681193920527377 25.681193920527377 25.681193920527377 25.681193920527377 25.681193920527377 25.65921992309101 25.681193920527377 25.65921992309101 25.65921992309101 25.65921992309101 25.65921992309101 25.65921992309101 25.65921992309101 25.65921992309101 25.65921992309101 25.65921992309101 25.637245925654643 25.65921992309101 25.637245925654643 25.637245925654643 25.637245925654643 25.637245925654643 25.637245925654643 25.637245925654643 25.637245925654643 25.637245925654643 25.637245925654643 25.637245925654643 25.637245925654643 25.637245925654643 25.637245925654643 25.615271928218274 25.615271928218274 25.615271928218274 25.615271928218274 25.615271928218274 25.615271928218274 25.593297930781908 25.593297930781908 25.593297930781908 25.615271928218274 25.593297930781908 25.593297930781908 25.593297930781908 25.593297930781908 25.593297930781908 25.593297930781908 25.593297930781908 25.593297930781908 25.615271928218274 25.593297930781908 25.593297930781908 25.593297930781908 25.593297930781908 25.593297930781908 25.593297930781908 25.593297930781908 25.593297930781908 25.615271928218274 25.593297930781908 25.593297930781908 25.593297930781908 25.593297930781908 25.593297930781908 25.593297930781908 25.593297930781908 25.615271928218274 25.593297930781908 25.593297930781908 25.615271928218274 25.615271928218274 25.615271928218274 25.615271928218274 25.615271928218274 25.615271928218274 25.615271928218274 25.637245925654643 25.637245925654643 25.637245925654643 25.637245925654643 25.65921992309101 25.65921992309101 25.65921992309101 25.65921992309101 25.681193920527377 25.681193920527377 25.703167917963743 25.72514191540011 25.747115912836477 25.769089910272843 25.813037905145578 25.835011902581943 25.878959897454678 25.922907892327412 25.944881889763778 26.01080388207288 26.07672587438198 26.14264786669108 26.208569859000182 26.252517853872916 26.340413843618386 26.42830983336385 26.494231825672955 26.538179820545686 26.58212781541842 26.67002380516389 26.691997802600255 26.73594579747299 26.80186778978209 26.845815784654825 26.82384178721846 26.80186778978209 26.779893792345725 26.691997802600255 26.626075810291155 26.58212781541842 26.867789782091194 27.307269730818533 27.68082768723677 28.18622962827321 28.603735579564184 28.84544955136422 29.153085515473357 29.394799487273392 29.8562534334371 30.36165537447354 30.86705731550998 31.328511261673686 31.68009522065556 32.03167917963743 32.49313312580114 32.866691082219376 33.48196301043765 34.141182933528654 34.62461087712873 35.13001281816517 35.65738875663798 36.44845266434719 37.261490569492764 37.81084050540194 38.57993041567478 39.39296832082036 39.920344259293174 40.62351217725691 41.06299212598425 42.05182201062077 42.60117194652994 43.150521882439115 43.87566379783922 44.84251968503937 45.52371360556674 46.64438747482146 47.30360739791247 48.24848928767625 48.95165720563999 49.63285112616737 50.665629005676614 52.006042849295 52.62131477751328 53.654092657022524 54.31331258011353 55.23622047244095 56.29097234938656 57.016114264786665 57.93902215711408 58.9278520417506 59.652993957150706 60.48800585973265 61.03735579564182 61.9163156930965 62.993041567478485 63.388573521333086 64.02581944698773 64.53122138802416 65.21241530855156 65.9815052188244 66.66269913935176 67.36586705731551 68.02508698040651 68.44259293169749 69.18970884453397 69.6291887932613 70.28840871635232 70.9036806445706 71.27723860098882 71.87053653177074 72.48580845998902 72.92528840871636 73.58450833180737 74.00201428309833 74.66123420618933 75.36440212415309 75.84783006775316 76.44112799853508 77.21021790880792 77.45193188060796 77.97930781908076 78.37483977293536 78.92418970884452 79.69327961911739 79.91301959348105 80.63816150888115 81.16553744735396 81.47317341146311 82.02252334737227 82.33015931148142 82.72569126533602 83.12122321919063 83.38491118842703 83.78044314228164 84.1320271012635 84.35176707562718 84.70335103460906 84.94506500640908 85.31862296282733 85.6702069218092 85.88994689617286 86.3953488372093 86.68101080388207 86.94469877311849 87.27430873466398 87.55997070133675 88.02142464750045 88.37300860648233 88.57077458340964 88.87841054751877 89.12012451931881 89.31789049624611 89.44973448086431 89.66947445522798 89.84526643471892 90.02105841420986 90.13092840139169 90.26277238600989 90.37264237319172 90.43856436550082 90.50448635780992 90.52646035524629 90.54843435268266 90.54843435268266 90.54843435268266 90.54843435268266 90.54843435268266 90.52646035524629 90.52646035524629 90.50448635780992 90.50448635780992 90.4605383629372 90.4605383629372 90.4605383629372 90.43856436550082 90.43856436550082 90.41659036806446 90.39461637062809 90.37264237319172 90.37264237319172 90.35066837575536 90.328694378319 90.328694378319 90.28474638344626 90.26277238600989 90.24079838857352 90.19685039370079 90.17487639626442 90.17487639626442 90.13092840139169 90.10895440395532 90.08698040651895 90.04303241164622 90.02105841420986 89.97711041933712 89.93316242446438 89.84526643471892 89.80131843984618 89.75737044497345 89.73539644753708 89.69144845266435 89.66947445522798 89.64750045779161 89.60355246291888 89.58157846548252 89.55960446804615 89.55960446804615 89.53763047060978 89.51565647317341 89.49368247573705 89.44973448086431 89.40578648599158 89.40578648599158 89.36183849111885 89.33986449368247 89.33986449368247 89.33986449368247 89.33986449368247 89.31789049624611 89.33986449368247 89.31789049624611 89.31789049624611 89.29591649880975 89.27394250137338 89.25196850393701 89.22999450650065 89.22999450650065 89.22999450650065 89.20802050906427 89.18604651162791 89.16407251419155 89.14209851675518 89.07617652444607 89.0542025270097 88.9882805347006 88.9223585423915 88.8564365500824 88.81248855520967 88.76854056033693 88.6586705731551 88.57077458340964 88.52682658853689 88.43893059879144 88.35103460904597 88.30708661417323 88.26313861930049 88.26313861930049 88.26313861930049 88.24116462186413 88.21919062442777 88.21919062442777 88.21919062442777 88.17524262955503 88.15326863211865 88.13129463468229 88.10932063724593 88.08734663980957 88.06537264237319 88.04339864493683 87.99945065006409 87.95550265519137 87.93352865775499 87.91155466031863 87.91155466031863 87.91155466031863 87.91155466031863 87.91155466031863 87.91155466031863 87.91155466031863 87.91155466031863 87.91155466031863 87.91155466031863 87.86760666544589 87.84563266800953 87.84563266800953 87.80168467313679 87.77971067570043 87.75773667826405 87.75773667826405 87.71378868339133 87.69181468595497 87.64786669108221 87.60391869620949 87.58194469877311 87.53799670390038 87.51602270646401 87.49404870902765 87.47207471159129 87.42812671671855 87.38417872184581 87.34023072697309 87.34023072697309 87.29628273210035 87.29628273210035 87.29628273210035 87.31825672953671 87.31825672953671 87.31825672953671 87.31825672953671 87.31825672953671 87.31825672953671 87.34023072697309 87.31825672953671 87.34023072697309 87.34023072697309 87.34023072697309 87.34023072697309 87.34023072697309 87.34023072697309 87.34023072697309 87.34023072697309 87.34023072697309 87.34023072697309 87.34023072697309 87.34023072697309 87.34023072697309 87.34023072697309 87.34023072697309 87.34023072697309 87.34023072697309 87.34023072697309 87.34023072697309 87.34023072697309 87.36220472440945 87.36220472440945 87.38417872184581 87.38417872184581 87.38417872184581 87.38417872184581 87.38417872184581 87.38417872184581 87.38417872184581 87.34023072697309 87.36220472440945 87.36220472440945 87.34023072697309 87.34023072697309 87.34023072697309 87.34023072697309 87.34023072697309 87.34023072697309 87.34023072697309 87.36220472440945 87.34023072697309 87.36220472440945 87.34023072697309 87.34023072697309 87.31825672953671 87.34023072697309 87.34023072697309 87.34023072697309 87.34023072697309 87.34023072697309 87.34023072697309 87.34023072697309 87.31825672953671 87.29628273210035 87.29628273210035 87.27430873466398 87.23036073979125 87.20838674235489 87.18641274491851 87.16443874748215 87.16443874748215 87.12049075260941 87.12049075260941 87.09851675517305 87.12049075260941 87.12049075260941 87.12049075260941 87.12049075260941 87.14246475004578 87.12049075260941 87.14246475004578 87.14246475004578 87.14246475004578 87.12049075260941 87.12049075260941 87.07654275773669 87.05456876030031 86.98864676799121 86.9227247756821 86.85680278337301 86.76890679362754 86.70298480131844 86.63706280900934 86.54916681926387 86.5271928218275 86.48324482695477 86.46127082951841 86.43929683208204 86.35140084233657 86.32942684490021 86.19758286028201 86.04376487822742 85.9338948910456 85.82402490386376 85.6702069218092 85.45046694744553 85.09888298846366 84.90111701153634 84.59348104742722 84.35176707562718 84.04413111151804 83.69254715253618 83.45083318073613 83.09924922175426 82.68174327046329 82.39608130379051 81.97857535249955 81.62699139351767 81.18751144479035 80.72605749862663 80.35249954220839 79.82512360373559 79.20985167551731 78.77037172678996 78.11115180369896 77.71561984984436 76.92455594213514 76.52902398828054 76.13349203442593 75.29848013184399 74.70518220106207 74.30965024720747 73.73832631386193 73.27687236769822 72.66160043947995 71.98040651895258 71.4969785753525 70.88170664713422 70.24446072147958 69.78300677531587 69.12378685222487 68.61838491118843 68.04706097784288 67.51968503937007 67.10217908807911 66.53085515473356 65.93755722395166 65.5859732649698 64.9047793444424 64.66306537264236 64.09174143929684 63.718183482878594 63.388573521333086 62.66343160593298 62.15802966489654 61.80644570591467 61.30104376487823 60.90551181102362 60.378135872550814 59.850759934078006 59.21351400842337 58.51034609045962 57.80717817249588 57.30177623145944 56.796374290423 56.20307635964109 55.60977842885919 55.19227247756821 54.73081853140451 54.04962461087713 53.588170664713424 52.64328877494964 51.98406885185864 51.52261490569492 50.86339498260392 50.248123054385644 49.76469511078557 49.171397180003666 48.70994323383995 47.83098333638527 46.688335469694195 45.985167551730456 44.820545687603 43.348287859366415 42.95275590551181 42.44735396447537 42.13971800036623 41.72221204907526 41.32668009522065 40.84325215162058 39.7665262772386 39.01941036440212 38.77769639260209 38.51400842336568 38.29426844900202 38.03058047976561 37.635048525911 37.5032045412928 37.28346456692913 37.1076725874382 36.931880607947264 36.58029664896539 36.51437465665629 36.14081670023805 35.72331074894708 35.45962277971068 34.95422083867423 34.38289690532869 34.075260941219554 33.635780992492215 33.372093023255815 33.240249038637614 33.130379051455776 32.88866507965574 32.66892510529207 32.1195751693829 31.833913202710125 31.548251236037355 31.30653726423732 30.911005310382713 30.559421351400843 30.20783739241897 29.878227430873466 29.63651345907343 29.328877494964292 28.62570957700055 28.03241164621864 27.373191723127633 26.97765976927303 26.757919794909355 26.67002380516389 26.73594579747299 26.472257828236586 25.769089910272843 25.637245925654643 25.241713971800035 25.241713971800035 25.175791979490935 25.0659219923091 25.021973997436366 24.91210401025453 24.890130012818165 24.84618201794543 24.824208020509065 24.824208020509065 24.824208020509065 24.84618201794543 24.890130012818165 24.9340780076909 25.637245925654643 26.274491851309286 26.60410181285479 26.626075810291155 26.58212781541842 26.472257828236586 26.406335835927486 26.318439846182017 26.318439846182017 26.29646584874565 26.29646584874565 26.29646584874565 26.318439846182017 26.318439846182017 26.318439846182017 26.29646584874565 26.29646584874565 26.29646584874565 26.29646584874565 26.29646584874565 26.29646584874565 26.29646584874565 26.274491851309286 26.29646584874565 26.29646584874565 26.29646584874565 26.274491851309286 26.274491851309286 26.274491851309286 26.274491851309286 26.252517853872916 26.252517853872916 26.23054385643655 26.252517853872916 26.252517853872916 26.23054385643655 26.252517853872916 26.23054385643655 26.23054385643655 26.23054385643655 26.23054385643655 26.23054385643655 26.23054385643655 26.23054385643655 26.23054385643655 26.23054385643655 26.23054385643655 26.252517853872916 26.23054385643655 26.23054385643655 26.23054385643655 26.23054385643655 26.23054385643655 26.23054385643655 26.23054385643655 26.23054385643655 26.23054385643655 26.23054385643655 26.23054385643655 26.23054385643655 26.208569859000182 26.208569859000182 26.208569859000182 26.208569859000182 26.208569859000182 26.208569859000182 26.186595861563816 26.186595861563816 26.164621864127447 26.164621864127447 26.164621864127447 26.14264786669108 26.14264786669108 26.14264786669108 26.14264786669108 26.14264786669108 26.14264786669108 26.14264786669108 26.14264786669108 26.120673869254716 26.120673869254716 26.120673869254716 26.120673869254716 26.120673869254716 26.14264786669108 26.120673869254716 26.120673869254716 26.120673869254716 26.120673869254716 26.120673869254716 26.120673869254716 26.120673869254716 26.120673869254716 26.120673869254716 26.120673869254716 26.120673869254716 26.098699871818347 26.120673869254716 26.098699871818347 26.120673869254716 26.098699871818347 26.098699871818347 26.07672587438198 26.07672587438198 26.054751876945616 26.054751876945616 26.054751876945616 26.054751876945616 26.032777879509247 26.032777879509247 26.032777879509247 26.032777879509247 26.032777879509247 26.01080388207288 26.032777879509247 26.01080388207288 26.01080388207288 25.988829884636512 25.988829884636512 25.988829884636512 25.966855887200147 25.966855887200147 25.944881889763778 25.944881889763778 25.944881889763778 25.944881889763778 25.944881889763778 25.922907892327412 25.922907892327412 25.900933894891047 25.900933894891047 25.900933894891047 25.900933894891047 25.900933894891047 25.878959897454678 25.878959897454678 25.878959897454678 25.878959897454678 25.878959897454678 25.878959897454678 25.878959897454678 25.878959897454678 25.878959897454678 25.856985900018312 25.856985900018312 25.856985900018312 25.856985900018312 25.856985900018312 25.856985900018312 25.856985900018312 25.856985900018312 25.856985900018312 25.856985900018312 25.856985900018312 25.856985900018312 25.856985900018312 25.856985900018312 25.856985900018312 25.835011902581943 25.835011902581943 25.835011902581943 25.835011902581943 25.835011902581943 25.835011902581943 25.835011902581943 25.835011902581943 25.835011902581943 25.835011902581943 25.835011902581943 25.835011902581943 25.835011902581943 25.835011902581943 25.835011902581943 25.835011902581943 25.835011902581943 25.835011902581943 25.835011902581943 25.835011902581943 25.835011902581943 25.835011902581943 25.835011902581943 25.835011902581943 25.835011902581943 25.835011902581943 25.835011902581943 25.835011902581943 25.835011902581943 25.835011902581943 25.835011902581943 25.835011902581943 25.835011902581943 25.835011902581943 25.835011902581943 25.835011902581943 25.835011902581943 25.813037905145578 25.835011902581943 25.835011902581943 25.813037905145578 25.813037905145578 25.813037905145578 25.813037905145578 25.813037905145578 25.813037905145578 25.813037905145578 25.813037905145578 25.813037905145578 25.791063907709212 25.813037905145578 25.813037905145578 25.813037905145578 25.813037905145578 25.813037905145578 25.791063907709212 25.791063907709212 25.791063907709212 25.791063907709212 25.791063907709212 25.791063907709212 25.791063907709212 25.791063907709212 25.791063907709212 25.791063907709212 25.791063907709212 25.791063907709212 25.791063907709212 25.769089910272843 25.791063907709212 25.791063907709212 25.791063907709212 25.769089910272843 25.769089910272843 25.769089910272843 25.769089910272843 25.791063907709212 25.769089910272843 25.769089910272843 25.769089910272843 25.791063907709212 25.791063907709212 25.791063907709212 25.791063907709212 25.791063907709212 25.791063907709212 25.791063907709212 25.813037905145578 25.813037905145578 25.813037905145578 25.813037905145578 25.813037905145578 25.835011902581943 25.856985900018312 25.878959897454678 25.922907892327412 25.966855887200147 26.032777879509247 26.07672587438198 26.164621864127447 26.23054385643655 26.36238784105475 26.45028383080022 26.494231825672955 26.626075810291155 26.73594579747299 26.80186778978209 26.911737776963925 26.911737776963925 26.88976377952756 26.82384178721846 26.80186778978209 26.933711774400294 27.065555759018494 27.636879692364037 28.31807361289141 28.823475553927853 29.460721479582496 30.07599340780077 30.44955136421901 30.998901300128182 31.52627723860099 31.855887200146494 32.33931514374657 32.66892510529207 33.196301043764876 33.92144295916499 34.27302691814686 34.66855887200147 35.13001281816517 35.85515473356528 35.986998718183486 36.536348654092656 37.65702252334737 38.62387841054752 38.88756637978392 39.8324482695477 40.315876213147774 41.26075810291155 42.20563999267533 42.82091192089361 43.721845815784654 44.6887017029848 45.36989562351218 46.09503753891229 46.688335469694195 47.80900933894891 48.68796923640359 49.808643105658305 50.42391503387658 51.41274491851309 51.98406885185864 52.81908075444058 53.456326680095216 54.51107855704083 55.39003845449551 56.02728438015016 56.9941402673503 57.89507416224135 58.24665812122322 58.11481413660502 58.51034609045962 59.367331990477936 59.960629921259844 60.246291887932614 60.97143380333272 61.96026368796924 62.487639626442046 63.388573521333086 64.02581944698773 64.94872733931514 65.76176524446072 66.6407251419154 67.47573704449735 68.26680095220655 68.75022889580663 69.32155282915217 69.80498077275224 70.66196667277055 71.25526460355246 71.65079655740706 72.33199047793445 73.01318439846182 73.562534334371 74.06793627540745 74.70518220106207 75.43032411646219 76.19941402673503 76.63889397546237 77.23219190624428 77.60574986266252 78.33089177806264 78.6824757370445 79.03405969602638 79.5394616370628 80.00091558322652 80.33052554477202 80.87987548068119 81.16553744735396 81.58304339864495 81.80278337300861 82.06647134224502 82.41805530122689 82.87950924739059 83.12122321919063 83.49478117560886 83.75846914484526 84.1320271012635 84.37374107306354 84.74729902948178 85.09888298846366 85.42849295000916 85.62625892693646 85.88994689617286 86.06573887566381 86.41732283464567 86.57114081670024 86.70298480131844 86.90075077824574 87.05456876030031 87.16443874748215 87.29628273210035 87.42812671671855 87.58194469877311 87.69181468595497 87.77971067570043 87.91155466031863 87.99945065006409 88.08734663980957 88.15326863211865 88.17524262955503 88.24116462186413 88.28511261673685 88.30708661417323 88.35103460904597 88.37300860648233 88.39498260391869 88.48287859366417 88.52682658853689 88.61472257828237 88.70261856802784 88.76854056033693 88.87841054751877 88.9882805347006 89.09815052188245 89.18604651162791 89.22999450650065 89.31789049624611 89.36183849111885 89.40578648599158 89.49368247573705 89.55960446804615 89.62552646035525 89.69144845266435 89.75737044497345 89.84526643471892 89.97711041933712 90.04303241164622 90.13092840139169 90.19685039370079 90.21882439113715 90.26277238600989 90.28474638344626 90.28474638344626 90.28474638344626 90.30672038088262 90.328694378319 90.328694378319 90.35066837575536 90.35066837575536 90.35066837575536 90.35066837575536 90.328694378319 90.35066837575536 90.35066837575536 90.35066837575536 90.328694378319 90.35066837575536 90.328694378319 90.328694378319 90.35066837575536 90.35066837575536 90.35066837575536 90.35066837575536 90.328694378319 90.328694378319 90.328694378319 90.26277238600989 90.19685039370079 90.19685039370079 90.10895440395532 90.04303241164622 89.97711041933712 89.86724043215528 89.84526643471892 89.82329243728255 89.82329243728255 89.80131843984618 89.80131843984618 89.82329243728255 89.80131843984618 89.73539644753708 89.69144845266435 89.62552646035525 89.53763047060978 89.44973448086431 89.38381248855521 89.33986449368247 89.27394250137338 89.18604651162791 89.14209851675518 89.09815052188245 89.09815052188245 89.07617652444607 89.09815052188245 89.07617652444607 89.07617652444607 89.07617652444607 89.07617652444607 89.03222852957333 89.01025453213697 88.9223585423915 88.87841054751877 88.83446255264604 88.7905145577733 88.7245925654642 88.70261856802784 88.6586705731551 88.63669657571873 88.61472257828237 88.61472257828237 88.61472257828237 88.61472257828237 88.592748580846 88.54880058597325 88.52682658853689 88.50485259110053 88.43893059879144 88.43893059879144 88.43893059879144 88.41695660135505 88.41695660135505 88.41695660135505 88.41695660135505 88.41695660135505 88.41695660135505 88.43893059879144 88.43893059879144 88.43893059879144 88.41695660135505 88.41695660135505 88.43893059879144 88.41695660135505 88.43893059879144 88.41695660135505 88.43893059879144 88.41695660135505 88.41695660135505 88.43893059879144 88.43893059879144 88.41695660135505 88.43893059879144 88.39498260391869 88.41695660135505 88.37300860648233 88.35103460904597 88.32906061160959 88.32906061160959 88.30708661417323 88.30708661417323 88.30708661417323 88.30708661417323 88.32906061160959 88.30708661417323 88.32906061160959 88.32906061160959 88.32906061160959 88.32906061160959 88.30708661417323 88.32906061160959 88.30708661417323 88.30708661417323 88.26313861930049 88.21919062442777 88.21919062442777 88.21919062442777 88.21919062442777 88.21919062442777 88.21919062442777 88.21919062442777 88.21919062442777 88.19721662699139 88.19721662699139 88.17524262955503 88.13129463468229 88.10932063724593 88.08734663980957 88.06537264237319 87.99945065006409 87.97747665262773 87.95550265519137 87.93352865775499 87.91155466031863 87.91155466031863 87.91155466031863 87.91155466031863 87.91155466031863 87.93352865775499 87.91155466031863 87.91155466031863 87.91155466031863 87.91155466031863 87.91155466031863 87.91155466031863 87.88958066288225 87.88958066288225 87.88958066288225 87.86760666544589 87.84563266800953 87.82365867057317 87.80168467313679 87.77971067570043 87.75773667826405 87.73576268082769 87.73576268082769 87.73576268082769 87.69181468595497 87.66984068851858 87.66984068851858 87.64786669108221 87.58194469877311 87.55997070133675 87.53799670390038 87.49404870902765 87.47207471159129 87.42812671671855 87.40615271928218 87.38417872184581 87.31825672953671 87.23036073979125 87.16443874748215 87.07654275773669 87.01062076542757 86.90075077824574 86.81285478850029 86.76890679362754 86.72495879875481 86.70298480131844 86.63706280900934 86.61508881157297 86.59311481413661 86.50521882439114 86.50521882439114 86.48324482695477 86.43929683208204 86.41732283464567 86.3953488372093 86.37337483977294 86.35140084233657 86.30745284746384 86.2635048525911 86.24153085515474 86.24153085515474 86.24153085515474 86.24153085515474 86.24153085515474 86.24153085515474 86.21955685771837 86.19758286028201 86.15363486540927 86.10968687053654 86.06573887566381 86.02179088079106 85.9998168833547 85.97784288591834 85.9338948910456 85.91192089360922 85.84599890130013 85.75810291155466 85.6702069218092 85.6042849295001 85.51638893975462 85.45046694744553 85.3405969602637 85.23072697308186 85.18677897820913 84.98901300128182 84.74729902948178 84.57150704999086 84.2638710858817 83.97820911920894 83.6046511627907 83.27504120124519 83.14319721662699 82.8135872550815 82.59384728071782 82.19831532686322 81.62699139351767 81.2754074345358 80.85790148324483 80.39644753708112 80.22065555759019 79.69327961911739 79.12195568577184 78.57260574986266 78.06720380882624 77.75956784471708 77.276139901117 76.8146859549533 76.4850759934078 75.957700054935 75.54019410364401 75.01281816517121 74.46346822926205 74.11188427028017 73.58450833180737 72.81541842153452 72.37593847280718 71.91448452664348 71.45303058047976 70.92565464200696 70.33235671122506 69.71708478300678 69.16773484709759 68.72825489837027 68.57443691631569 68.11298297015199 67.89324299578831 67.58560703167919 67.25599707013367 66.94836110602454 66.5088811572972 65.9815052188244 65.60794726240616 65.05859732649698 64.68503937007874 64.1137154367332 63.52041750595129 63.080937557223955 62.50961362387841 61.82841970335103 61.43288774949643 61.05932979307819 60.61984984435085 59.916681926387106 59.301409998168836 58.90587804431423 58.22468412378685 57.609412195568574 57.169932246841235 56.664530305804796 56.444790331441126 56.00531038271379 55.52188243911371 55.17029848013185 54.64292254165903 54.29133858267717 53.654092657022524 53.03882072880425 52.57736678264054 51.91814685954954 51.10510895440396 50.29207104925838 49.52298113898553 48.99560520051273 48.29243728254899 47.58926936458524 46.973997436366965 45.83134956967588 44.73264969785754 44.007507782457424 43.348287859366415 42.930781908075446 42.44735396447537 42.0298480131844 41.76616004394799 41.23878410547519 40.667460172129644 40.206006225965936 39.6346822926204 38.86559238234756 38.22834645669291 38.00860648232924 37.7668925105292 37.635048525911 37.327412561801864 37.041750595129095 36.756088628456325 36.602270646401756 36.404504669474456 36.22871268998352 36.00897271561985 35.65738875663798 35.26185680278337 34.99816883354697 34.51474088994689 34.207104925837754 33.459989013001284 33.350119025819446 33.262223036073976 33.064457059146676 32.82274308734664 32.4491851309284 32.09760117194653 31.833913202710125 31.24061527192822 30.86705731550998 30.625343343709943 30.119941402673504 29.284929500091557 28.71360556674602 28.27412561801868 28.27412561801868 28.362021607764145 28.09833363852774 27.90056766160044 27.548983702618568 27.219373741073063 27.197399743636698 27.087529756454863 27.087529756454863 26.911737776963925 26.691997802600255 26.42830983336385 26.098699871818347 25.944881889763778 25.944881889763778 25.944881889763778 25.791063907709212 25.329609961545504 25.175791979490935 25.08789598974547 25.021973997436366 25.0 24.9340780076909 24.9340780076909 24.978026002563634 25.0659219923091 25.197765976927304 25.28566196667277 26.51620582310932 26.51620582310932 26.42830983336385 26.29646584874565 26.274491851309286 26.274491851309286 26.29646584874565 26.29646584874565 26.29646584874565 26.29646584874565 26.29646584874565 26.274491851309286 26.274491851309286 26.274491851309286 26.274491851309286 26.274491851309286 26.252517853872916 26.208569859000182 26.14264786669108 26.120673869254716 26.098699871818347 26.054751876945616 26.032777879509247 26.01080388207288 25.988829884636512 25.988829884636512 25.966855887200147 25.944881889763778 25.944881889763778 25.922907892327412 25.922907892327412 25.922907892327412 25.900933894891047 25.900933894891047 25.856985900018312 25.835011902581943 25.813037905145578 25.813037905145578 25.791063907709212 25.769089910272843 25.747115912836477 25.72514191540011 25.703167917963743 25.681193920527377 25.65921992309101 25.65921992309101 25.65921992309101 25.637245925654643 25.637245925654643 25.615271928218274 25.615271928218274 25.615271928218274 25.615271928218274 25.615271928218274 25.593297930781908 25.593297930781908 25.593297930781908 25.593297930781908 25.593297930781908 25.593297930781908 25.593297930781908 25.571323933345543 25.571323933345543 25.571323933345543 25.571323933345543 25.571323933345543 25.571323933345543 25.571323933345543 25.571323933345543 25.571323933345543 25.571323933345543 25.571323933345543 25.571323933345543 25.571323933345543 25.571323933345543 25.571323933345543 25.571323933345543 25.571323933345543 25.571323933345543 25.549349935909174 25.571323933345543 25.571323933345543 25.571323933345543 25.571323933345543 25.549349935909174 25.549349935909174 25.549349935909174 25.549349935909174 25.549349935909174 25.549349935909174 25.549349935909174 25.549349935909174 25.549349935909174 25.549349935909174 25.549349935909174 25.549349935909174 25.549349935909174 25.549349935909174 25.549349935909174 25.549349935909174 25.527375938472808 25.549349935909174 25.549349935909174 25.527375938472808 25.549349935909174 25.527375938472808 25.527375938472808 25.527375938472808 25.527375938472808 25.527375938472808 25.527375938472808 25.527375938472808 25.527375938472808 25.527375938472808 25.527375938472808 25.527375938472808 25.527375938472808 25.527375938472808 25.527375938472808 25.527375938472808 25.50540194103644 25.527375938472808 25.50540194103644 25.50540194103644 25.50540194103644 25.527375938472808 25.50540194103644 25.527375938472808 25.527375938472808 25.527375938472808 25.50540194103644 25.50540194103644 25.527375938472808 25.527375938472808 25.527375938472808 25.527375938472808 25.527375938472808 25.50540194103644 25.50540194103644 25.527375938472808 25.50540194103644 25.527375938472808 25.50540194103644 25.50540194103644 25.50540194103644 25.50540194103644 25.50540194103644 25.50540194103644 25.527375938472808 25.50540194103644 25.50540194103644 25.50540194103644 25.527375938472808 25.50540194103644 25.50540194103644 25.50540194103644 25.50540194103644 25.50540194103644 25.50540194103644 25.50540194103644 25.50540194103644 25.50540194103644 25.50540194103644 25.50540194103644 25.50540194103644 25.50540194103644 25.50540194103644 25.50540194103644 25.50540194103644 25.50540194103644 25.50540194103644 25.50540194103644 25.50540194103644 25.50540194103644 25.50540194103644 25.50540194103644 25.50540194103644 25.50540194103644 25.50540194103644 25.50540194103644 25.50540194103644 25.50540194103644 25.50540194103644 25.50540194103644 25.50540194103644 25.50540194103644 25.50540194103644 25.527375938472808 25.50540194103644 25.50540194103644 25.50540194103644 25.50540194103644 25.50540194103644 25.50540194103644 25.50540194103644 25.50540194103644 25.50540194103644 25.50540194103644 25.50540194103644 25.50540194103644 25.50540194103644 25.50540194103644 25.50540194103644 25.50540194103644 25.50540194103644 25.50540194103644 25.50540194103644 25.50540194103644 25.50540194103644 25.50540194103644 25.50540194103644 25.50540194103644 25.50540194103644 25.50540194103644 25.50540194103644 25.50540194103644 25.50540194103644 25.527375938472808 25.50540194103644 25.527375938472808 25.527375938472808 25.527375938472808 25.527375938472808 25.527375938472808 25.527375938472808 25.527375938472808 25.527375938472808 25.527375938472808 25.549349935909174 25.549349935909174 25.549349935909174 25.549349935909174 25.549349935909174 25.549349935909174 25.549349935909174 25.549349935909174 25.549349935909174 25.571323933345543 25.571323933345543 25.571323933345543 25.571323933345543 25.571323933345543 25.571323933345543 25.593297930781908 25.615271928218274 25.615271928218274 25.637245925654643 25.65921992309101 25.681193920527377 25.703167917963743 25.72514191540011 25.747115912836477 25.791063907709212 25.813037905145578 25.856985900018312 25.900933894891047 25.922907892327412 26.01080388207288 26.14264786669108 26.23054385643655 26.318439846182017 26.45028383080022 26.58212781541842 26.779893792345725 26.867789782091194 26.97765976927303 27.131477751327594 27.241347738509432 27.351217725691264 27.461087712873102 27.658853689800402 27.834645669291337 27.856619666727706 27.856619666727706 28.18622962827321 28.581761582127815 29.175059512909723 29.812305438564366 30.251785387291704 30.845083318073613 31.262589269364586 31.89983519501923 32.27339315143747 32.95458707196484 33.262223036073976 33.372093023255815 33.416041018128546 34.16315693096502 34.69053286943783 35.39370078740157 35.87712873100165 36.338582677165356 36.536348654092656 36.931880607947264 38.09650247207471 38.71177440029299 39.370994323384 39.898370261856805 40.75535616187511 42.00787401574803 43.106573887566384 43.74381981322102 44.79857169016664 45.61160959531222 46.248855520966856 47.36952939022157 48.18256729536715 49.237319172312766 50.42391503387658 51.03918696209485 51.96209485442226 52.863028749313315 53.654092657022524 54.335286577549894 54.97253250320454 56.09320637245926 56.686504303241165 57.191906244277604 58.48837209302326 59.1256180186779 59.674967954587075 60.33418787767808 60.90551181102362 61.76249771104193 62.57553561618751 63.10291155466032 63.915949459805894 64.68503937007874 65.21241530855156 66.00347921626076 66.7725691265336 67.25599707013367 68.09100897271563 68.75022889580663 69.51931880607947 70.33235671122506 71.12342061893426 71.93645852407984 72.55173045229812 73.16700238051638 74.35359824208021 74.83702618568029 76.00164804980773 76.59494598058964 77.40798388573522 78.19904779344444 78.72642373191724 79.47353964475371 80.30855154733565 80.79197949093573 81.47317341146311 81.93462735762681 82.54989928584509 83.12122321919063 83.67057315509979 84.15400109869987 84.63742904229994 84.81322102179088 85.25270097051822 85.56033693462736 86.1316608679729 86.54916681926387 86.7908807910639 87.16443874748215 87.49404870902765 87.64786669108221 87.91155466031863 88.17524262955503 88.41695660135505 88.63669657571873 88.76854056033693 88.94433253982787 89.09815052188245 89.18604651162791 89.25196850393701 89.27394250137338 89.31789049624611 89.31789049624611 89.31789049624611 89.29591649880975 89.31789049624611 89.31789049624611 89.31789049624611 89.31789049624611 89.31789049624611 89.31789049624611 89.31789049624611 89.31789049624611 89.31789049624611 89.31789049624611 89.31789049624611 89.31789049624611 89.31789049624611 89.31789049624611 89.31789049624611 89.31789049624611 89.31789049624611 89.31789049624611 89.31789049624611 89.29591649880975 89.31789049624611 89.29591649880975 89.29591649880975 89.31789049624611 89.29591649880975 89.29591649880975 89.27394250137338 89.25196850393701 89.22999450650065 89.18604651162791 89.18604651162791 89.14209851675518 89.14209851675518 89.14209851675518 89.14209851675518 89.12012451931881 89.12012451931881 89.09815052188245 89.09815052188245 89.07617652444607 89.07617652444607 89.0542025270097 89.0542025270097 89.0542025270097 89.0542025270097 89.0542025270097 89.0542025270097 89.0542025270097 89.0542025270097 89.0542025270097 89.0542025270097 89.0542025270097 89.0542025270097 89.0542025270097 89.0542025270097 89.0542025270097 89.0542025270097 89.0542025270097 89.0542025270097 89.01025453213697 89.01025453213697 88.9882805347006 88.9882805347006 88.96630653726424 88.94433253982787 88.9223585423915 88.90038454495513 88.87841054751877 88.87841054751877 88.87841054751877 88.87841054751877 88.87841054751877 88.87841054751877 88.8564365500824 88.87841054751877 88.87841054751877 88.87841054751877 88.87841054751877 88.87841054751877 88.87841054751877 88.87841054751877 88.87841054751877 88.8564365500824 88.8564365500824 88.8564365500824 88.83446255264604 88.8564365500824 88.83446255264604 88.83446255264604 88.83446255264604 88.81248855520967 88.7905145577733 88.7905145577733 88.76854056033693 88.74656656290057 88.74656656290057 88.74656656290057 88.74656656290057 88.7245925654642 88.7245925654642 88.68064457059147 88.6586705731551 88.63669657571873 88.61472257828237 88.592748580846 88.592748580846 88.61472257828237 88.592748580846 88.592748580846 88.592748580846 88.57077458340964 88.54880058597325 88.52682658853689 88.50485259110053 88.48287859366417 88.48287859366417 88.48287859366417 88.48287859366417 88.4609045962278 88.43893059879144 88.39498260391869 88.39498260391869 88.37300860648233 88.37300860648233 88.35103460904597 88.35103460904597 88.35103460904597 88.35103460904597 88.32906061160959 88.32906061160959 88.30708661417323 88.32906061160959 88.30708661417323 88.30708661417323 88.28511261673685 88.28511261673685 88.26313861930049 88.26313861930049 88.26313861930049 88.26313861930049 88.24116462186413 88.24116462186413 88.21919062442777 88.17524262955503 88.17524262955503 88.15326863211865 88.17524262955503 88.15326863211865 88.13129463468229 88.13129463468229 88.13129463468229 88.13129463468229 88.13129463468229 88.13129463468229 88.13129463468229 88.13129463468229 88.13129463468229 88.13129463468229 88.13129463468229 88.15326863211865 88.15326863211865 88.15326863211865 88.15326863211865 88.15326863211865 88.15326863211865 88.15326863211865 88.15326863211865 88.13129463468229 88.13129463468229 88.13129463468229 88.13129463468229 88.13129463468229 88.08734663980957 88.06537264237319 88.02142464750045 87.99945065006409 87.97747665262773 87.95550265519137 87.93352865775499 87.91155466031863 87.88958066288225 87.88958066288225 87.88958066288225 87.86760666544589 87.86760666544589 87.84563266800953 87.82365867057317 87.80168467313679 87.80168467313679 87.80168467313679 87.80168467313679 87.77971067570043 87.77971067570043 87.77971067570043 87.75773667826405 87.73576268082769 87.71378868339133 87.71378868339133 87.69181468595497 87.69181468595497 87.69181468595497 87.69181468595497 87.69181468595497 87.66984068851858 87.66984068851858 87.66984068851858 87.64786669108221 87.64786669108221 87.60391869620949 87.51602270646401 87.49404870902765 87.47207471159129 87.42812671671855 87.40615271928218 87.36220472440945 87.31825672953671 87.25233473722761 87.12049075260941 87.07654275773669 86.94469877311849 86.81285478850029 86.70298480131844 86.59311481413661 86.48324482695477 86.32942684490021 86.08771287310017 85.88994689617286 85.6042849295001 85.2087529756455 85.07690899102728 84.74729902948178 84.48361106024538 83.91228712689984 83.56070316791798 83.0772752243179 82.61582127815419 82.11041933711775 81.95660135506317 81.45119941402675 81.16553744735396 80.74803149606299 80.28657754989928 79.93499359091741 79.36366965757188 78.79234572422632 78.4187877678081 77.80351583958982 77.38600988829884 76.83665995238968 76.3532320087896 75.62809009338949 75.38637612158945 74.90294817798939 74.30965024720747 73.8921442959165 73.47463834462553 72.72752243178905 72.17817249587988 71.80461453946164 71.27723860098882 70.77183665995238 70.39827870353415 69.8269547701886 69.431422816334 68.81615088811573 68.22285295733383 67.87126899835195 67.1681010803882 66.79454312396996 66.4429591649881 65.89360922907892 65.52005127266068 64.97070133675152 64.35542940853324 63.696209485442225 62.993041567478485 62.55356161875115 62.02618568027834 61.67460172129647 61.27906976744186 60.53195385460538 59.960629921259844 59.54312396996887 58.94982603918696 58.55429408533236 58.00494414942318 57.54349020325947 57.191906244277604 56.77440029298663 56.29097234938656 55.93938839040469 55.43398644936825 54.86266251602271 54.269364585240794 53.87383263138619 53.434352682658854 52.75315876213148 52.006042849295 51.4786669108222 50.48983702618568 50.028383080021975 49.43508514924007 49.06152719282183 48.73191723127633 48.09467130562168 47.43545138253067 46.995971433803334 46.248855520966856 45.78740157480315 45.04028566196667 44.205273759384724 43.633949826039185 43.08459989013001 42.64511994140267 42.38143197216627 42.0298480131844 41.72221204907526 41.19483611060245 40.88720014649331 40.71140816700238 40.35982420802051 39.942318256729536 39.48086431056583 39.173228346456696 38.86559238234756 38.51400842336568 38.18439846182018 38.03058047976561 37.7668925105292 37.67899652078374 37.4372825489837 37.1076725874382 36.887932613074526 36.492400659219925 36.00897271561985 35.70133675151071 35.13001281816517 34.7784288591833 34.25105292071049 33.701702984801315 33.591832997619484 33.372093023255815 33.086431056583045 32.932613074528476 32.62497711041934 32.33931514374657 31.78996520783739 31.30653726423732 31.130745284746382 30.559421351400843 30.07599340780077 29.592565464200696 28.735579564182384 28.296099615455045 28.230177623145945 28.230177623145945 28.09833363852774 27.922541659036806 27.614905694927668 27.483061710309467 27.395165720564 27.307269730818533 27.17542574620033 27.04358176158213 26.911737776963925 26.757919794909355 26.648049807727524 26.51620582310932 26.29646584874565 26.208569859000182 26.098699871818347 25.944881889763778 25.813037905145578 25.637245925654643 25.527375938472808 25.417505951290973 25.417505951290973 25.329609961545504 25.197765976927304 25.30763596410914 25.637245925654643 25.856985900018312 25.835011902581943 25.791063907709212 25.813037905145578 25.900933894891047 26.23054385643655 26.252517853872916 26.23054385643655 26.208569859000182 26.186595861563816 26.164621864127447 26.14264786669108 26.14264786669108 26.120673869254716 26.120673869254716 26.098699871818347 26.054751876945616 26.032777879509247 26.01080388207288 25.988829884636512 25.988829884636512 25.944881889763778 25.900933894891047 25.878959897454678 25.835011902581943 25.791063907709212 25.769089910272843 25.747115912836477 25.72514191540011 25.703167917963743 25.703167917963743 25.681193920527377 25.65921992309101 25.65921992309101 25.65921992309101 25.65921992309101 25.65921992309101 25.637245925654643 25.637245925654643 25.637245925654643 25.637245925654643 25.637245925654643 25.615271928218274 25.615271928218274 25.615271928218274 25.593297930781908 25.593297930781908 25.593297930781908 25.571323933345543 25.593297930781908 25.571323933345543 25.571323933345543 25.571323933345543 25.571323933345543 25.571323933345543 25.571323933345543 25.571323933345543 25.571323933345543 25.571323933345543 25.571323933345543 25.549349935909174 25.549349935909174 25.549349935909174 25.549349935909174 25.549349935909174 25.549349935909174 25.549349935909174 25.549349935909174 25.527375938472808 25.527375938472808 25.527375938472808 25.527375938472808 25.527375938472808 25.527375938472808 25.527375938472808 25.50540194103644 25.50540194103644 25.50540194103644 25.50540194103644 25.50540194103644 25.50540194103644 25.483427943600073 25.483427943600073 25.483427943600073 25.483427943600073 25.483427943600073 25.483427943600073 25.483427943600073 25.483427943600073 25.483427943600073 25.483427943600073 25.483427943600073 25.483427943600073 25.483427943600073 25.483427943600073 25.483427943600073 25.483427943600073 25.483427943600073 25.483427943600073 25.483427943600073 25.483427943600073 25.483427943600073 25.461453946163708 25.461453946163708 25.461453946163708 25.483427943600073 25.483427943600073 25.483427943600073 25.461453946163708 25.461453946163708 25.461453946163708 25.461453946163708 25.461453946163708 25.461453946163708 25.461453946163708 25.483427943600073 25.461453946163708 25.461453946163708 25.461453946163708 25.461453946163708 25.483427943600073 25.461453946163708 25.461453946163708 25.461453946163708 25.483427943600073 25.483427943600073 25.461453946163708 25.483427943600073 25.461453946163708 25.461453946163708 25.461453946163708 25.461453946163708 25.483427943600073 25.461453946163708 25.483427943600073 25.483427943600073 25.483427943600073 25.483427943600073 25.461453946163708 25.483427943600073 25.483427943600073 25.483427943600073 25.483427943600073 25.483427943600073 25.483427943600073 25.483427943600073 25.483427943600073 25.483427943600073 25.483427943600073 25.483427943600073 25.483427943600073 25.483427943600073 25.483427943600073 25.483427943600073 25.483427943600073 25.483427943600073 25.483427943600073 25.50540194103644 25.483427943600073 25.50540194103644 25.483427943600073 25.50540194103644 25.50540194103644 25.483427943600073 25.50540194103644 25.50540194103644 25.50540194103644 25.50540194103644 25.50540194103644 25.50540194103644 25.50540194103644 25.50540194103644 25.50540194103644 25.50540194103644 25.50540194103644 25.50540194103644 25.50540194103644 25.483427943600073 25.50540194103644 25.50540194103644 25.50540194103644 25.50540194103644 25.50540194103644 25.527375938472808 25.527375938472808 25.549349935909174 25.549349935909174 25.571323933345543 25.593297930781908 25.615271928218274 25.637245925654643 25.681193920527377 25.747115912836477 25.791063907709212 25.878959897454678 25.944881889763778 26.054751876945616 26.164621864127447 26.208569859000182 26.340413843618386 26.42830983336385 26.538179820545686 26.60410181285479 26.58212781541842 26.67002380516389 26.779893792345725 26.757919794909355 26.252517853872916 25.417505951290973 25.35158395898187 25.527375938472808 25.769089910272843 26.164621864127447 27.505035707745833 27.922541659036806 28.71360556674602 29.240981505218826 29.878227430873466 30.647317341146312 31.08679728987365 31.636147225782825 32.185497161692 32.4491851309284 33.086431056583045 33.438015015564915 33.96539095403772 34.44881889763779 34.7784288591833 35.19593481047427 35.56949276689251 35.85515473356528 36.09686870536532 36.44845266434719 36.668192638710856 37.195568577183664 37.65702252334737 38.47006042849295 39.08533235671123 39.4369163156931 39.898370261856805 40.645486174693275 41.78813404138436 42.90880791063908 43.91961179271196 45.04028566196667 46.07306354147592 46.86412744918513 48.18256729536715 49.14942318256729 50.42391503387658 51.6105108954404 52.357626808276876 53.368430690349754 54.04962461087713 55.63175242629555 56.312946346822926 57.038088262223035 58.13678813404138 59.521149972532506 59.850759934078006 60.86156381615089 61.96026368796924 62.993041567478485 63.696209485442225 64.35542940853324 65.62992125984252 66.55282915216993 67.34389305987915 68.35469694195203 69.1018128547885 70.04669474455227 70.99157663431606 71.56290056766161 72.46383446255265 73.38674235488006 74.06793627540745 75.29848013184399 75.78190807544406 76.57297198315328 77.47390587804432 78.06720380882624 78.90221571140816 79.82512360373559 80.77000549349935 81.67093938839041 82.28621131660869 83.12122321919063 83.71452114997254 84.21992309100898 85.3405969602637 86.19758286028201 86.72495879875481 87.47207471159129 87.95550265519137 88.61472257828237 89.22999450650065 89.62552646035525 90.24079838857352 90.83409631935542 91.22962827321004 91.82292620399194 92.35030214246476 92.8557040835012 93.14136605017397 93.40505401941037 93.73466398095587 94.04229994506501 94.19611792711957 94.34993590917415 94.43783189891961 94.52572788866507 94.56967588353781 94.59164988097419 94.59164988097419 94.59164988097419 94.56967588353781 94.56967588353781 94.56967588353781 94.52572788866507 94.50375389122871 94.50375389122871 94.50375389122871 94.50375389122871 94.48177989379235 94.48177989379235 94.45980589635599 94.43783189891961 94.41585790148325 94.41585790148325 94.39388390404687 94.37190990661051 94.34993590917415 94.30598791430141 94.28401391686505 94.24006592199231 94.17414392968321 94.13019593481047 94.06427394250137 94.02032594762865 93.97637795275591 93.88848196301043 93.86650796557407 93.80058597326497 93.7786119758286 93.75663797839223 93.73466398095587 93.71268998351951 93.71268998351951 93.69071598608313 93.66874198864677 93.62479399377403 93.53689800402857 93.49295000915583 93.42702801684673 93.33913202710126 93.1853140450467 93.1193920527376 93.09741805530123 93.0534700604285 93.0534700604285 93.03149606299212 93.00952206555576 93.00952206555576 92.96557407068303 92.96557407068303 92.94360007324666 92.94360007324666 92.94360007324666 92.96557407068303 92.9216260758103 92.89965207837392 92.87767808093756 92.83373008606483 92.7897820911921 92.74583409631936 92.70188610144663 92.59201611426478 92.57004211682842 92.57004211682842 92.54806811939206 92.5260941219557 92.5260941219557 92.50412012451932 92.48214612708296 92.43819813221022 92.37227613990112 92.35030214246476 92.26240615271928 92.21845815784656 92.15253616553744 92.06464017579198 91.99871818348288 91.93279619117378 91.86687419886468 91.8449002014283 91.82292620399194 91.8449002014283 91.8449002014283 91.86687419886468 91.86687419886468 91.8449002014283 91.86687419886468 91.86687419886468 91.86687419886468 91.8449002014283 91.8449002014283 91.8449002014283 91.8449002014283 91.8449002014283 91.8449002014283 91.82292620399194 91.82292620399194 91.82292620399194 91.82292620399194 91.82292620399194 91.82292620399194 91.82292620399194 91.82292620399194 91.82292620399194 91.82292620399194 91.82292620399194 91.82292620399194 91.82292620399194 91.80095220655558 91.77897820911922 91.75700421168284 91.75700421168284 91.73503021424648 91.7130562168101 91.69108221937374 91.66910822193738 91.64713422450102 91.64713422450102 91.62516022706464 91.60318622962828 91.55923823475554 91.55923823475554 91.53726423731918 91.51529023988282 91.51529023988282 91.49331624244644 91.47134224501008 91.47134224501008 91.47134224501008 91.4493682475737 91.42739425013734 91.42739425013734 91.42739425013734 91.40542025270096 91.40542025270096 91.40542025270096 91.3834462552646 91.3834462552646 91.36147225782824 91.36147225782824 91.33949826039188 91.33949826039188 91.3175242629555 91.3175242629555 91.29555026551914 91.3175242629555 91.27357626808276 91.22962827321004 91.22962827321004 91.1856802783373 91.16370628090094 91.1197582860282 91.1197582860282 91.09778428859184 91.0538362937191 91.00988829884636 90.98791430141 90.96594030397362 90.94396630653726 90.96594030397362 90.94396630653726 90.9219923091009 90.90001831166454 90.90001831166454 90.87804431422816 90.8560703167918 90.81212232191906 90.81212232191906 90.76817432704634 90.76817432704634 90.70225233473722 90.68027833730086 90.68027833730086 90.65830433986449 90.65830433986449 90.65830433986449 90.63633034242812 90.65830433986449 90.63633034242812 90.63633034242812 90.61435634499176 90.5923823475554 90.57040835011902 90.52646035524629 90.50448635780992 90.50448635780992 90.48251236037356 90.48251236037356 90.50448635780992 90.48251236037356 90.48251236037356 90.4605383629372 90.43856436550082 90.41659036806446 90.41659036806446 90.39461637062809 90.37264237319172 90.328694378319 90.30672038088262 90.26277238600989 90.21882439113715 90.19685039370079 90.15290239882806 90.10895440395532 90.10895440395532 90.06500640908259 90.06500640908259 90.02105841420986 89.97711041933712 89.95513642190075 89.88921442959166 89.86724043215528 89.82329243728255 89.77934444240981 89.75737044497345 89.71342245010072 89.69144845266435 89.66947445522798 89.66947445522798 89.66947445522798 89.66947445522798 89.66947445522798 89.66947445522798 89.66947445522798 89.66947445522798 89.64750045779161 89.66947445522798 89.66947445522798 89.66947445522798 89.64750045779161 89.62552646035525 89.62552646035525 89.60355246291888 89.60355246291888 89.60355246291888 89.60355246291888 89.60355246291888 89.60355246291888 89.60355246291888 89.58157846548252 89.55960446804615 89.55960446804615 89.53763047060978 89.51565647317341 89.49368247573705 89.47170847830067 89.47170847830067 89.47170847830067 89.44973448086431 89.44973448086431 89.44973448086431 89.44973448086431 89.44973448086431 89.42776048342795 89.42776048342795 89.40578648599158 89.38381248855521 89.36183849111885 89.33986449368247 89.31789049624611 89.25196850393701 89.22999450650065 89.18604651162791 89.14209851675518 89.07617652444607 89.07617652444607 89.0542025270097 89.0542025270097 89.03222852957333 89.0542025270097 89.0542025270097 89.03222852957333 89.03222852957333 89.03222852957333 89.03222852957333 89.03222852957333 89.03222852957333 89.0542025270097 89.03222852957333 89.03222852957333 89.0542025270097 89.03222852957333 89.03222852957333 89.03222852957333 89.0542025270097 89.0542025270097 89.03222852957333 89.03222852957333 89.01025453213697 88.9882805347006 88.90038454495513 88.83446255264604 88.6586705731551 88.57077458340964 88.48287859366417 88.35103460904597 88.24116462186413 88.13129463468229 88.08734663980957 88.04339864493683 87.95550265519137 87.93352865775499 87.91155466031863 87.91155466031863 87.91155466031863 87.91155466031863 87.91155466031863 87.91155466031863 87.82365867057317 87.75773667826405 87.62589269364585 87.51602270646401 87.42812671671855 87.27430873466398 87.16443874748215 87.03259476286395 86.94469877311849 86.72495879875481 86.57114081670024 86.28547885002747 86.08771287310017 85.75810291155466 85.38454495513642 85.12085698590002 84.72532503204542 84.3297930781908 84.04413111151804 83.6046511627907 83.31898919611793 82.74766526277239 82.46200329609962 82.17634132942685 81.75883537813587 81.12158945248123 80.9457974729903 80.30855154733565 80.02288958066288 79.51748763962644 79.12195568577184 78.79234572422632 77.97930781908076 77.38600988829884 77.0124519318806 76.50704999084417 76.13349203442593 75.62809009338949 75.01281816517121 74.59531221388025 74.04596227797106 73.47463834462553 73.03515839589818 72.31001648049809 71.87053653177074 71.21131660867974 70.48617469327962 70.09064273942502 69.47537081120674 68.61838491118843 68.24482695477019 67.89324299578831 67.34389305987915 66.75059512909723 66.1133492034426 65.89360922907892 64.99267533418788 64.55319538546054 63.850027467496794 63.124885552096686 62.57553561618751 62.00421168284197 61.25709577000549 60.70774583409632 59.894707928950744 59.34535799304157 58.57626808276872 57.74125618018678 56.972166269913934 56.554660318622965 55.89544039553195 55.49990844167735 54.88463651345907 54.42318256729537 53.588170664713424 52.928950741622415 52.44552279802234 51.7423548800586 50.97326496978575 50.73155099798572 49.962461087712875 49.45705914667643 48.81981322102179 48.09467130562168 47.50137337483977 46.57846548251236 45.43581761582128 44.97436366965757 44.46896172862113 44.073429774766524 43.436183849111885 42.798937923457245 42.49130195934811 42.24958798754807 41.94195202343893 41.70023805163889 41.34865409265702 41.21681010803882 40.79930415674785 40.469694195202344 40.27192821827504 39.986266251602274 39.678630287493135 39.458890313129466 39.12928035158396 38.90954037722029 38.51400842336568 38.20637245925654 38.03058047976561 37.87676249771104 37.52517853872917 37.34938655923823 37.195568577183664 37.019776597692726 36.646218641274494 36.338582677165356 36.09686870536532 35.74528474638345 35.48159677714705 35.15198681560154 34.99816883354697 34.80040285661967 34.60263687969236 34.11920893609229 33.767624977110415 33.54788500274675 33.459989013001284 33.32814502838308 33.240249038637614 33.196301043764876 32.932613074528476 32.62497711041934 32.36128914118294 32.0536531770738 31.833913202710125 31.41640725141915 31.020875297564547 30.801135323200878 30.51547335652811 30.163889397546235 29.812305438564366 29.284929500091557 28.581761582127815 28.581761582127815 28.77952755905512 28.71360556674602 28.449917597509614 27.922541659036806 27.834645669291337 27.614905694927668 27.483061710309467 27.219373741073063 27.17542574620033 26.999633766709394 26.779893792345725 26.713971800036624 26.51620582310932 26.472257828236586 26.29646584874565 26.098699871818347 26.098699871818347 26.07672587438198 25.813037905145578 25.791063907709212 25.549349935909174 25.50540194103644 25.50540194103644 25.681193920527377 25.856985900018312 26.098699871818347 26.098699871818347 