29.0 28.969236403589086 29.0 28.969236403589086 29.0 29.0 28.969236403589086 28.969236403589086 28.969236403589086 29.0 28.969236403589086 29.0 29.0 29.0 28.969236403589086 29.0 29.0 28.969236403589086 28.969236403589086 29.0 29.0 29.0 29.0 28.969236403589086 29.0 28.969236403589086 29.0 28.969236403589086 28.969236403589086 28.969236403589086 28.969236403589086 29.0 28.969236403589086 29.0 28.969236403589086 29.0 29.0 28.969236403589086 28.969236403589086 29.0 29.0 28.969236403589086 28.969236403589086 29.0 29.0 28.969236403589086 29.0 29.0 29.0 28.969236403589086 29.0 28.969236403589086 29.0 28.969236403589086 28.969236403589086 28.969236403589086 28.969236403589086 29.0 29.0 29.0 29.0 28.969236403589086 29.0 29.0 29.0 29.0 29.0 29.0 29.0 29.0 29.0 28.969236403589086 28.969236403589086 29.0 28.969236403589086 29.0 28.969236403589086 29.0 28.969236403589086 28.969236403589086 29.0 29.0 29.0 29.0 29.0 29.0 28.969236403589086 28.969236403589086 28.969236403589086 28.969236403589086 29.0 29.0 29.0 29.0 29.0 28.969236403589086 28.969236403589086 29.0 29.0 29.0 29.0 28.969236403589086 29.0 28.969236403589086 29.0 29.0 29.0 28.969236403589086 29.0 29.0 28.969236403589086 28.969236403589086 29.0 28.969236403589086 28.969236403589086 29.0 29.0 29.0 28.969236403589086 28.969236403589086 29.0 28.969236403589086 28.969236403589086 29.0 29.0 28.969236403589086 29.0 29.0 28.969236403589086 29.0 28.969236403589086 28.969236403589086 28.969236403589086 29.0 29.0 29.0 29.0 29.0 29.0 29.0 29.0 29.0 28.969236403589086 28.969236403589086 28.969236403589086 29.0 28.969236403589086 28.969236403589086 29.0 28.969236403589086 28.969236403589086 28.969236403589086 29.0 28.969236403589086 29.0 28.969236403589086 29.0 29.0 28.969236403589086 28.969236403589086 29.0 29.0 28.969236403589086 29.0 29.0 29.0 28.969236403589086 29.0 28.969236403589086 29.0 29.0 29.0 29.0 28.969236403589086 29.0 29.0 28.969236403589086 29.0 29.0 28.969236403589086 28.969236403589086 28.969236403589086 29.0 29.0 29.0 29.0 28.969236403589086 29.0 29.0 28.969236403589086 28.969236403589086 29.0 28.969236403589086 29.0 28.969236403589086 28.969236403589086 28.969236403589086 29.0 28.969236403589086 29.0 29.0 29.0 28.969236403589086 29.0 29.0 28.969236403589086 29.0 28.969236403589086 29.0 28.969236403589086 29.0 28.969236403589086 29.0 29.0 28.969236403589086 28.969236403589086 28.969236403589086 28.969236403589086 29.0 29.0 29.0 29.0 29.0 29.0 29.0 29.0 28.969236403589086 29.0 29.0 29.0 28.969236403589086 28.969236403589086 28.969236403589086 29.0 29.0 28.969236403589086 28.969236403589086 28.969236403589086 29.0 29.0 28.969236403589086 28.969236403589086 29.0 29.0 28.969236403589086 28.969236403589086 29.0 28.969236403589086 29.0 29.0 29.0 28.969236403589086 28.969236403589086 28.969236403589086 28.969236403589086 28.969236403589086 29.0 29.0 28.969236403589086 29.0 29.0 29.0 29.0 29.0 29.0 28.969236403589086 28.969236403589086 28.969236403589086 29.0 29.0 29.0 29.0 28.969236403589086 28.969236403589086 28.969236403589086 28.969236403589086 29.0 28.969236403589086 28.969236403589086 28.969236403589086 29.0 28.969236403589086 28.969236403589086 28.969236403589086 28.969236403589086 28.969236403589086 28.969236403589086 28.969236403589086 29.0 28.969236403589086 28.969236403589086 28.969236403589086 29.0 28.969236403589086 28.969236403589086 29.0 28.969236403589086 28.969236403589086 29.0 28.969236403589086 29.0 29.0 28.969236403589086 28.969236403589086 28.969236403589086 28.969236403589086 29.0 29.0 29.0 28.969236403589086 28.969236403589086 28.969236403589086 29.0 29.0 28.969236403589086 29.0 29.0 29.0 28.969236403589086 28.969236403589086 28.969236403589086 29.0 29.0 28.969236403589086 29.0 29.0 29.0 28.969236403589086 29.0 28.969236403589086 29.0 29.0 29.0 28.969236403589086 29.0 29.0 28.969236403589086 28.969236403589086 29.0 29.0 28.969236403589086 29.0 29.0 29.0 29.0 29.0 29.0 29.0 28.969236403589086 28.969236403589086 28.969236403589086 28.969236403589086 29.0 28.969236403589086 29.0 28.969236403589086 29.0 28.969236403589086 29.0 28.969236403589086 29.0 28.969236403589086 29.0 29.0 29.0 29.0 28.969236403589086 28.969236403589086 29.0 29.0 29.0 29.0 29.0 29.0 29.0 28.969236403589086 29.0 29.0 28.969236403589086 28.969236403589086 29.0 28.969236403589086 29.0 29.0 28.969236403589086 28.969236403589086 29.0 28.969236403589086 29.0 29.0 29.0 28.969236403589086 29.0 28.969236403589086 28.969236403589086 29.0 29.0 28.969236403589086 28.969236403589086 29.0 29.0 29.0 28.969236403589086 28.969236403589086 29.0 29.0 29.0 29.0 28.969236403589086 28.969236403589086 29.0 29.0 29.0 28.969236403589086 28.969236403589086 28.969236403589086 28.969236403589086 29.0 29.0 28.969236403589086 28.969236403589086 29.0 29.0 28.969236403589086 29.0 29.0 28.969236403589086 29.0 28.969236403589086 28.969236403589086 28.969236403589086 29.0 28.969236403589086 28.969236403589086 28.969236403589086 29.0 29.0 28.969236403589086 29.0 28.969236403589086 29.0 29.0 29.0 28.969236403589086 28.969236403589086 29.0 29.0 29.0 29.0 28.969236403589086 29.0 29.0 29.0 28.969236403589086 29.0 28.969236403589086 28.969236403589086 29.0 29.0 28.969236403589086 29.0 28.969236403589086 28.969236403589086 28.969236403589086 29.0 29.0 29.0 29.0 28.969236403589086 29.0 28.969236403589086 29.0 29.0 29.0 29.0 28.969236403589086 29.0 28.969236403589086 28.969236403589086 29.0 29.0 28.969236403589086 28.969236403589086 29.0 29.0 28.969236403589086 29.0 29.0 29.0 28.969236403589086 29.0 28.969236403589086 29.0 29.0 29.0 29.0 29.0 29.0 28.969236403589086 29.0 29.0 29.0 28.969236403589086 29.0 29.0 29.0 28.969236403589086 29.0 28.969236403589086 28.969236403589086 29.0 29.0 29.0 29.0 28.969236403589086 28.969236403589086 29.0 28.969236403589086 28.969236403589086 29.0 28.969236403589086 28.969236403589086 29.0 29.0 28.969236403589086 29.0 29.0 28.969236403589086 29.0 29.0 29.0 28.969236403589086 29.0 29.0 29.0 29.0 29.0 28.969236403589086 29.0 28.969236403589086 28.969236403589086 29.0 29.0 28.969236403589086 29.0 28.969236403589086 28.969236403589086 28.969236403589086 28.969236403589086 29.0 28.969236403589086 29.0 29.0 28.969236403589086 29.0 29.0 28.969236403589086 29.0 29.0 29.0 29.0 29.0 28.969236403589086 28.969236403589086 29.0 29.0 28.969236403589086 29.0 28.969236403589086 29.0 28.969236403589086 28.969236403589086 29.0 29.0 29.0 29.0 28.969236403589086 29.0 29.0 28.969236403589086 29.0 29.0 29.0 29.0 29.0 28.969236403589086 29.0 28.969236403589086 29.0 29.0 28.969236403589086 28.969236403589086 28.969236403589086 29.0 29.0 28.969236403589086 28.969236403589086 28.969236403589086 28.969236403589086 28.969236403589086 29.0 29.0 29.0 29.0 28.969236403589086 29.0 29.030763596410914 29.030763596410914 29.030763596410914 29.030763596410914 29.061527192821828 29.061527192821828 29.061527192821828 29.09229078923274 29.09229078923274 29.09229078923274 29.09229078923274 29.09229078923274 29.123054385643655 29.123054385643655 29.123054385643655 29.123054385643655 29.123054385643655 29.15381798205457 29.15381798205457 29.184581578465483 29.184581578465483 29.215345174876397 29.215345174876397 29.24610877128731 29.24610877128731 29.276872367698225 29.276872367698225 29.30763596410914 29.30763596410914 29.338399560520052 29.338399560520052 29.338399560520052 29.369163156930966 29.369163156930966 29.369163156930966 29.39992675334188 29.39992675334188 29.39992675334188 29.430690349752794 29.430690349752794 29.430690349752794 29.461453946163708 29.461453946163708 29.461453946163708 29.49221754257462 29.49221754257462 29.522981138985532 29.522981138985532 29.522981138985532 29.522981138985532 29.553744735396446 29.553744735396446 29.58450833180736 29.58450833180736 29.615271928218274 29.615271928218274 29.646035524629188 29.6767991210401 29.6767991210401 29.73832631386193 29.73832631386193 29.73832631386193 29.769089910272843 29.769089910272843 29.799853506683757 29.799853506683757 29.83061710309467 29.861380699505585 29.861380699505585 29.861380699505585 29.861380699505585 29.861380699505585 29.861380699505585 29.8921442959165 29.8921442959165 29.922907892327412 29.953671488738326 29.98443508514924 30.015198681560154 30.045962277971068 30.07672587438198 30.107489470792896 30.13825306720381 30.169016663614723 30.199780260025637 30.261307452847465 30.29207104925838 30.353598242080206 30.415125434902034 30.47665262772386 30.507416224134772 30.599707013367514 30.66123420618934 30.753524995422083 30.845815784654825 30.999633766709394 31.245742537996705 31.338033327229446 31.430324116462188 31.64566929133858 31.79948727339315 31.922541659036806 32.014832448269544 32.168650430324114 32.29170481596777 32.38399560520051 32.568577183665994 32.75315876213148 32.87621314777513 33.060794726240616 33.15308551547336 33.27613990111701 33.49148507599341 33.58377586522615 33.7068302508698 33.829884636513455 33.89141182933528 34.04522981138985 34.10675700421168 34.26057498626625 34.41439296832082 34.50668375755356 34.629738143197216 34.87584691448453 35.029664896539096 35.21424647500458 35.337300860648234 35.52188243911371 35.706464017579194 35.86028199963376 36.106390770921074 36.29097234938656 36.56784471708478 36.84471708478301 37.060062259659404 37.459989013001284 37.767624977110415 37.89067936275407 38.22907892327412 38.44442409815052 38.721296465848745 39.15198681560154 39.367331990477936 39.674967954587075 39.982603918696206 40.1979490935726 40.50558505768174 40.6286394433254 40.936275407434536 41.27467496795458 41.459256546420065 41.705365317707376 41.951474088994686 42.07452847463834 42.259110053103825 42.38216443874748 42.505218824391136 42.59750961362388 42.659036806445705 42.78209119208936 42.905145577733016 42.966672770554844 43.028199963376665 43.0897271561985 43.18201794543124 43.274308734663975 43.33583592748581 43.42812671671855 43.45889031312946 43.45889031312946 43.45889031312946 43.45889031312946 43.45889031312946 43.45889031312946 43.45889031312946 43.45889031312946 43.45889031312946 43.45889031312946 43.45889031312946 43.45889031312946 43.45889031312946 43.45889031312946 43.45889031312946 43.45889031312946 43.45889031312946 43.45889031312946 43.45889031312946 43.42812671671855 43.45889031312946 43.45889031312946 43.45889031312946 43.45889031312946 43.45889031312946 43.45889031312946 43.45889031312946 43.48965390954038 43.45889031312946 43.48965390954038 43.48965390954038 43.52041750595129 43.52041750595129 43.52041750595129 43.52041750595129 43.52041750595129 43.48965390954038 43.52041750595129 43.52041750595129 43.52041750595129 43.52041750595129 43.52041750595129 43.52041750595129 43.52041750595129 43.52041750595129 43.52041750595129 43.52041750595129 43.581944698773114 43.612708295184035 43.64347189159494 43.67423548800586 43.67423548800586 43.67423548800586 43.67423548800586 43.67423548800586 43.67423548800586 43.70499908441677 43.70499908441677 43.70499908441677 43.67423548800586 43.67423548800586 43.67423548800586 43.67423548800586 43.67423548800586 43.67423548800586 43.70499908441677 43.67423548800586 43.67423548800586 43.67423548800586 43.67423548800586 43.67423548800586 43.67423548800586 43.67423548800586 43.67423548800586 43.67423548800586 43.67423548800586 43.67423548800586 43.67423548800586 43.67423548800586 43.67423548800586 43.67423548800586 43.67423548800586 43.67423548800586 43.67423548800586 43.67423548800586 43.67423548800586 43.67423548800586 43.67423548800586 43.67423548800586 43.67423548800586 43.70499908441677 43.70499908441677 43.67423548800586 43.70499908441677 43.73576268082768 43.7665262772386 43.79728987364952 43.85881706647134 43.88958066288225 43.88958066288225 43.92034425929317 43.92034425929317 43.95110785570408 43.981871452114994 43.981871452114994 43.981871452114994 44.01263504852591 43.981871452114994 43.981871452114994 43.981871452114994 43.981871452114994 44.01263504852591 44.01263504852591 44.01263504852591 44.01263504852591 44.01263504852591 44.01263504852591 44.01263504852591 44.01263504852591 44.01263504852591 44.01263504852591 44.01263504852591 44.01263504852591 44.01263504852591 44.01263504852591 44.01263504852591 44.01263504852591 44.01263504852591 44.01263504852591 44.074162241347736 44.04339864493682 44.04339864493682 44.04339864493682 44.04339864493682 44.04339864493682 44.04339864493682 44.04339864493682 44.04339864493682 44.04339864493682 44.04339864493682 44.04339864493682 44.04339864493682 44.04339864493682 44.04339864493682 44.074162241347736 44.04339864493682 44.04339864493682 44.04339864493682 44.074162241347736 44.074162241347736 44.04339864493682 44.074162241347736 44.074162241347736 44.10492583775865 44.10492583775865 44.135689434169564 44.16645303058048 44.19721662699139 44.19721662699139 44.227980223402305 44.19721662699139 44.227980223402305 44.227980223402305 44.227980223402305 44.19721662699139 44.227980223402305 44.19721662699139 44.227980223402305 44.227980223402305 44.227980223402305 44.227980223402305 44.227980223402305 44.227980223402305 44.19721662699139 44.19721662699139 44.19721662699139 44.227980223402305 44.227980223402305 44.227980223402305 44.227980223402305 44.19721662699139 44.227980223402305 44.19721662699139 44.19721662699139 44.227980223402305 44.19721662699139 44.19721662699139 44.227980223402305 44.19721662699139 44.19721662699139 44.19721662699139 44.19721662699139 44.227980223402305 44.19721662699139 44.19721662699139 44.19721662699139 44.227980223402305 44.227980223402305 44.227980223402305 44.227980223402305 44.227980223402305 44.227980223402305 44.227980223402305 44.19721662699139 44.227980223402305 44.227980223402305 44.19721662699139 44.227980223402305 44.227980223402305 44.227980223402305 44.227980223402305 44.227980223402305 44.227980223402305 44.227980223402305 44.227980223402305 44.227980223402305 44.227980223402305 44.227980223402305 44.227980223402305 44.227980223402305 44.227980223402305 44.227980223402305 44.227980223402305 44.227980223402305 44.227980223402305 44.227980223402305 44.227980223402305 44.227980223402305 44.227980223402305 44.25874381981322 44.28950741622413 44.28950741622413 44.32027101263505 44.32027101263505 44.32027101263505 44.32027101263505 44.35103460904596 44.381798205456874 44.41256180186779 44.41256180186779 44.41256180186779 44.41256180186779 44.41256180186779 44.4433253982787 44.4433253982787 44.474088994689616 44.474088994689616 44.474088994689616 44.474088994689616 44.50485259110053 44.50485259110053 44.474088994689616 44.474088994689616 44.474088994689616 44.50485259110053 44.535616187511444 44.535616187511444 44.56637978392236 44.56637978392236 44.59714338033327 44.627906976744185 44.627906976744185 44.6586705731551 44.72019776597693 44.72019776597693 44.75096136238784 44.781724958798755 44.84325215162058 44.84325215162058 44.874015748031496 44.90477934444241 44.935542940853324 44.935542940853324 44.96630653726424 44.96630653726424 44.99707013367515 45.02783373008606 44.99707013367515 45.02783373008606 45.02783373008606 45.02783373008606 45.02783373008606 45.02783373008606 45.02783373008606 45.02783373008606 45.02783373008606 45.05859732649698 45.05859732649698 45.05859732649698 45.089360922907886 45.089360922907886 45.089360922907886 45.089360922907886 45.089360922907886 45.089360922907886 45.089360922907886 45.089360922907886 45.089360922907886 45.089360922907886 45.05859732649698 45.089360922907886 45.089360922907886 45.089360922907886 45.089360922907886 45.089360922907886 45.089360922907886 45.05859732649698 45.05859732649698 45.089360922907886 45.089360922907886 45.05859732649698 45.05859732649698 45.05859732649698 45.05859732649698 45.05859732649698 45.05859732649698 45.089360922907886 45.05859732649698 45.05859732649698 45.089360922907886 45.05859732649698 45.089360922907886 45.089360922907886 45.089360922907886 45.05859732649698 45.089360922907886 45.089360922907886 45.05859732649698 45.05859732649698 45.05859732649698 45.089360922907886 45.089360922907886 45.05859732649698 45.05859732649698 45.089360922907886 45.089360922907886 45.05859732649698 45.05859732649698 45.05859732649698 45.02783373008606 44.96630653726424 44.90477934444241 44.781724958798755 44.627906976744185 44.535616187511444 44.381798205456874 44.19721662699139 43.981871452114994 43.828053470060425 43.64347189159494 43.45889031312946 43.305072331074896 43.12049075260941 43.028199963376665 42.8743819813221 42.72056399926753 42.566746017212964 42.35140084233657 42.259110053103825 42.16681926387108 42.013001281816514 41.85918329976195 41.58231093206372 41.336202160776416 41.15162058231093 40.90551181102362 40.65940303973631 40.444057864859914 40.22871268998352 40.044131111518034 39.79802234023072 39.55191356894342 39.367331990477936 39.15198681560154 38.90587804431423 38.69053286943783 38.53671488738326 38.38289690532869 38.167551730452296 37.859915766343164 37.73686138069951 37.42922541659037 37.152353048892145 36.906244277604834 36.81395348837209 36.62937190990661 36.3832631386193 36.07562717451016 35.9218091924556 35.61417322834646 35.55264603552463 35.429591649880976 35.30653726423732 35.15271928218275 34.99890130012818 34.84508331807361 34.72202893242996 34.56821095037539 34.475920161142646 34.32210217908808 34.10675700421168 34.04522981138985 33.89141182933528 33.73759384728072 33.67606665445889 33.58377586522615 33.49148507599341 33.39919428676067 33.33766709393884 33.30690349752793 33.2453763047061 33.15308551547336 33.12232191906244 32.99926753341879 32.93774034059696 32.84544955136422 32.75315876213148 32.69163156930965 32.568577183665994 32.47628639443325 32.414759201611425 32.3532320087896 32.29170481596777 32.19941402673503 32.1378868339132 32.107123237502286 32.04559604468046 32.014832448269544 31.984068851858634 31.922541659036806 31.86101446621498 31.768723676982237 31.64566929133858 31.614905694927668 31.491851309284012 31.27650613440762 31.184215345174877 30.999633766709394 30.907342977476652 30.784288591832997 30.691997802600255 30.630470609778428 30.5689434169566 30.507416224134772 30.415125434902034 30.29207104925838 30.23054385643655 30.107489470792896 30.045962277971068 29.953671488738326 29.861380699505585 29.861380699505585 29.83061710309467 29.799853506683757 29.769089910272843 29.769089910272843 29.73832631386193 29.707562717451015 29.707562717451015 29.707562717451015 29.6767991210401 29.6767991210401 29.6767991210401 29.6767991210401 29.6767991210401 29.6767991210401 29.646035524629188 29.646035524629188 29.646035524629188 29.646035524629188 29.615271928218274 29.615271928218274 29.58450833180736 29.58450833180736 29.58450833180736 29.58450833180736 29.553744735396446 29.553744735396446 29.553744735396446 29.553744735396446 29.522981138985532 29.522981138985532 29.522981138985532 29.522981138985532 29.49221754257462 29.49221754257462 29.49221754257462 29.49221754257462 29.49221754257462 29.49221754257462 29.461453946163708 29.49221754257462 29.461453946163708 29.461453946163708 29.461453946163708 29.461453946163708 29.461453946163708 29.461453946163708 29.461453946163708 29.461453946163708 29.461453946163708 29.461453946163708 29.461453946163708 29.461453946163708 29.461453946163708 29.461453946163708 29.430690349752794 29.430690349752794 29.430690349752794 29.430690349752794 29.430690349752794 29.430690349752794 29.430690349752794 29.430690349752794 29.430690349752794 29.430690349752794 29.430690349752794 29.430690349752794 29.430690349752794 29.430690349752794 29.430690349752794 29.430690349752794 29.430690349752794 29.430690349752794 29.430690349752794 29.430690349752794 29.39992675334188 29.430690349752794 29.430690349752794 29.39992675334188 29.39992675334188 29.39992675334188 29.39992675334188 29.39992675334188 29.39992675334188 29.39992675334188 29.39992675334188 29.39992675334188 29.369163156930966 29.369163156930966 29.369163156930966 29.369163156930966 29.369163156930966 29.369163156930966 29.338399560520052 29.369163156930966 29.369163156930966 29.369163156930966 29.369163156930966 29.338399560520052 29.338399560520052 29.338399560520052 29.338399560520052 29.338399560520052 29.338399560520052 29.338399560520052 29.338399560520052 29.338399560520052 29.338399560520052 29.338399560520052 29.338399560520052 29.338399560520052 29.338399560520052 29.338399560520052 29.338399560520052 29.338399560520052 29.338399560520052 29.338399560520052 29.338399560520052 29.338399560520052 29.338399560520052 29.338399560520052 29.338399560520052 29.338399560520052 29.338399560520052 29.338399560520052 29.338399560520052 29.338399560520052 29.338399560520052 29.338399560520052 29.338399560520052 29.338399560520052 29.338399560520052 29.338399560520052 29.338399560520052 29.338399560520052 29.338399560520052 29.338399560520052 29.338399560520052 29.338399560520052 29.338399560520052 29.30763596410914 29.30763596410914 29.30763596410914 29.30763596410914 29.30763596410914 29.276872367698225 29.276872367698225 29.276872367698225 29.24610877128731 29.24610877128731 29.24610877128731 29.24610877128731 29.24610877128731 29.215345174876397 29.215345174876397 29.215345174876397 29.215345174876397 29.215345174876397 29.24610877128731 29.215345174876397 29.215345174876397 29.215345174876397 29.215345174876397 29.215345174876397 29.215345174876397 29.184581578465483 29.184581578465483 29.215345174876397 29.215345174876397 29.184581578465483 29.215345174876397 29.184581578465483 29.184581578465483 29.215345174876397 29.184581578465483 29.184581578465483 29.184581578465483 29.184581578465483 29.184581578465483 29.184581578465483 29.184581578465483 29.184581578465483 29.184581578465483 29.184581578465483 29.184581578465483 29.184581578465483 29.184581578465483 29.184581578465483 29.184581578465483 29.184581578465483 29.184581578465483 29.184581578465483 29.184581578465483 29.184581578465483 29.184581578465483 29.184581578465483 29.184581578465483 29.184581578465483 29.184581578465483 29.184581578465483 29.184581578465483 29.184581578465483 29.184581578465483 29.184581578465483 29.184581578465483 29.184581578465483 29.184581578465483 29.184581578465483 29.184581578465483 29.184581578465483 29.184581578465483 29.15381798205457 29.184581578465483 29.15381798205457 29.15381798205457 29.15381798205457 29.15381798205457 29.15381798205457 29.15381798205457 29.15381798205457 29.184581578465483 29.15381798205457 29.184581578465483 29.184581578465483 29.184581578465483 29.15381798205457 29.15381798205457 29.15381798205457 29.15381798205457 29.15381798205457 29.15381798205457 29.15381798205457 29.15381798205457 29.15381798205457 29.15381798205457 29.15381798205457 29.15381798205457 29.15381798205457 29.15381798205457 29.15381798205457 29.15381798205457 29.15381798205457 29.15381798205457 29.15381798205457 29.15381798205457 29.15381798205457 29.15381798205457 29.15381798205457 29.15381798205457 29.15381798205457 29.15381798205457 29.15381798205457 29.15381798205457 29.15381798205457 29.15381798205457 29.15381798205457 29.15381798205457 29.15381798205457 29.15381798205457 29.15381798205457 29.15381798205457 29.15381798205457 29.15381798205457 29.15381798205457 29.15381798205457 29.123054385643655 29.15381798205457 29.15381798205457 29.123054385643655 29.123054385643655 29.123054385643655 29.123054385643655 29.15381798205457 29.123054385643655 29.15381798205457 29.123054385643655 29.123054385643655 29.15381798205457 29.123054385643655 29.123054385643655 29.15381798205457 29.15381798205457 29.15381798205457 29.123054385643655 29.15381798205457 29.15381798205457 29.123054385643655 29.123054385643655 29.15381798205457 29.123054385643655 29.123054385643655 29.123054385643655 29.123054385643655 29.123054385643655 29.15381798205457 29.15381798205457 29.123054385643655 29.15381798205457 29.15381798205457 29.123054385643655 29.123054385643655 29.15381798205457 29.15381798205457 29.15381798205457 29.15381798205457 29.123054385643655 29.123054385643655 29.15381798205457 29.123054385643655 29.123054385643655 29.123054385643655 29.123054385643655 29.123054385643655 29.15381798205457 29.123054385643655 29.123054385643655 29.123054385643655 29.15381798205457 29.123054385643655 29.123054385643655 29.123054385643655 29.15381798205457 29.123054385643655 29.123054385643655 29.123054385643655 29.123054385643655 29.123054385643655 29.123054385643655 29.123054385643655 29.123054385643655 29.123054385643655 29.123054385643655 29.123054385643655 29.123054385643655 29.123054385643655 29.123054385643655 29.123054385643655 29.123054385643655 29.123054385643655 29.123054385643655 29.123054385643655 29.123054385643655 29.123054385643655 29.123054385643655 29.123054385643655 29.123054385643655 29.123054385643655 29.123054385643655 29.123054385643655 29.123054385643655 29.123054385643655 29.123054385643655 29.123054385643655 29.123054385643655 29.123054385643655 29.123054385643655 29.123054385643655 29.123054385643655 29.123054385643655 29.123054385643655 29.123054385643655 29.123054385643655 29.123054385643655 29.09229078923274 29.123054385643655 29.123054385643655 29.09229078923274 29.09229078923274 29.09229078923274 29.09229078923274 29.09229078923274 29.09229078923274 29.09229078923274 29.09229078923274 29.09229078923274 29.09229078923274 29.09229078923274 29.09229078923274 29.09229078923274 29.09229078923274 29.09229078923274 29.09229078923274 29.09229078923274 29.09229078923274 29.09229078923274 29.09229078923274 29.09229078923274 29.09229078923274 29.09229078923274 29.09229078923274 29.09229078923274 29.09229078923274 29.09229078923274 29.09229078923274 29.09229078923274 29.09229078923274 29.09229078923274 29.09229078923274 29.09229078923274 29.09229078923274 29.09229078923274 29.09229078923274 29.09229078923274 29.09229078923274 29.09229078923274 29.09229078923274 29.09229078923274 29.09229078923274 29.09229078923274 29.09229078923274 29.09229078923274 29.09229078923274 29.09229078923274 29.09229078923274 29.09229078923274 29.09229078923274 29.09229078923274 29.09229078923274 29.09229078923274 29.09229078923274 29.09229078923274 29.09229078923274 29.09229078923274 29.09229078923274 29.09229078923274 29.09229078923274 29.09229078923274 29.09229078923274 29.09229078923274 29.09229078923274 29.09229078923274 29.09229078923274 29.09229078923274 29.09229078923274 29.09229078923274 29.09229078923274 29.09229078923274 29.09229078923274 29.09229078923274 29.09229078923274 29.09229078923274 29.09229078923274 29.09229078923274 29.09229078923274 29.09229078923274 29.09229078923274 29.09229078923274 29.09229078923274 29.09229078923274 29.09229078923274 29.09229078923274 29.09229078923274 29.09229078923274 29.09229078923274 29.09229078923274 29.09229078923274 29.09229078923274 29.09229078923274 29.09229078923274 29.09229078923274 29.09229078923274 29.09229078923274 29.09229078923274 29.09229078923274 29.061527192821828 29.09229078923274 29.061527192821828 29.061527192821828 29.061527192821828 29.061527192821828 29.061527192821828 29.061527192821828 29.09229078923274 29.061527192821828 29.09229078923274 29.061527192821828 29.061527192821828 29.061527192821828 29.061527192821828 29.061527192821828 29.061527192821828 29.061527192821828 29.061527192821828 29.061527192821828 29.061527192821828 29.061527192821828 29.061527192821828 29.061527192821828 29.061527192821828 29.061527192821828 29.061527192821828 29.061527192821828 29.061527192821828 29.061527192821828 29.061527192821828 29.061527192821828 29.061527192821828 29.061527192821828 29.061527192821828 29.061527192821828 29.061527192821828 29.061527192821828 29.061527192821828 29.061527192821828 29.061527192821828 29.061527192821828 29.061527192821828 29.061527192821828 29.061527192821828 29.061527192821828 29.061527192821828 29.061527192821828 29.061527192821828 29.061527192821828 29.061527192821828 29.061527192821828 29.061527192821828 29.061527192821828 29.061527192821828 29.061527192821828 29.061527192821828 29.061527192821828 29.061527192821828 29.030763596410914 29.061527192821828 29.061527192821828 29.061527192821828 29.061527192821828 29.030763596410914 29.030763596410914 29.061527192821828 29.061527192821828 29.061527192821828 29.061527192821828 29.061527192821828 29.061527192821828 29.061527192821828 29.030763596410914 29.061527192821828 29.061527192821828 29.061527192821828 29.061527192821828 29.061527192821828 29.030763596410914 29.061527192821828 29.030763596410914 29.030763596410914 29.030763596410914 29.061527192821828 29.030763596410914 29.061527192821828 29.030763596410914 29.030763596410914 29.061527192821828 29.061527192821828 29.030763596410914 29.030763596410914 29.061527192821828 29.061527192821828 29.030763596410914 29.030763596410914 29.061527192821828 29.030763596410914 29.030763596410914 29.030763596410914 29.061527192821828 29.030763596410914 29.030763596410914 29.030763596410914 29.061527192821828 29.030763596410914 29.030763596410914 29.030763596410914 29.030763596410914 29.061527192821828 29.030763596410914 29.030763596410914 29.030763596410914 29.030763596410914 29.061527192821828 29.030763596410914 29.030763596410914 29.061527192821828 29.030763596410914 29.030763596410914 29.061527192821828 29.030763596410914 29.030763596410914 29.030763596410914 29.030763596410914 29.030763596410914 29.030763596410914 29.030763596410914 29.030763596410914 29.030763596410914 29.030763596410914 29.030763596410914 29.030763596410914 29.030763596410914 29.030763596410914 29.030763596410914 29.030763596410914 29.030763596410914 29.061527192821828 29.030763596410914 29.030763596410914 29.061527192821828 29.030763596410914 29.030763596410914 29.030763596410914 29.061527192821828 29.030763596410914 29.061527192821828 29.030763596410914 29.030763596410914 29.030763596410914 29.030763596410914 29.030763596410914 29.030763596410914 29.030763596410914 29.030763596410914 29.030763596410914 29.030763596410914 29.030763596410914 29.030763596410914 29.030763596410914 29.030763596410914 29.030763596410914 29.061527192821828 29.061527192821828 29.061527192821828 29.030763596410914 29.061527192821828 29.061527192821828 29.030763596410914 29.061527192821828 29.061527192821828 29.030763596410914 29.061527192821828 29.030763596410914 29.030763596410914 29.030763596410914 29.030763596410914 29.030763596410914 29.061527192821828 29.061527192821828 29.030763596410914 29.061527192821828 29.030763596410914 29.061527192821828 29.061527192821828 29.030763596410914 29.061527192821828 29.030763596410914 29.030763596410914 29.030763596410914 29.061527192821828 29.030763596410914 29.061527192821828 29.030763596410914 29.030763596410914 29.061527192821828 29.061527192821828 29.061527192821828 29.030763596410914 29.030763596410914 29.030763596410914 29.030763596410914 29.030763596410914 29.030763596410914 29.030763596410914 29.030763596410914 29.030763596410914 29.030763596410914 29.030763596410914 29.030763596410914 29.030763596410914 29.030763596410914 29.030763596410914 29.030763596410914 29.030763596410914 29.030763596410914 29.030763596410914 29.030763596410914 29.030763596410914 29.030763596410914 29.030763596410914 29.030763596410914 29.030763596410914 29.030763596410914 29.030763596410914 29.030763596410914 29.030763596410914 29.030763596410914 29.030763596410914 29.030763596410914 29.030763596410914 29.030763596410914 29.030763596410914 29.030763596410914 29.030763596410914 29.030763596410914 29.030763596410914 29.030763596410914 29.030763596410914 29.030763596410914 29.030763596410914 29.030763596410914 29.030763596410914 29.030763596410914 29.030763596410914 29.030763596410914 29.030763596410914 29.030763596410914 29.030763596410914 29.030763596410914 29.030763596410914 29.030763596410914 29.030763596410914 29.030763596410914 29.030763596410914 29.030763596410914 29.030763596410914 29.030763596410914 29.030763596410914 29.030763596410914 29.030763596410914 29.030763596410914 29.030763596410914 29.030763596410914 29.030763596410914 29.030763596410914 29.030763596410914 29.030763596410914 29.030763596410914 29.030763596410914 29.030763596410914 29.030763596410914 29.030763596410914 29.030763596410914 29.030763596410914 29.030763596410914 29.030763596410914 29.030763596410914 29.030763596410914 29.030763596410914 29.030763596410914 29.030763596410914 29.030763596410914 29.030763596410914 29.030763596410914 29.030763596410914 29.030763596410914 29.030763596410914 29.030763596410914 29.030763596410914 29.030763596410914 29.030763596410914 29.030763596410914 29.030763596410914 29.030763596410914 29.030763596410914 29.030763596410914 29.030763596410914 29.030763596410914 29.030763596410914 29.030763596410914 29.030763596410914 29.030763596410914 29.030763596410914 29.030763596410914 29.030763596410914 29.030763596410914 29.030763596410914 29.030763596410914 29.030763596410914 29.030763596410914 29.030763596410914 29.030763596410914 29.030763596410914 29.030763596410914 29.030763596410914 29.030763596410914 29.030763596410914 29.030763596410914 29.030763596410914 29.030763596410914 29.030763596410914 29.030763596410914 29.030763596410914 29.030763596410914 29.030763596410914 29.030763596410914 29.030763596410914 29.030763596410914 29.030763596410914 29.030763596410914 29.030763596410914 29.030763596410914 29.030763596410914 29.030763596410914 29.030763596410914 29.030763596410914 29.030763596410914 29.030763596410914 29.030763596410914 29.030763596410914 29.030763596410914 29.030763596410914 29.030763596410914 29.030763596410914 29.030763596410914 29.030763596410914 29.030763596410914 29.030763596410914 29.030763596410914 29.030763596410914 29.030763596410914 29.030763596410914 29.030763596410914 29.030763596410914 29.030763596410914 29.030763596410914 29.030763596410914 29.030763596410914 29.030763596410914 29.030763596410914 29.030763596410914 29.030763596410914 29.030763596410914 29.030763596410914 29.030763596410914 29.030763596410914 29.030763596410914 29.030763596410914 29.030763596410914 29.030763596410914 29.030763596410914 29.030763596410914 29.030763596410914 29.030763596410914 29.030763596410914 29.030763596410914 29.030763596410914 29.030763596410914 29.030763596410914 29.030763596410914 29.030763596410914 29.030763596410914 29.030763596410914 29.030763596410914 29.030763596410914 29.030763596410914 29.030763596410914 29.030763596410914 29.061527192821828 29.061527192821828 29.030763596410914 29.030763596410914 29.030763596410914 29.061527192821828 29.030763596410914 29.061527192821828 29.061527192821828 29.030763596410914 29.030763596410914 29.061527192821828 29.061527192821828 29.061527192821828 29.061527192821828 29.061527192821828 29.061527192821828 29.061527192821828 29.061527192821828 29.09229078923274 29.061527192821828 29.09229078923274 29.09229078923274 29.09229078923274 29.09229078923274 29.09229078923274 29.123054385643655 29.123054385643655 29.123054385643655 29.123054385643655 29.15381798205457 29.15381798205457 29.15381798205457 29.184581578465483 29.184581578465483 29.215345174876397 29.24610877128731 29.24610877128731 29.276872367698225 29.276872367698225 29.30763596410914 29.338399560520052 29.338399560520052 29.338399560520052 29.338399560520052 29.369163156930966 29.369163156930966 29.369163156930966 29.369163156930966 29.369163156930966 29.369163156930966 29.39992675334188 29.39992675334188 29.39992675334188 29.430690349752794 29.430690349752794 29.430690349752794 29.461453946163708 29.461453946163708 29.49221754257462 29.522981138985532 29.522981138985532 29.522981138985532 29.522981138985532 29.522981138985532 29.553744735396446 29.553744735396446 29.553744735396446 29.553744735396446 29.58450833180736 29.58450833180736 29.58450833180736 29.58450833180736 29.58450833180736 29.58450833180736 29.58450833180736 29.615271928218274 29.58450833180736 29.58450833180736 29.615271928218274 29.58450833180736 29.615271928218274 29.615271928218274 29.615271928218274 29.646035524629188 29.646035524629188 29.6767991210401 29.707562717451015 29.769089910272843 29.769089910272843 29.799853506683757 29.83061710309467 29.83061710309467 29.861380699505585 29.8921442959165 29.8921442959165 29.922907892327412 29.953671488738326 29.953671488738326 30.015198681560154 30.045962277971068 30.13825306720381 30.199780260025637 30.23054385643655 30.29207104925838 30.322834645669293 30.38436183849112 30.47665262772386 30.538179820545686 30.599707013367514 30.691997802600255 30.753524995422083 30.845815784654825 30.907342977476652 30.999633766709394 31.12268815235305 31.21497894158579 31.338033327229446 31.430324116462188 31.522614905694926 31.64566929133858 31.737960080571323 31.86101446621498 31.984068851858634 32.07635964109137 32.19941402673503 32.3532320087896 32.47628639443325 32.568577183665994 32.660867972898735 32.78392235854239 32.906976744186046 32.99926753341879 33.18384911188427 33.30690349752793 33.368430690349754 33.39919428676067 33.49148507599341 33.614539461637065 33.73759384728072 33.829884636513455 33.983702618568024 34.10675700421168 34.19904779344442 34.32210217908808 34.383629371909905 34.50668375755356 34.66050173960813 34.783556125251785 34.90661051089544 35.09119208936092 35.27577366782641 35.39882805347006 35.55264603552463 35.737227613990115 36.07562717451016 36.22944515656473 36.506317524262954 36.752426295550265 36.93700787401575 37.152353048892145 37.398461820179456 37.64457059146676 37.82915216993224 37.98297015198681 38.167551730452296 38.321369712506865 38.44442409815052 38.59824208020509 38.69053286943783 38.8443508514924 39.028932429957884 39.18275041201245 39.33656839406702 39.49038637612159 39.61344076176525 39.70573155099798 39.79802234023072 39.982603918696206 40.1979490935726 40.35176707562717 40.56711225050357 40.72093023255814 40.87474821461271 41.02856619666728 41.21314777513276 41.42849295000916 41.61307452847464 41.7668925105292 41.951474088994686 42.105292071049256 42.35140084233657 42.505218824391136 42.59750961362388 42.78209119208936 42.8743819813221 42.966672770554844 43.058963559787585 43.12049075260941 43.21278154184215 43.305072331074896 43.366599523896724 43.45889031312946 43.64347189159494 43.7665262772386 43.92034425929317 43.981871452114994 44.135689434169564 44.25874381981322 44.35103460904596 44.4433253982787 44.56637978392236 44.6586705731551 44.75096136238784 44.874015748031496 44.935542940853324 44.96630653726424 44.99707013367515 45.05859732649698 45.089360922907886 45.15088811572972 45.24317890496246 45.3354696941952 45.396996887017025 45.45852407983885 45.48928767624977 45.5508148690716 45.61234206189343 45.67386925471526 45.735396447537084 45.735396447537084 45.76616004394799 45.82768723676982 45.88921442959165 45.98150521882439 46.104559604468044 46.16608679728987 46.28914118293353 46.350668375755355 46.41219556857718 46.442959164988096 46.504486357809924 46.53524995422084 46.53524995422084 46.56601355063175 46.56601355063175 46.56601355063175 46.596777147042665 46.596777147042665 46.596777147042665 46.596777147042665 46.596777147042665 46.596777147042665 46.596777147042665 46.62754074345358 46.62754074345358 46.62754074345358 46.658304339864486 46.658304339864486 46.658304339864486 46.658304339864486 46.658304339864486 46.658304339864486 46.658304339864486 46.658304339864486 46.658304339864486 46.658304339864486 46.658304339864486 46.658304339864486 46.658304339864486 46.658304339864486 46.658304339864486 46.658304339864486 46.658304339864486 46.658304339864486 46.658304339864486 46.658304339864486 46.68906793627541 46.658304339864486 46.68906793627541 46.68906793627541 46.68906793627541 46.68906793627541 46.68906793627541 46.71983153268632 46.750595129097235 46.78135872550815 46.87364951474089 46.904413111151804 46.93517670756272 46.93517670756272 46.965940303973625 46.996703900384546 47.02746749679545 47.02746749679545 47.02746749679545 46.996703900384546 47.02746749679545 47.02746749679545 47.02746749679545 47.02746749679545 47.02746749679545 47.02746749679545 47.02746749679545 47.02746749679545 47.02746749679545 47.02746749679545 47.02746749679545 47.02746749679545 47.02746749679545 47.05823109320637 47.05823109320637 47.08899468961728 47.08899468961728 47.1197582860282 47.1197582860282 47.15052188243911 47.18128547885003 47.18128547885003 47.18128547885003 47.18128547885003 47.212049075260936 47.212049075260936 47.18128547885003 47.212049075260936 47.212049075260936 47.212049075260936 47.18128547885003 47.212049075260936 47.212049075260936 47.212049075260936 47.18128547885003 47.212049075260936 47.212049075260936 47.212049075260936 47.212049075260936 47.24281267167186 47.24281267167186 47.27357626808276 47.304339864493684 47.304339864493684 47.33510346090459 47.33510346090459 47.33510346090459 47.36586705731551 47.39663065372642 47.42739425013734 47.45815784654825 47.48892144295917 47.48892144295917 47.519685039370074 47.550448635780995 47.5812122321919 47.5812122321919 47.61197582860282 47.61197582860282 47.61197582860282 47.5812122321919 47.5812122321919 47.5812122321919 47.5812122321919 47.5812122321919 47.550448635780995 47.550448635780995 47.550448635780995 47.5812122321919 47.550448635780995 47.5812122321919 47.5812122321919 47.550448635780995 47.5812122321919 47.5812122321919 47.550448635780995 47.550448635780995 47.5812122321919 47.550448635780995 47.550448635780995 47.550448635780995 47.550448635780995 47.5812122321919 47.5812122321919 47.5812122321919 47.550448635780995 47.5812122321919 47.5812122321919 47.5812122321919 47.5812122321919 47.5812122321919 47.5812122321919 47.5812122321919 47.5812122321919 47.5812122321919 47.5812122321919 47.5812122321919 47.5812122321919 47.5812122321919 47.5812122321919 47.5812122321919 47.5812122321919 47.5812122321919 47.5812122321919 47.5812122321919 47.5812122321919 47.5812122321919 47.5812122321919 47.5812122321919 47.5812122321919 47.5812122321919 47.5812122321919 47.5812122321919 47.5812122321919 47.5812122321919 47.5812122321919 47.5812122321919 47.5812122321919 47.5812122321919 47.5812122321919 47.5812122321919 47.5812122321919 47.5812122321919 47.5812122321919 47.5812122321919 47.5812122321919 47.5812122321919 47.5812122321919 47.5812122321919 47.5812122321919 47.5812122321919 47.550448635780995 47.5812122321919 47.550448635780995 47.550448635780995 47.5812122321919 47.550448635780995 47.550448635780995 47.5812122321919 47.5812122321919 47.5812122321919 47.5812122321919 47.5812122321919 47.5812122321919 47.5812122321919 47.5812122321919 47.5812122321919 47.5812122321919 47.5812122321919 47.5812122321919 47.5812122321919 47.5812122321919 47.5812122321919 47.550448635780995 47.5812122321919 47.5812122321919 47.5812122321919 47.5812122321919 47.5812122321919 47.5812122321919 47.5812122321919 47.5812122321919 47.5812122321919 47.5812122321919 47.550448635780995 47.5812122321919 47.550448635780995 47.5812122321919 47.5812122321919 47.5812122321919 47.5812122321919 47.5812122321919 47.5812122321919 47.5812122321919 47.5812122321919 47.5812122321919 47.5812122321919 47.5812122321919 47.5812122321919 47.5812122321919 47.5812122321919 47.61197582860282 47.61197582860282 47.61197582860282 47.64273942501373 47.64273942501373 47.64273942501373 47.64273942501373 47.67350302142465 47.67350302142465 47.67350302142465 47.67350302142465 47.67350302142465 47.67350302142465 47.67350302142465 47.67350302142465 47.67350302142465 47.67350302142465 47.67350302142465 47.67350302142465 47.67350302142465 47.67350302142465 47.64273942501373 47.64273942501373 47.67350302142465 47.64273942501373 47.67350302142465 47.67350302142465 47.67350302142465 47.67350302142465 47.67350302142465 47.64273942501373 47.67350302142465 47.67350302142465 47.67350302142465 47.67350302142465 47.67350302142465 47.67350302142465 47.67350302142465 47.67350302142465 47.67350302142465 47.67350302142465 47.64273942501373 47.67350302142465 47.67350302142465 47.67350302142465 47.67350302142465 47.64273942501373 47.64273942501373 47.67350302142465 47.64273942501373 47.64273942501373 47.61197582860282 47.5812122321919 47.519685039370074 47.45815784654825 47.39663065372642 47.304339864493684 47.212049075260936 47.1197582860282 46.996703900384546 46.87364951474089 46.71983153268632 46.47372276139901 46.350668375755355 46.196850393700785 46.043032411646216 45.735396447537084 45.52005127266068 45.45852407983885 45.24317890496246 45.15088811572972 44.935542940853324 44.81248855520967 44.627906976744185 44.381798205456874 44.074162241347736 43.981871452114994 43.828053470060425 43.612708295184035 43.39736312030763 43.12049075260941 42.99743636696576 42.84361838491119 42.68980040285662 42.505218824391136 42.35140084233657 42.28987364951474 42.105292071049256 41.88994689617286 41.82841970335103 41.67460172129647 41.490020142830986 41.336202160776416 41.15162058231093 41.02856619666728 40.843984618201794 40.597875846914484 40.413294268449 40.16718549716169 40.044131111518034 39.85954953305256 39.644204358176154 39.45962277971067 39.21351400842337 38.93664164072514 38.721296465848745 38.44442409815052 38.19831532686321 37.98297015198681 37.552279802234025 37.306171030946714 36.998535066837576 36.69089910272844 36.47555392785204 36.198681560153815 35.952572788866505 35.706464017579194 35.52188243911371 35.337300860648234 34.99890130012818 34.75279252884087 34.66050173960813 34.41439296832082 34.19904779344442 34.075993407800766 33.89141182933528 33.73759384728072 33.49148507599341 33.33766709393884 33.2453763047061 33.18384911188427 33.09155832265153 33.0300311298297 32.968503937007874 32.906976744186046 32.814685954953305 32.69163156930965 32.59934078007691 32.507049990844166 32.414759201611425 32.3532320087896 32.260941219556855 32.260941219556855 32.19941402673503 32.168650430324114 32.1378868339132 32.04559604468046 31.984068851858634 31.86101446621498 31.768723676982237 31.676432887749495 31.584142098516754 31.430324116462188 31.36879692364036 31.307269730818533 31.245742537996705 31.153451748763963 31.06116095953122 30.938106573887566 30.81505218824391 30.691997802600255 30.599707013367514 30.507416224134772 30.322834645669293 30.169016663614723 29.98443508514924 29.861380699505585 29.707562717451015 29.6767991210401 29.707562717451015 29.6767991210401 29.6767991210401 29.646035524629188 29.646035524629188 29.646035524629188 29.615271928218274 29.615271928218274 29.58450833180736 29.58450833180736 29.615271928218274 29.615271928218274 29.58450833180736 29.58450833180736 29.553744735396446 29.522981138985532 29.522981138985532 29.49221754257462 29.522981138985532 29.49221754257462 29.49221754257462 29.461453946163708 29.461453946163708 29.430690349752794 29.430690349752794 29.39992675334188 29.369163156930966 29.369163156930966 29.369163156930966 29.338399560520052 29.30763596410914 29.30763596410914 29.30763596410914 29.30763596410914 29.30763596410914 29.276872367698225 29.276872367698225 29.276872367698225 29.276872367698225 29.276872367698225 29.276872367698225 29.276872367698225 29.276872367698225 29.276872367698225 29.276872367698225 29.276872367698225 29.24610877128731 29.24610877128731 29.276872367698225 29.24610877128731 29.276872367698225 29.24610877128731 29.24610877128731 29.24610877128731 29.24610877128731 29.24610877128731 29.24610877128731 29.24610877128731 29.24610877128731 29.24610877128731 29.24610877128731 29.24610877128731 29.24610877128731 29.24610877128731 29.24610877128731 29.24610877128731 29.24610877128731 29.276872367698225 29.24610877128731 29.276872367698225 29.276872367698225 29.24610877128731 29.24610877128731 29.24610877128731 29.24610877128731 29.24610877128731 29.24610877128731 29.24610877128731 29.24610877128731 29.24610877128731 29.24610877128731 29.24610877128731 29.24610877128731 29.24610877128731 29.24610877128731 29.24610877128731 29.24610877128731 29.24610877128731 29.215345174876397 29.215345174876397 29.215345174876397 29.215345174876397 29.215345174876397 29.215345174876397 29.215345174876397 29.215345174876397 29.184581578465483 29.184581578465483 29.184581578465483 29.184581578465483 29.184581578465483 29.184581578465483 29.184581578465483 29.184581578465483 29.184581578465483 29.184581578465483 29.15381798205457 29.15381798205457 29.15381798205457 29.15381798205457 29.15381798205457 29.184581578465483 29.15381798205457 29.15381798205457 29.15381798205457 29.15381798205457 29.15381798205457 29.15381798205457 29.15381798205457 29.15381798205457 29.15381798205457 29.15381798205457 29.15381798205457 29.15381798205457 29.15381798205457 29.15381798205457 29.15381798205457 29.15381798205457 29.15381798205457 29.15381798205457 29.15381798205457 29.15381798205457 29.15381798205457 29.123054385643655 29.15381798205457 29.15381798205457 29.15381798205457 29.15381798205457 29.15381798205457 29.15381798205457 29.15381798205457 29.15381798205457 29.15381798205457 29.15381798205457 29.15381798205457 29.15381798205457 29.15381798205457 29.15381798205457 29.15381798205457 29.15381798205457 29.15381798205457 29.15381798205457 29.15381798205457 29.123054385643655 29.15381798205457 29.15381798205457 29.15381798205457 29.15381798205457 29.15381798205457 29.15381798205457 29.15381798205457 29.15381798205457 29.15381798205457 29.15381798205457 29.15381798205457 29.15381798205457 29.15381798205457 29.15381798205457 29.15381798205457 29.15381798205457 29.15381798205457 29.15381798205457 29.123054385643655 29.15381798205457 29.15381798205457 29.15381798205457 29.15381798205457 29.15381798205457 29.15381798205457 29.15381798205457 29.123054385643655 29.123054385643655 29.123054385643655 29.123054385643655 29.123054385643655 29.123054385643655 29.123054385643655 29.123054385643655 29.123054385643655 29.123054385643655 29.123054385643655 29.123054385643655 29.123054385643655 29.123054385643655 29.123054385643655 29.123054385643655 29.09229078923274 29.123054385643655 29.123054385643655 29.123054385643655 29.123054385643655 29.123054385643655 29.123054385643655 29.123054385643655 29.123054385643655 29.123054385643655 29.123054385643655 29.123054385643655 29.123054385643655 29.09229078923274 29.09229078923274 29.09229078923274 29.09229078923274 29.09229078923274 29.09229078923274 29.09229078923274 29.09229078923274 29.09229078923274 29.09229078923274 29.09229078923274 29.09229078923274 29.061527192821828 29.061527192821828 29.09229078923274 29.061527192821828 29.061527192821828 29.061527192821828 29.061527192821828 29.061527192821828 29.061527192821828 29.061527192821828 29.061527192821828 29.061527192821828 29.061527192821828 29.061527192821828 29.061527192821828 29.061527192821828 29.061527192821828 29.061527192821828 29.061527192821828 29.061527192821828 29.061527192821828 29.061527192821828 29.061527192821828 29.061527192821828 29.061527192821828 29.061527192821828 29.061527192821828 29.061527192821828 29.061527192821828 29.061527192821828 29.061527192821828 29.061527192821828 29.061527192821828 29.061527192821828 29.061527192821828 29.061527192821828 29.061527192821828 29.061527192821828 29.061527192821828 29.061527192821828 29.061527192821828 29.061527192821828 29.061527192821828 29.061527192821828 29.061527192821828 29.061527192821828 29.061527192821828 29.061527192821828 29.061527192821828 29.061527192821828 29.061527192821828 29.061527192821828 29.061527192821828 29.061527192821828 29.061527192821828 29.061527192821828 29.061527192821828 29.061527192821828 29.061527192821828 29.061527192821828 29.061527192821828 29.061527192821828 29.061527192821828 29.061527192821828 29.061527192821828 29.061527192821828 29.061527192821828 29.061527192821828 29.061527192821828 29.061527192821828 29.061527192821828 29.061527192821828 29.061527192821828 29.061527192821828 29.061527192821828 29.061527192821828 29.061527192821828 29.061527192821828 29.061527192821828 29.061527192821828 29.061527192821828 29.061527192821828 29.061527192821828 29.061527192821828 29.061527192821828 29.061527192821828 29.061527192821828 29.061527192821828 29.061527192821828 29.061527192821828 29.061527192821828 29.061527192821828 29.061527192821828 29.061527192821828 29.061527192821828 29.061527192821828 29.061527192821828 29.061527192821828 29.061527192821828 29.061527192821828 29.061527192821828 29.061527192821828 29.061527192821828 29.061527192821828 29.061527192821828 29.061527192821828 29.061527192821828 29.061527192821828 29.061527192821828 29.061527192821828 29.061527192821828 29.061527192821828 29.061527192821828 29.061527192821828 29.061527192821828 29.061527192821828 29.061527192821828 29.061527192821828 29.061527192821828 29.061527192821828 29.061527192821828 29.061527192821828 29.061527192821828 29.061527192821828 29.061527192821828 29.061527192821828 29.061527192821828 29.061527192821828 29.061527192821828 29.061527192821828 29.061527192821828 29.061527192821828 29.061527192821828 29.061527192821828 29.061527192821828 29.061527192821828 29.061527192821828 29.061527192821828 29.061527192821828 29.061527192821828 29.061527192821828 29.030763596410914 29.061527192821828 29.061527192821828 29.061527192821828 29.061527192821828 29.061527192821828 29.061527192821828 29.061527192821828 29.061527192821828 29.061527192821828 29.061527192821828 29.061527192821828 29.061527192821828 29.061527192821828 29.061527192821828 29.061527192821828 29.061527192821828 29.061527192821828 29.061527192821828 29.061527192821828 29.061527192821828 29.030763596410914 29.061527192821828 29.061527192821828 29.061527192821828 29.061527192821828 29.030763596410914 29.061527192821828 29.030763596410914 29.061527192821828 29.061527192821828 29.061527192821828 29.061527192821828 29.030763596410914 29.061527192821828 29.061527192821828 29.061527192821828 29.061527192821828 29.061527192821828 29.030763596410914 29.030763596410914 29.061527192821828 29.061527192821828 29.061527192821828 29.061527192821828 29.061527192821828 29.061527192821828 29.061527192821828 29.061527192821828 29.061527192821828 29.061527192821828 29.061527192821828 29.061527192821828 29.061527192821828 29.061527192821828 29.061527192821828 29.061527192821828 29.061527192821828 29.061527192821828 29.061527192821828 29.061527192821828 29.061527192821828 29.030763596410914 29.061527192821828 29.061527192821828 29.061527192821828 29.030763596410914 29.061527192821828 29.061527192821828 29.061527192821828 29.061527192821828 29.061527192821828 29.061527192821828 29.030763596410914 29.061527192821828 29.030763596410914 29.061527192821828 29.061527192821828 29.061527192821828 29.030763596410914 29.061527192821828 29.061527192821828 29.061527192821828 29.061527192821828 29.061527192821828 29.061527192821828 29.061527192821828 29.061527192821828 29.061527192821828 29.061527192821828 29.061527192821828 29.061527192821828 29.061527192821828 29.061527192821828 29.061527192821828 29.061527192821828 29.061527192821828 29.030763596410914 29.061527192821828 29.061527192821828 29.061527192821828 29.061527192821828 29.061527192821828 29.030763596410914 29.061527192821828 29.061527192821828 29.061527192821828 29.061527192821828 29.030763596410914 29.061527192821828 29.061527192821828 29.061527192821828 29.061527192821828 29.061527192821828 29.061527192821828 29.061527192821828 29.061527192821828 29.061527192821828 29.061527192821828 29.061527192821828 29.061527192821828 29.061527192821828 29.061527192821828 29.061527192821828 29.061527192821828 29.061527192821828 29.061527192821828 29.061527192821828 29.030763596410914 29.061527192821828 29.061527192821828 29.061527192821828 29.061527192821828 29.061527192821828 29.061527192821828 29.030763596410914 29.061527192821828 29.061527192821828 29.061527192821828 29.061527192821828 29.030763596410914 29.061527192821828 29.061527192821828 29.030763596410914 29.061527192821828 29.030763596410914 29.030763596410914 29.061527192821828 29.061527192821828 29.061527192821828 29.061527192821828 29.030763596410914 29.061527192821828 29.061527192821828 29.030763596410914 29.030763596410914 29.061527192821828 29.030763596410914 29.030763596410914 29.030763596410914 29.030763596410914 29.030763596410914 29.030763596410914 29.030763596410914 29.030763596410914 29.030763596410914 29.030763596410914 29.030763596410914 29.030763596410914 29.030763596410914 29.030763596410914 29.030763596410914 29.030763596410914 29.030763596410914 29.030763596410914 29.030763596410914 29.030763596410914 29.0 29.030763596410914 29.0 29.030763596410914 29.030763596410914 29.030763596410914 29.0 29.030763596410914 29.030763596410914 29.030763596410914 29.030763596410914 29.030763596410914 29.030763596410914 29.030763596410914 29.030763596410914 29.030763596410914 29.0 29.0 29.030763596410914 29.030763596410914 29.030763596410914 29.030763596410914 29.0 29.0 29.030763596410914 29.0 29.030763596410914 29.030763596410914 29.0 29.0 29.0 29.030763596410914 29.030763596410914 29.030763596410914 29.030763596410914 29.0 29.030763596410914 29.030763596410914 29.030763596410914 29.0 29.030763596410914 29.030763596410914 29.0 29.030763596410914 29.0 29.0 29.030763596410914 29.0 29.030763596410914 29.030763596410914 29.030763596410914 29.030763596410914 29.0 29.030763596410914 29.030763596410914 29.030763596410914 29.0 29.030763596410914 29.030763596410914 29.030763596410914 29.0 29.0 29.030763596410914 29.0 29.030763596410914 29.030763596410914 29.030763596410914 29.030763596410914 29.0 29.030763596410914 29.030763596410914 29.0 29.030763596410914 29.030763596410914 29.030763596410914 29.030763596410914 29.0 29.0 29.030763596410914 29.030763596410914 29.0 29.0 29.030763596410914 29.0 29.030763596410914 29.030763596410914 29.0 29.030763596410914 29.0 29.030763596410914 29.030763596410914 29.030763596410914 29.030763596410914 29.0 29.030763596410914 29.030763596410914 29.0 29.030763596410914 29.030763596410914 29.0 29.0 29.0 29.030763596410914 29.0 29.030763596410914 29.0 29.0 29.030763596410914 29.030763596410914 29.030763596410914 29.0 29.0 29.030763596410914 29.030763596410914 29.030763596410914 29.030763596410914 29.030763596410914 29.0 29.0 29.030763596410914 29.030763596410914 29.0 29.0 29.0 29.030763596410914 29.0 29.0 29.0 29.030763596410914 29.030763596410914 29.0 29.030763596410914 29.0 29.0 29.0 29.0 29.0 29.0 29.0 29.0 29.0 29.0 29.0 29.0 29.030763596410914 29.0 29.0 29.0 29.0 29.0 29.0 29.0 29.0 29.0 29.0 29.0 29.0 29.0 29.0 29.0 29.0 29.0 29.0 29.0 29.0 29.0 29.0 29.0 29.0 29.0 29.0 29.0 29.0 29.0 29.0 29.0 29.0 29.0 29.0 29.0 29.0 29.0 29.0 29.0 29.0 29.0 29.0 29.0 29.0 29.0 29.0 29.0 29.0 29.0 29.030763596410914 29.0 29.0 29.0 29.0 29.0 29.0 29.0 29.0 29.0 29.0 29.0 29.0 29.0 29.0 29.0 29.0 29.0 29.0 29.0 29.0 29.0 29.0 29.0 29.0 29.0 29.0 29.0 29.0 29.0 29.0 29.0 29.0 29.0 29.030763596410914 29.0 29.0 29.0 29.0 29.0 29.0 29.0 29.0 29.0 29.0 29.0 29.0 29.0 29.0 29.0 29.0 29.0 29.0 29.0 29.0 29.0 29.0 29.0 29.0 29.0 29.0 29.0 29.0 29.0 29.0 29.0 29.0 29.0 29.0 29.0 29.0 29.0 29.0 29.0 29.0 29.0 29.0 29.0 29.0 29.0 29.0 29.0 29.0 29.0 29.0 29.0 29.0 29.0 29.0 29.0 29.0 29.0 29.0 29.0 29.0 29.0 29.0 29.0 29.0 29.0 29.0 29.0 29.0 29.0 29.0 29.0 29.0 29.0 29.0 29.0 29.0 29.0 29.0 29.0 29.0 29.0 29.0 29.0 29.0 29.0 29.0 29.0 29.0 29.0 29.0 29.0 29.0 29.0 29.0 29.0 29.0 29.0 29.0 29.0 29.0 29.0 29.0 29.0 29.0 29.0 29.0 29.0 29.0 29.030763596410914 29.030763596410914 29.030763596410914 29.030763596410914 29.030763596410914 29.030763596410914 29.030763596410914 29.030763596410914 29.030763596410914 29.061527192821828 29.061527192821828 29.061527192821828 29.09229078923274 29.09229078923274 29.123054385643655 29.123054385643655 29.123054385643655 29.123054385643655 29.15381798205457 29.15381798205457 29.15381798205457 29.184581578465483 29.215345174876397 29.24610877128731 29.276872367698225 29.276872367698225 29.30763596410914 29.338399560520052 29.369163156930966 29.39992675334188 29.430690349752794 29.461453946163708 29.461453946163708 29.461453946163708 29.461453946163708 29.49221754257462 29.49221754257462 29.49221754257462 29.522981138985532 29.522981138985532 29.522981138985532 29.522981138985532 29.553744735396446 29.58450833180736 29.58450833180736 29.58450833180736 29.615271928218274 29.646035524629188 29.646035524629188 29.6767991210401 29.73832631386193 29.769089910272843 29.769089910272843 29.83061710309467 29.922907892327412 29.953671488738326 30.015198681560154 30.07672587438198 30.13825306720381 30.169016663614723 30.199780260025637 30.261307452847465 30.261307452847465 30.322834645669293 30.38436183849112 30.445889031312948 30.47665262772386 30.538179820545686 30.630470609778428 30.66123420618934 30.72276139901117 30.81505218824391 30.907342977476652 30.96887017029848 31.06116095953122 31.184215345174877 31.245742537996705 31.307269730818533 31.36879692364036 31.461087712873102 31.584142098516754 31.64566929133858 31.768723676982237 31.891778062625892 31.95330525544772 32.04559604468046 32.1378868339132 32.260941219556855 32.38399560520051 32.507049990844166 32.72239516572056 32.906976744186046 33.12232191906244 33.30690349752793 33.49148507599341 33.7068302508698 33.95293902215711 34.137520600622594 34.26057498626625 34.44515656473173 34.5989745467863 34.69126533601904 34.783556125251785 34.96813770371727 35.15271928218275 35.30653726423732 35.52188243911371 35.89104559604468 35.952572788866505 36.106390770921074 36.26020875297564 36.47555392785204 36.598608313495696 36.81395348837209 36.998535066837576 37.18311664530306 37.306171030946714 37.42922541659037 37.521516205823104 37.70609778428859 37.9522065555759 38.075260941219554 38.25984251968504 38.38289690532869 38.59824208020509 38.81358725508149 38.967405237136056 39.15198681560154 39.30580479765611 39.428859183299764 39.61344076176525 39.76725874381981 39.95184032228529 40.22871268998352 40.32100347921626 40.536348654092656 40.78245742537997 40.936275407434536 41.18238417872185 41.42849295000916 41.64383812488555 41.85918329976195 41.9822376854056 42.197582860282 42.412928035158394 42.62827321003479 42.8743819813221 42.966672770554844 43.24354513825307 43.52041750595129 43.73576268082768 44.01263504852591 44.32027101263505 44.535616187511444 44.84325215162058 45.02783373008606 45.396996887017025 45.61234206189343 45.82768723676982 46.043032411646216 46.28914118293353 46.47372276139901 46.750595129097235 46.84288591832997 47.08899468961728 47.27357626808276 47.39663065372642 47.519685039370074 47.73503021424648 47.85808459989013 47.95037538912287 48.011902581944696 48.104193371177445 48.165720563999265 48.19648416041018 48.22724775682109 48.19648416041018 48.19648416041018 48.22724775682109 48.22724775682109 48.19648416041018 48.22724775682109 48.22724775682109 48.22724775682109 48.19648416041018 48.22724775682109 48.19648416041018 48.19648416041018 48.22724775682109 48.22724775682109 48.22724775682109 48.22724775682109 48.22724775682109 48.25801135323201 48.25801135323201 48.28877494964292 48.28877494964292 48.28877494964292 48.28877494964292 48.28877494964292 48.28877494964292 48.28877494964292 48.319538546053835 48.28877494964292 48.319538546053835 48.28877494964292 48.319538546053835 48.28877494964292 48.319538546053835 48.319538546053835 48.28877494964292 48.28877494964292 48.319538546053835 48.28877494964292 48.319538546053835 48.319538546053835 48.319538546053835 48.319538546053835 48.319538546053835 48.319538546053835 48.28877494964292 48.319538546053835 48.28877494964292 48.28877494964292 48.28877494964292 48.28877494964292 48.319538546053835 48.319538546053835 48.28877494964292 48.319538546053835 48.319538546053835 48.319538546053835 48.28877494964292 48.28877494964292 48.28877494964292 48.28877494964292 48.28877494964292 48.28877494964292 48.28877494964292 48.28877494964292 48.28877494964292 48.28877494964292 48.28877494964292 48.28877494964292 48.28877494964292 48.28877494964292 48.28877494964292 48.28877494964292 48.28877494964292 48.28877494964292 48.28877494964292 48.28877494964292 48.28877494964292 48.28877494964292 48.28877494964292 48.28877494964292 48.28877494964292 48.28877494964292 48.28877494964292 48.28877494964292 48.28877494964292 48.28877494964292 48.28877494964292 48.28877494964292 48.28877494964292 48.28877494964292 48.28877494964292 48.28877494964292 48.28877494964292 48.28877494964292 48.28877494964292 48.28877494964292 48.28877494964292 48.28877494964292 48.28877494964292 48.28877494964292 48.28877494964292 48.28877494964292 48.28877494964292 48.28877494964292 48.28877494964292 48.28877494964292 48.28877494964292 48.28877494964292 48.28877494964292 48.28877494964292 48.28877494964292 48.28877494964292 48.28877494964292 48.28877494964292 48.28877494964292 48.28877494964292 48.28877494964292 48.28877494964292 48.28877494964292 48.28877494964292 48.28877494964292 48.28877494964292 48.28877494964292 48.28877494964292 48.28877494964292 48.28877494964292 48.28877494964292 48.28877494964292 48.28877494964292 48.28877494964292 48.319538546053835 48.28877494964292 48.319538546053835 48.28877494964292 48.28877494964292 48.319538546053835 48.28877494964292 48.28877494964292 48.319538546053835 48.319538546053835 48.38106573887566 48.38106573887566 48.38106573887566 48.38106573887566 48.38106573887566 48.411829335286576 48.411829335286576 48.411829335286576 48.44259293169749 48.473356528108404 48.473356528108404 48.473356528108404 48.473356528108404 48.473356528108404 48.473356528108404 48.50412012451932 48.50412012451932 48.50412012451932 48.50412012451932 48.50412012451932 48.50412012451932 48.50412012451932 48.50412012451932 48.50412012451932 48.50412012451932 48.50412012451932 48.50412012451932 48.53488372093023 48.53488372093023 48.53488372093023 48.53488372093023 48.53488372093023 48.53488372093023 48.53488372093023 48.53488372093023 48.53488372093023 48.53488372093023 48.565647317341146 48.565647317341146 48.565647317341146 48.565647317341146 48.565647317341146 48.59641091375206 48.59641091375206 48.59641091375206 48.59641091375206 48.59641091375206 48.59641091375206 48.59641091375206 48.59641091375206 48.59641091375206 48.59641091375206 48.59641091375206 48.59641091375206 48.59641091375206 48.59641091375206 48.59641091375206 48.59641091375206 48.59641091375206 48.59641091375206 48.59641091375206 48.59641091375206 48.59641091375206 48.59641091375206 48.59641091375206 48.59641091375206 48.62717451016297 48.62717451016297 48.65793810657389 48.65793810657389 48.6887017029848 48.6887017029848 48.6887017029848 48.719465299395715 48.75022889580663 48.75022889580663 48.75022889580663 48.75022889580663 48.75022889580663 48.75022889580663 48.780992492217536 48.780992492217536 48.780992492217536 48.780992492217536 48.780992492217536 48.780992492217536 48.780992492217536 48.780992492217536 48.81175608862846 48.81175608862846 48.81175608862846 48.81175608862846 48.81175608862846 48.81175608862846 48.84251968503936 48.81175608862846 48.84251968503936 48.84251968503936 48.84251968503936 48.84251968503936 48.84251968503936 48.84251968503936 48.84251968503936 48.84251968503936 48.84251968503936 48.84251968503936 48.84251968503936 48.84251968503936 48.84251968503936 48.84251968503936 48.84251968503936 48.84251968503936 48.84251968503936 48.84251968503936 48.84251968503936 48.84251968503936 48.84251968503936 48.84251968503936 48.84251968503936 48.84251968503936 48.84251968503936 48.84251968503936 48.84251968503936 48.84251968503936 48.84251968503936 48.84251968503936 48.84251968503936 48.873283281450284 48.873283281450284 48.9040468778612 48.9040468778612 48.9040468778612 48.9040468778612 48.9040468778612 48.9040468778612 48.9040468778612 48.9040468778612 48.873283281450284 48.873283281450284 48.873283281450284 48.9040468778612 48.873283281450284 48.873283281450284 48.873283281450284 48.873283281450284 48.873283281450284 48.873283281450284 48.873283281450284 48.873283281450284 48.873283281450284 48.873283281450284 48.873283281450284 48.873283281450284 48.873283281450284 48.873283281450284 48.873283281450284 48.873283281450284 48.873283281450284 48.873283281450284 48.873283281450284 48.84251968503936 48.873283281450284 48.873283281450284 48.84251968503936 48.84251968503936 48.84251968503936 48.81175608862846 48.81175608862846 48.81175608862846 48.81175608862846 48.81175608862846 48.780992492217536 48.81175608862846 48.780992492217536 48.780992492217536 48.780992492217536 48.780992492217536 48.780992492217536 48.780992492217536 48.75022889580663 48.780992492217536 48.780992492217536 48.780992492217536 48.780992492217536 48.780992492217536 48.780992492217536 48.780992492217536 48.780992492217536 48.780992492217536 48.780992492217536 48.780992492217536 48.780992492217536 48.780992492217536 48.780992492217536 48.75022889580663 48.75022889580663 48.75022889580663 48.75022889580663 48.780992492217536 48.75022889580663 48.75022889580663 48.75022889580663 48.780992492217536 48.780992492217536 48.780992492217536 48.75022889580663 48.75022889580663 48.75022889580663 48.75022889580663 48.75022889580663 48.780992492217536 48.780992492217536 48.75022889580663 48.75022889580663 48.75022889580663 48.75022889580663 48.75022889580663 48.62717451016297 48.50412012451932 48.411829335286576 48.25801135323201 48.104193371177445 47.91961179271196 47.70426661783556 47.45815784654825 47.304339864493684 47.1197582860282 46.965940303973625 46.750595129097235 46.62754074345358 46.442959164988096 46.13532320087896 45.950741622413474 45.79692364035891 45.61234206189343 45.36623329060612 45.181651712140635 45.02783373008606 44.68943416956601 44.474088994689616 44.28950741622413 44.135689434169564 44.01263504852591 43.828053470060425 43.67423548800586 43.581944698773114 43.42812671671855 43.305072331074896 43.21278154184215 43.058963559787585 42.905145577733016 42.78209119208936 42.59750961362388 42.47445522798022 42.259110053103825 42.04376487822743 41.82841970335103 41.67460172129647 41.5207837392419 41.27467496795458 41.090093389489105 40.90551181102362 40.78245742537997 40.597875846914484 40.444057864859914 40.25947628639443 40.10565830433986 39.85954953305256 39.644204358176154 39.45962277971067 39.275041201245195 39.028932429957884 38.8443508514924 38.53671488738326 38.321369712506865 38.04449734480864 37.73686138069951 37.398461820179456 37.09082585607032 36.78318989196118 36.506317524262954 36.22944515656473 36.01409998168833 35.583409631935545 35.27577366782641 35.029664896539096 34.72202893242996 34.475920161142646 34.29133858267716 34.04522981138985 33.89141182933528 33.7068302508698 33.58377586522615 33.49148507599341 33.39919428676067 33.27613990111701 33.18384911188427 33.12232191906244 33.060794726240616 32.93774034059696 32.814685954953305 32.69163156930965 32.568577183665994 32.507049990844166 32.38399560520051 32.29170481596777 32.23017762314594 32.168650430324114 32.014832448269544 31.95330525544772 31.891778062625892 31.830250869804065 31.70719648416041 31.584142098516754 31.55337850210584 31.399560520051274 31.245742537996705 31.091924555942136 30.907342977476652 30.87657938106574 30.72276139901117 30.538179820545686 30.507416224134772 30.353598242080206 30.23054385643655 30.13825306720381 30.015198681560154 29.861380699505585 29.861380699505585 29.83061710309467 29.799853506683757 29.769089910272843 29.707562717451015 29.6767991210401 29.646035524629188 29.615271928218274 29.615271928218274 29.58450833180736 29.58450833180736 29.58450833180736 29.58450833180736 29.553744735396446 29.58450833180736 29.553744735396446 29.553744735396446 29.553744735396446 29.553744735396446 29.522981138985532 29.522981138985532 29.522981138985532 29.49221754257462 29.49221754257462 29.49221754257462 29.49221754257462 29.461453946163708 29.461453946163708 29.430690349752794 29.430690349752794 29.430690349752794 29.430690349752794 29.430690349752794 29.430690349752794 29.430690349752794 29.430690349752794 29.39992675334188 29.39992675334188 29.39992675334188 29.39992675334188 29.369163156930966 29.369163156930966 29.369163156930966 29.369163156930966 29.338399560520052 29.338399560520052 29.338399560520052 29.30763596410914 29.30763596410914 29.30763596410914 29.276872367698225 29.24610877128731 29.24610877128731 29.215345174876397 29.215345174876397 29.215345174876397 29.215345174876397 29.215345174876397 29.215345174876397 29.215345174876397 29.215345174876397 29.215345174876397 29.215345174876397 29.215345174876397 29.215345174876397 29.215345174876397 29.215345174876397 29.215345174876397 29.215345174876397 29.215345174876397 29.215345174876397 29.184581578465483 29.184581578465483 29.184581578465483 29.184581578465483 29.184581578465483 29.184581578465483 29.184581578465483 29.184581578465483 29.184581578465483 29.184581578465483 29.184581578465483 29.184581578465483 29.184581578465483 29.184581578465483 29.184581578465483 29.184581578465483 29.184581578465483 29.184581578465483 29.184581578465483 29.184581578465483 29.184581578465483 29.184581578465483 29.184581578465483 29.184581578465483 29.184581578465483 29.184581578465483 29.15381798205457 29.184581578465483 29.184581578465483 29.184581578465483 29.184581578465483 29.184581578465483 29.184581578465483 29.184581578465483 29.184581578465483 29.184581578465483 29.184581578465483 29.184581578465483 29.184581578465483 29.184581578465483 29.184581578465483 29.184581578465483 29.184581578465483 29.184581578465483 29.184581578465483 29.184581578465483 29.184581578465483 29.15381798205457 29.15381798205457 29.184581578465483 29.15381798205457 29.15381798205457 29.184581578465483 29.184581578465483 29.15381798205457 29.184581578465483 29.184581578465483 29.15381798205457 29.184581578465483 29.15381798205457 29.15381798205457 29.15381798205457 29.15381798205457 29.15381798205457 29.15381798205457 29.15381798205457 29.15381798205457 29.15381798205457 29.15381798205457 29.184581578465483 29.15381798205457 29.184581578465483 29.15381798205457 29.15381798205457 29.184581578465483 29.184581578465483 29.15381798205457 29.15381798205457 29.15381798205457 29.15381798205457 29.184581578465483 29.184581578465483 29.184581578465483 29.15381798205457 29.15381798205457 29.15381798205457 29.15381798205457 29.15381798205457 29.184581578465483 29.15381798205457 29.15381798205457 29.15381798205457 29.15381798205457 29.184581578465483 29.15381798205457 29.184581578465483 29.15381798205457 29.184581578465483 29.15381798205457 29.15381798205457 29.15381798205457 29.15381798205457 29.15381798205457 29.15381798205457 29.15381798205457 29.184581578465483 29.15381798205457 29.15381798205457 29.15381798205457 29.15381798205457 29.15381798205457 29.15381798205457 29.15381798205457 29.15381798205457 29.15381798205457 29.15381798205457 29.15381798205457 29.15381798205457 29.15381798205457 29.15381798205457 29.15381798205457 29.15381798205457 29.15381798205457 29.15381798205457 29.15381798205457 29.15381798205457 29.15381798205457 29.15381798205457 29.15381798205457 29.15381798205457 29.15381798205457 29.15381798205457 29.15381798205457 29.15381798205457 29.15381798205457 29.15381798205457 29.15381798205457 29.15381798205457 29.15381798205457 29.15381798205457 29.15381798205457 29.15381798205457 29.15381798205457 29.15381798205457 29.123054385643655 29.15381798205457 29.123054385643655 29.15381798205457 29.15381798205457 29.123054385643655 29.15381798205457 29.123054385643655 29.123054385643655 29.123054385643655 29.123054385643655 29.123054385643655 29.123054385643655 29.123054385643655 29.123054385643655 29.123054385643655 29.123054385643655 29.123054385643655 29.123054385643655 29.123054385643655 29.123054385643655 29.123054385643655 29.123054385643655 29.123054385643655 29.123054385643655 29.123054385643655 29.123054385643655 29.123054385643655 29.123054385643655 29.123054385643655 29.123054385643655 29.123054385643655 29.09229078923274 29.09229078923274 29.123054385643655 29.09229078923274 29.123054385643655 29.09229078923274 29.09229078923274 29.123054385643655 29.123054385643655 29.123054385643655 29.09229078923274 29.123054385643655 29.123054385643655 29.123054385643655 29.123054385643655 29.123054385643655 29.09229078923274 29.09229078923274 29.123054385643655 29.09229078923274 29.09229078923274 29.09229078923274 29.123054385643655 29.09229078923274 29.09229078923274 29.123054385643655 29.123054385643655 29.09229078923274 29.09229078923274 29.09229078923274 29.123054385643655 29.09229078923274 29.09229078923274 29.09229078923274 29.09229078923274 29.09229078923274 29.09229078923274 29.09229078923274 29.09229078923274 29.09229078923274 29.09229078923274 29.09229078923274 29.09229078923274 29.09229078923274 29.09229078923274 29.09229078923274 29.09229078923274 29.09229078923274 29.09229078923274 29.09229078923274 29.123054385643655 29.123054385643655 29.09229078923274 29.09229078923274 29.09229078923274 29.09229078923274 29.09229078923274 29.09229078923274 29.09229078923274 29.09229078923274 29.09229078923274 29.09229078923274 29.123054385643655 29.09229078923274 29.09229078923274 29.123054385643655 29.123054385643655 29.09229078923274 29.09229078923274 29.09229078923274 29.123054385643655 29.09229078923274 29.09229078923274 29.09229078923274 29.123054385643655 29.09229078923274 29.09229078923274 29.123054385643655 29.09229078923274 29.123054385643655 29.09229078923274 29.123054385643655 29.123054385643655 29.123054385643655 29.09229078923274 29.09229078923274 29.123054385643655 29.09229078923274 29.09229078923274 29.123054385643655 29.09229078923274 29.123054385643655 29.123054385643655 29.09229078923274 29.123054385643655 29.123054385643655 29.09229078923274 29.123054385643655 29.09229078923274 29.09229078923274 29.09229078923274 29.123054385643655 29.123054385643655 29.123054385643655 29.09229078923274 29.09229078923274 29.09229078923274 29.123054385643655 29.123054385643655 29.123054385643655 29.123054385643655 29.123054385643655 29.123054385643655 29.09229078923274 29.09229078923274 29.09229078923274 29.09229078923274 29.123054385643655 29.123054385643655 29.09229078923274 29.123054385643655 29.09229078923274 29.09229078923274 29.123054385643655 29.123054385643655 29.09229078923274 29.09229078923274 29.09229078923274 29.09229078923274 29.123054385643655 29.09229078923274 29.09229078923274 29.09229078923274 29.09229078923274 29.123054385643655 29.09229078923274 29.123054385643655 29.09229078923274 29.09229078923274 29.123054385643655 29.123054385643655 29.09229078923274 29.123054385643655 29.123054385643655 29.09229078923274 29.123054385643655 29.123054385643655 29.123054385643655 29.09229078923274 29.09229078923274 29.09229078923274 29.123054385643655 29.09229078923274 29.09229078923274 29.09229078923274 29.123054385643655 29.09229078923274 29.09229078923274 29.09229078923274 29.09229078923274 29.09229078923274 29.09229078923274 29.09229078923274 29.09229078923274 29.09229078923274 29.123054385643655 29.09229078923274 29.09229078923274 29.123054385643655 29.123054385643655 29.09229078923274 29.09229078923274 29.09229078923274 29.09229078923274 29.09229078923274 29.09229078923274 29.09229078923274 29.123054385643655 29.09229078923274 29.09229078923274 29.09229078923274 29.09229078923274 29.09229078923274 29.123054385643655 29.123054385643655 29.09229078923274 29.09229078923274 29.123054385643655 29.09229078923274 29.09229078923274 29.09229078923274 29.09229078923274 29.123054385643655 29.09229078923274 29.123054385643655 29.09229078923274 29.09229078923274 29.123054385643655 29.123054385643655 29.123054385643655 29.09229078923274 29.09229078923274 29.123054385643655 29.09229078923274 29.123054385643655 29.09229078923274 29.09229078923274 29.09229078923274 29.123054385643655 29.123054385643655 29.09229078923274 29.09229078923274 29.09229078923274 29.123054385643655 29.09229078923274 29.09229078923274 29.123054385643655 29.09229078923274 29.09229078923274 29.09229078923274 29.09229078923274 29.09229078923274 29.123054385643655 29.123054385643655 29.09229078923274 29.123054385643655 29.123054385643655 29.123054385643655 29.123054385643655 29.09229078923274 29.09229078923274 29.09229078923274 29.123054385643655 29.123054385643655 29.123054385643655 29.123054385643655 29.09229078923274 29.09229078923274 29.123054385643655 29.09229078923274 29.123054385643655 29.123054385643655 29.09229078923274 29.09229078923274 29.123054385643655 29.09229078923274 29.09229078923274 29.09229078923274 29.123054385643655 29.09229078923274 29.09229078923274 29.09229078923274 29.123054385643655 29.09229078923274 29.09229078923274 29.09229078923274 29.09229078923274 29.123054385643655 29.09229078923274 29.09229078923274 29.09229078923274 29.09229078923274 29.09229078923274 29.09229078923274 29.09229078923274 29.09229078923274 29.09229078923274 29.09229078923274 29.09229078923274 29.061527192821828 29.09229078923274 29.09229078923274 29.09229078923274 29.09229078923274 29.061527192821828 29.09229078923274 29.09229078923274 29.09229078923274 29.09229078923274 29.09229078923274 29.061527192821828 29.09229078923274 29.09229078923274 29.061527192821828 29.061527192821828 29.061527192821828 29.061527192821828 29.061527192821828 29.061527192821828 29.061527192821828 29.061527192821828 29.061527192821828 29.061527192821828 29.061527192821828 29.061527192821828 29.061527192821828 29.061527192821828 29.09229078923274 29.061527192821828 29.061527192821828 29.09229078923274 29.061527192821828 29.061527192821828 29.061527192821828 29.061527192821828 29.061527192821828 29.061527192821828 29.061527192821828 29.061527192821828 29.061527192821828 29.061527192821828 29.061527192821828 29.061527192821828 29.061527192821828 29.061527192821828 29.061527192821828 29.061527192821828 29.061527192821828 29.061527192821828 29.061527192821828 29.061527192821828 29.061527192821828 29.061527192821828 29.061527192821828 29.061527192821828 29.061527192821828 29.061527192821828 29.061527192821828 29.061527192821828 29.061527192821828 29.061527192821828 29.061527192821828 29.061527192821828 29.061527192821828 29.061527192821828 29.061527192821828 29.061527192821828 29.061527192821828 29.061527192821828 29.061527192821828 29.061527192821828 29.061527192821828 29.061527192821828 29.061527192821828 29.061527192821828 29.061527192821828 29.061527192821828 29.061527192821828 29.061527192821828 29.061527192821828 29.061527192821828 29.09229078923274 29.061527192821828 29.061527192821828 29.061527192821828 29.061527192821828 29.061527192821828 29.061527192821828 29.061527192821828 29.061527192821828 29.061527192821828 29.061527192821828 29.061527192821828 29.061527192821828 29.061527192821828 29.061527192821828 29.061527192821828 29.061527192821828 29.061527192821828 29.061527192821828 29.09229078923274 29.061527192821828 29.061527192821828 29.061527192821828 29.09229078923274 29.061527192821828 29.061527192821828 29.061527192821828 29.09229078923274 29.061527192821828 29.061527192821828 29.061527192821828 29.061527192821828 29.061527192821828 29.061527192821828 29.061527192821828 29.061527192821828 29.061527192821828 29.09229078923274 29.061527192821828 29.061527192821828 29.061527192821828 29.061527192821828 29.061527192821828 29.061527192821828 29.061527192821828 29.061527192821828 29.061527192821828 29.061527192821828 29.061527192821828 29.061527192821828 29.061527192821828 29.061527192821828 29.061527192821828 29.061527192821828 29.061527192821828 29.061527192821828 29.061527192821828 29.061527192821828 29.061527192821828 29.061527192821828 29.061527192821828 29.061527192821828 29.030763596410914 29.061527192821828 29.030763596410914 29.030763596410914 29.030763596410914 29.061527192821828 29.061527192821828 29.061527192821828 29.030763596410914 29.030763596410914 29.061527192821828 29.030763596410914 29.030763596410914 29.030763596410914 29.030763596410914 29.030763596410914 29.030763596410914 29.061527192821828 29.030763596410914 29.030763596410914 29.030763596410914 29.030763596410914 29.030763596410914 29.030763596410914 29.030763596410914 29.061527192821828 29.030763596410914 29.030763596410914 29.030763596410914 29.030763596410914 29.030763596410914 29.030763596410914 29.030763596410914 29.030763596410914 29.030763596410914 29.030763596410914 29.030763596410914 29.030763596410914 29.061527192821828 29.061527192821828 29.030763596410914 29.030763596410914 29.061527192821828 29.030763596410914 29.030763596410914 29.030763596410914 29.030763596410914 29.061527192821828 29.030763596410914 29.030763596410914 29.030763596410914 29.061527192821828 29.030763596410914 29.030763596410914 29.030763596410914 29.030763596410914 29.030763596410914 29.061527192821828 29.030763596410914 29.030763596410914 29.030763596410914 29.030763596410914 29.030763596410914 29.030763596410914 29.030763596410914 29.030763596410914 29.030763596410914 29.030763596410914 29.030763596410914 29.030763596410914 29.030763596410914 29.030763596410914 29.030763596410914 29.030763596410914 29.030763596410914 29.030763596410914 29.030763596410914 29.030763596410914 29.030763596410914 29.030763596410914 29.030763596410914 29.030763596410914 29.030763596410914 29.030763596410914 29.030763596410914 29.030763596410914 29.030763596410914 29.030763596410914 29.030763596410914 29.030763596410914 29.030763596410914 29.030763596410914 29.030763596410914 29.030763596410914 29.030763596410914 29.030763596410914 29.030763596410914 29.030763596410914 29.030763596410914 29.030763596410914 29.030763596410914 29.030763596410914 29.030763596410914 29.030763596410914 29.030763596410914 29.030763596410914 29.030763596410914 29.030763596410914 29.030763596410914 29.030763596410914 29.030763596410914 29.030763596410914 29.030763596410914 29.030763596410914 29.030763596410914 29.030763596410914 29.030763596410914 29.030763596410914 29.030763596410914 29.030763596410914 29.030763596410914 29.0 29.030763596410914 29.030763596410914 29.030763596410914 29.030763596410914 29.030763596410914 29.030763596410914 29.030763596410914 29.030763596410914 29.030763596410914 29.030763596410914 29.030763596410914 29.030763596410914 29.030763596410914 29.030763596410914 29.030763596410914 29.030763596410914 29.030763596410914 29.030763596410914 29.030763596410914 29.0 29.030763596410914 29.030763596410914 29.030763596410914 29.030763596410914 29.030763596410914 29.030763596410914 29.030763596410914 29.0 29.030763596410914 29.030763596410914 29.030763596410914 29.0 29.030763596410914 29.030763596410914 29.030763596410914 29.030763596410914 29.0 29.030763596410914 29.030763596410914 29.030763596410914 29.030763596410914 29.030763596410914 29.0 29.030763596410914 29.0 29.030763596410914 29.030763596410914 29.030763596410914 29.030763596410914 29.030763596410914 29.030763596410914 29.030763596410914 29.030763596410914 29.030763596410914 29.0 29.030763596410914 29.030763596410914 29.030763596410914 29.030763596410914 29.030763596410914 29.030763596410914 29.030763596410914 29.030763596410914 29.030763596410914 29.030763596410914 29.030763596410914 29.030763596410914 29.030763596410914 29.030763596410914 29.030763596410914 29.030763596410914 29.030763596410914 29.030763596410914 29.030763596410914 29.030763596410914 29.030763596410914 29.030763596410914 29.061527192821828 29.061527192821828 29.061527192821828 29.09229078923274 29.09229078923274 29.09229078923274 29.123054385643655 29.123054385643655 29.15381798205457 29.15381798205457 29.184581578465483 29.184581578465483 29.215345174876397 29.215345174876397 29.24610877128731 29.24610877128731 29.276872367698225 29.30763596410914 29.30763596410914 29.30763596410914 29.338399560520052 29.338399560520052 29.338399560520052 29.338399560520052 29.369163156930966 29.369163156930966 29.39992675334188 29.39992675334188 29.39992675334188 29.430690349752794 29.430690349752794 29.461453946163708 29.49221754257462 29.49221754257462 29.49221754257462 29.49221754257462 29.522981138985532 29.522981138985532 29.522981138985532 29.522981138985532 29.522981138985532 29.553744735396446 29.58450833180736 29.58450833180736 29.615271928218274 29.6767991210401 29.707562717451015 29.73832631386193 29.769089910272843 29.83061710309467 29.861380699505585 29.8921442959165 29.8921442959165 29.8921442959165 29.922907892327412 29.922907892327412 29.953671488738326 30.045962277971068 30.07672587438198 30.199780260025637 30.322834645669293 30.415125434902034 30.538179820545686 30.630470609778428 30.81505218824391 30.96887017029848 31.06116095953122 31.21497894158579 31.307269730818533 31.399560520051274 31.491851309284012 31.522614905694926 31.614905694927668 31.70719648416041 31.768723676982237 31.86101446621498 31.984068851858634 32.04559604468046 32.107123237502286 32.1378868339132 32.23017762314594 32.260941219556855 32.29170481596777 32.38399560520051 32.44552279802234 32.53781358725508 32.660867972898735 32.72239516572056 32.87621314777513 33.0300311298297 33.15308551547336 33.33766709393884 33.49148507599341 33.7068302508698 33.983702618568024 34.229811389855335 34.41439296832082 34.75279252884087 34.937374107306354 35.15271928218275 35.337300860648234 35.583409631935545 35.82951840322285 35.9218091924556 36.29097234938656 36.56784471708478 36.78318989196118 37.060062259659404 37.2754074345358 37.4907526094122 37.767624977110415 37.921442959164985 38.25984251968504 38.413660501739606 38.59824208020509 38.81358725508149 39.09045962277971 39.33656839406702 39.5211499725325 39.674967954587075 39.95184032228529 40.22871268998352 40.50558505768174 40.75169382896905 40.96703900384545 41.243911371543675 41.490020142830986 41.58231093206372 41.951474088994686 42.22834645669291 42.44369163156931 42.75132759567845 43.028199963376665 43.39736312030763 43.70499908441677 43.88958066288225 44.135689434169564 44.4433253982787 44.68943416956601 44.99707013367515 45.24317890496246 45.61234206189343 45.85845083318073 46.043032411646216 46.196850393700785 46.350668375755355 46.53524995422084 46.750595129097235 46.87364951474089 47.05823109320637 47.212049075260936 47.33510346090459 47.48892144295917 47.5812122321919 47.70426661783556 47.82732100347921 47.88884819630104 47.95037538912287 48.011902581944696 48.073429774766524 48.165720563999265 48.19648416041018 48.25801135323201 48.319538546053835 48.35030214246475 48.411829335286576 48.50412012451932 48.50412012451932 48.565647317341146 48.59641091375206 48.62717451016297 48.62717451016297 48.65793810657389 48.65793810657389 48.65793810657389 48.65793810657389 48.65793810657389 48.65793810657389 48.65793810657389 48.65793810657389 48.65793810657389 48.65793810657389 48.65793810657389 48.65793810657389 48.65793810657389 48.65793810657389 48.65793810657389 48.65793810657389 48.65793810657389 48.65793810657389 48.65793810657389 48.65793810657389 48.65793810657389 48.65793810657389 48.65793810657389 48.6887017029848 48.719465299395715 48.719465299395715 48.75022889580663 48.75022889580663 48.780992492217536 48.780992492217536 48.780992492217536 48.780992492217536 48.81175608862846 48.81175608862846 48.81175608862846 48.81175608862846 48.81175608862846 48.81175608862846 48.81175608862846 48.81175608862846 48.81175608862846 48.81175608862846 48.81175608862846 48.81175608862846 48.81175608862846 48.81175608862846 48.81175608862846 48.81175608862846 48.81175608862846 48.81175608862846 48.81175608862846 48.81175608862846 48.81175608862846 48.81175608862846 48.81175608862846 48.81175608862846 48.81175608862846 48.81175608862846 48.81175608862846 48.780992492217536 48.780992492217536 48.81175608862846 48.81175608862846 48.81175608862846 48.81175608862846 48.81175608862846 48.81175608862846 48.81175608862846 48.81175608862846 48.84251968503936 48.9040468778612 48.96557407068302 49.027101263504846 49.05786485991577 49.119392052737595 49.18091924555942 49.21168284197033 49.24244643838125 49.24244643838125 49.24244643838125 49.24244643838125 49.24244643838125 49.24244643838125 49.27321003479216 49.27321003479216 49.24244643838125 49.24244643838125 49.27321003479216 49.24244643838125 49.27321003479216 49.27321003479216 49.27321003479216 49.27321003479216 49.27321003479216 49.30397363120308 49.334737227613985 49.334737227613985 49.365500824024906 49.365500824024906 49.365500824024906 49.39626442043581 49.365500824024906 49.365500824024906 49.39626442043581 49.365500824024906 49.39626442043581 49.365500824024906 49.365500824024906 49.365500824024906 49.365500824024906 49.39626442043581 49.365500824024906 49.365500824024906 49.365500824024906 49.365500824024906 49.39626442043581 49.365500824024906 49.365500824024906 49.365500824024906 49.365500824024906 49.365500824024906 49.365500824024906 49.365500824024906 49.365500824024906 49.365500824024906 49.365500824024906 49.365500824024906 49.365500824024906 49.39626442043581 49.365500824024906 49.365500824024906 49.365500824024906 49.365500824024906 49.365500824024906 49.365500824024906 49.365500824024906 49.365500824024906 49.39626442043581 49.365500824024906 49.365500824024906 49.365500824024906 49.365500824024906 49.365500824024906 49.365500824024906 49.365500824024906 49.365500824024906 49.365500824024906 49.39626442043581 49.365500824024906 49.365500824024906 49.365500824024906 49.365500824024906 49.365500824024906 49.365500824024906 49.365500824024906 49.39626442043581 49.365500824024906 49.365500824024906 49.365500824024906 49.39626442043581 49.39626442043581 49.39626442043581 49.365500824024906 49.39626442043581 49.365500824024906 49.365500824024906 49.365500824024906 49.39626442043581 49.365500824024906 49.365500824024906 49.39626442043581 49.365500824024906 49.365500824024906 49.365500824024906 49.365500824024906 49.365500824024906 49.365500824024906 49.365500824024906 49.365500824024906 49.365500824024906 49.365500824024906 49.365500824024906 49.365500824024906 49.365500824024906 49.365500824024906 49.365500824024906 49.365500824024906 49.365500824024906 49.365500824024906 49.39626442043581 49.365500824024906 49.365500824024906 49.365500824024906 49.365500824024906 49.39626442043581 49.365500824024906 49.365500824024906 49.39626442043581 49.365500824024906 49.365500824024906 49.365500824024906 49.365500824024906 49.365500824024906 49.365500824024906 49.365500824024906 49.39626442043581 49.365500824024906 49.365500824024906 49.365500824024906 49.365500824024906 49.365500824024906 49.365500824024906 49.365500824024906 49.365500824024906 49.365500824024906 49.365500824024906 49.365500824024906 49.365500824024906 49.365500824024906 49.365500824024906 49.39626442043581 49.39626442043581 49.365500824024906 49.39626442043581 49.365500824024906 49.365500824024906 49.365500824024906 49.39626442043581 49.39626442043581 49.39626442043581 49.39626442043581 49.365500824024906 49.365500824024906 49.365500824024906 49.365500824024906 49.365500824024906 49.365500824024906 49.365500824024906 49.365500824024906 49.365500824024906 49.365500824024906 49.365500824024906 49.365500824024906 49.365500824024906 49.365500824024906 49.39626442043581 49.365500824024906 49.39626442043581 49.365500824024906 49.365500824024906 49.365500824024906 49.39626442043581 49.365500824024906 49.365500824024906 49.365500824024906 49.39626442043581 49.427028016846734 49.39626442043581 49.39626442043581 49.39626442043581 49.39626442043581 49.39626442043581 49.39626442043581 49.39626442043581 49.39626442043581 49.39626442043581 49.39626442043581 49.365500824024906 49.39626442043581 49.365500824024906 49.39626442043581 49.365500824024906 49.39626442043581 49.365500824024906 49.365500824024906 49.365500824024906 49.365500824024906 49.365500824024906 49.365500824024906 49.365500824024906 49.365500824024906 49.365500824024906 49.365500824024906 49.365500824024906 49.365500824024906 49.365500824024906 49.365500824024906 49.39626442043581 49.365500824024906 49.365500824024906 49.39626442043581 49.365500824024906 49.39626442043581 49.365500824024906 49.365500824024906 49.39626442043581 49.39626442043581 49.39626442043581 49.365500824024906 49.39626442043581 49.365500824024906 49.365500824024906 49.365500824024906 49.365500824024906 49.365500824024906 49.39626442043581 49.365500824024906 49.39626442043581 49.39626442043581 49.365500824024906 49.365500824024906 49.365500824024906 49.39626442043581 49.365500824024906 49.365500824024906 49.365500824024906 49.334737227613985 49.30397363120308 49.27321003479216 49.1501556491485 49.05786485991577 48.99633766709394 48.873283281450284 48.75022889580663 48.6887017029848 48.62717451016297 48.565647317341146 48.473356528108404 48.38106573887566 48.319538546053835 48.22724775682109 48.073429774766524 48.04266617835561 47.95037538912287 47.82732100347921 47.67350302142465 47.550448635780995 47.36586705731551 47.212049075260936 47.05823109320637 46.68906793627541 46.442959164988096 46.25837758652261 46.0122688152353 45.79692364035891 45.58157846548251 45.396996887017025 45.21241530855154 45.05859732649698 44.6586705731551 44.474088994689616 44.35103460904596 44.227980223402305 44.10492583775865 43.981871452114994 43.828053470060425 43.67423548800586 43.366599523896724 43.15125434902033 42.905145577733016 42.566746017212964 42.22834645669291 41.9822376854056 41.73612891411829 41.39772935359824 40.81322102179088 40.690166636147225 40.444057864859914 40.136421900750776 39.921076725874386 39.70573155099798 39.428859183299764 39.18275041201245 38.93664164072514 38.75206006225966 38.50595129097235 38.04449734480864 37.921442959164985 37.73686138069951 37.4907526094122 37.2754074345358 36.998535066837576 36.78318989196118 36.41402673503021 36.13715436733199 35.9218091924556 35.706464017579194 35.52188243911371 35.27577366782641 34.90661051089544 34.69126533601904 34.383629371909905 34.075993407800766 33.860648232924376 33.58377586522615 33.39919428676067 33.214612708295185 33.0300311298297 32.93774034059696 32.84544955136422 32.75315876213148 32.69163156930965 32.63010437648782 32.53781358725508 32.44552279802234 32.3532320087896 32.260941219556855 32.23017762314594 32.107123237502286 32.04559604468046 31.95330525544772 31.86101446621498 31.768723676982237 31.676432887749495 31.584142098516754 31.461087712873102 31.399560520051274 31.245742537996705 31.06116095953122 30.96887017029848 30.81505218824391 30.630470609778428 30.507416224134772 30.415125434902034 30.261307452847465 30.13825306720381 29.922907892327412 29.799853506683757 29.769089910272843 29.707562717451015 29.6767991210401 29.646035524629188 29.58450833180736 29.553744735396446 29.553744735396446 29.522981138985532 29.522981138985532 29.522981138985532 29.522981138985532 29.522981138985532 29.522981138985532 29.49221754257462 29.49221754257462 29.49221754257462 29.49221754257462 29.49221754257462 29.461453946163708 29.461453946163708 29.461453946163708 29.430690349752794 29.430690349752794 29.39992675334188 29.338399560520052 29.276872367698225 29.276872367698225 29.24610877128731 29.24610877128731 29.24610877128731 29.24610877128731 29.24610877128731 29.24610877128731 29.24610877128731 29.24610877128731 29.24610877128731 29.24610877128731 29.24610877128731 29.24610877128731 29.24610877128731 29.215345174876397 29.215345174876397 29.215345174876397 29.24610877128731 29.24610877128731 29.24610877128731 29.24610877128731 29.215345174876397 29.215345174876397 29.24610877128731 29.215345174876397 29.215345174876397 29.215345174876397 29.24610877128731 29.215345174876397 29.24610877128731 29.215345174876397 29.215345174876397 29.215345174876397 29.215345174876397 29.215345174876397 29.215345174876397 29.215345174876397 29.215345174876397 29.215345174876397 29.215345174876397 29.215345174876397 29.215345174876397 29.215345174876397 29.215345174876397 29.215345174876397 29.215345174876397 29.215345174876397 29.215345174876397 29.215345174876397 29.215345174876397 29.215345174876397 29.215345174876397 29.215345174876397 29.215345174876397 29.215345174876397 29.215345174876397 29.215345174876397 29.215345174876397 29.215345174876397 29.215345174876397 29.215345174876397 29.215345174876397 29.215345174876397 29.215345174876397 29.215345174876397 29.215345174876397 29.215345174876397 29.215345174876397 29.215345174876397 29.215345174876397 29.215345174876397 29.215345174876397 29.215345174876397 29.215345174876397 29.215345174876397 29.215345174876397 29.215345174876397 29.215345174876397 29.215345174876397 29.215345174876397 29.215345174876397 29.215345174876397 29.215345174876397 29.215345174876397 29.215345174876397 29.215345174876397 29.184581578465483 29.184581578465483 29.215345174876397 29.215345174876397 29.215345174876397 29.215345174876397 29.215345174876397 29.215345174876397 29.184581578465483 29.215345174876397 29.215345174876397 29.215345174876397 29.215345174876397 29.215345174876397 29.215345174876397 29.215345174876397 29.215345174876397 29.184581578465483 29.184581578465483 29.184581578465483 29.215345174876397 29.215345174876397 29.215345174876397 29.215345174876397 29.215345174876397 29.184581578465483 29.184581578465483 29.215345174876397 29.184581578465483 29.215345174876397 29.215345174876397 29.184581578465483 29.215345174876397 29.184581578465483 29.184581578465483 29.215345174876397 29.184581578465483 29.215345174876397 29.184581578465483 29.215345174876397 29.184581578465483 29.215345174876397 29.215345174876397 29.215345174876397 29.215345174876397 29.215345174876397 29.184581578465483 29.215345174876397 29.184581578465483 29.184581578465483 29.184581578465483 29.215345174876397 29.184581578465483 29.215345174876397 29.215345174876397 29.184581578465483 29.184581578465483 29.215345174876397 29.184581578465483 29.215345174876397 29.184581578465483 29.184581578465483 29.184581578465483 29.184581578465483 29.215345174876397 29.184581578465483 29.184581578465483 29.215345174876397 29.184581578465483 29.184581578465483 29.184581578465483 29.215345174876397 29.184581578465483 29.184581578465483 29.215345174876397 29.184581578465483 29.184581578465483 29.184581578465483 29.215345174876397 29.184581578465483 29.215345174876397 29.215345174876397 29.215345174876397 29.184581578465483 29.184581578465483 29.184581578465483 29.215345174876397 29.184581578465483 29.184581578465483 29.184581578465483 29.215345174876397 29.215345174876397 29.184581578465483 29.215345174876397 29.184581578465483 29.184581578465483 29.184581578465483 29.215345174876397 29.215345174876397 29.215345174876397 29.215345174876397 29.184581578465483 29.184581578465483 29.184581578465483 29.184581578465483 29.184581578465483 29.184581578465483 29.215345174876397 29.184581578465483 29.215345174876397 29.215345174876397 29.215345174876397 29.184581578465483 29.215345174876397 29.215345174876397 29.184581578465483 29.184581578465483 29.184581578465483 29.184581578465483 29.184581578465483 29.215345174876397 29.184581578465483 29.215345174876397 29.215345174876397 29.184581578465483 29.184581578465483 29.215345174876397 29.184581578465483 29.184581578465483 29.184581578465483 29.184581578465483 29.215345174876397 29.184581578465483 29.184581578465483 29.184581578465483 29.184581578465483 29.184581578465483 29.184581578465483 29.184581578465483 29.184581578465483 29.184581578465483 29.184581578465483 29.184581578465483 29.184581578465483 29.184581578465483 29.184581578465483 29.184581578465483 29.184581578465483 29.184581578465483 29.184581578465483 29.184581578465483 29.15381798205457 29.184581578465483 29.184581578465483 29.15381798205457 29.184581578465483 29.184581578465483 29.15381798205457 29.15381798205457 29.15381798205457 29.15381798205457 29.184581578465483 29.184581578465483 29.15381798205457 29.184581578465483 29.15381798205457 29.15381798205457 29.15381798205457 29.15381798205457 29.15381798205457 29.15381798205457 29.15381798205457 29.15381798205457 29.15381798205457 29.15381798205457 29.15381798205457 29.15381798205457 29.15381798205457 29.15381798205457 29.184581578465483 29.15381798205457 29.15381798205457 29.15381798205457 29.15381798205457 29.15381798205457 29.15381798205457 29.15381798205457 29.15381798205457 29.15381798205457 29.15381798205457 29.15381798205457 29.15381798205457 29.15381798205457 29.15381798205457 29.15381798205457 29.15381798205457 29.15381798205457 29.15381798205457 29.15381798205457 29.15381798205457 29.15381798205457 29.15381798205457 29.15381798205457 29.15381798205457 29.15381798205457 29.15381798205457 29.15381798205457 29.15381798205457 29.15381798205457 29.15381798205457 29.15381798205457 29.15381798205457 29.15381798205457 29.15381798205457 29.15381798205457 29.15381798205457 29.15381798205457 29.15381798205457 29.15381798205457 29.15381798205457 29.15381798205457 29.15381798205457 29.15381798205457 29.15381798205457 29.15381798205457 29.15381798205457 29.15381798205457 29.15381798205457 29.15381798205457 29.15381798205457 29.15381798205457 29.15381798205457 29.15381798205457 29.15381798205457 29.15381798205457 29.15381798205457 29.15381798205457 29.15381798205457 29.15381798205457 29.15381798205457 29.15381798205457 29.15381798205457 29.15381798205457 29.15381798205457 29.15381798205457 29.15381798205457 29.15381798205457 29.15381798205457 29.15381798205457 29.15381798205457 29.15381798205457 29.15381798205457 29.15381798205457 29.15381798205457 29.15381798205457 29.15381798205457 29.15381798205457 29.15381798205457 29.15381798205457 29.15381798205457 29.15381798205457 29.184581578465483 29.15381798205457 29.15381798205457 29.15381798205457 29.15381798205457 29.15381798205457 29.15381798205457 29.15381798205457 29.15381798205457 29.15381798205457 29.15381798205457 29.15381798205457 29.15381798205457 29.15381798205457 29.15381798205457 29.15381798205457 29.15381798205457 29.15381798205457 29.15381798205457 29.15381798205457 29.15381798205457 29.15381798205457 29.15381798205457 29.15381798205457 29.15381798205457 29.15381798205457 29.15381798205457 29.15381798205457 29.15381798205457 29.15381798205457 29.123054385643655 29.15381798205457 29.123054385643655 29.15381798205457 29.15381798205457 29.15381798205457 29.15381798205457 29.15381798205457 29.15381798205457 29.123054385643655 29.15381798205457 29.15381798205457 29.15381798205457 29.123054385643655 29.15381798205457 29.15381798205457 29.123054385643655 29.123054385643655 29.123054385643655 29.123054385643655 29.123054385643655 29.123054385643655 29.15381798205457 29.123054385643655 29.15381798205457 29.123054385643655 29.15381798205457 29.123054385643655 29.123054385643655 29.123054385643655 29.123054385643655 29.123054385643655 29.123054385643655 29.123054385643655 29.123054385643655 29.123054385643655 29.123054385643655 29.123054385643655 29.123054385643655 29.123054385643655 29.123054385643655 29.123054385643655 29.123054385643655 29.123054385643655 29.123054385643655 29.123054385643655 29.123054385643655 29.123054385643655 29.123054385643655 29.123054385643655 29.123054385643655 29.123054385643655 29.123054385643655 29.123054385643655 29.123054385643655 29.123054385643655 29.123054385643655 29.123054385643655 29.123054385643655 29.123054385643655 29.123054385643655 29.123054385643655 29.123054385643655 29.123054385643655 29.123054385643655 29.15381798205457 29.123054385643655 29.123054385643655 29.123054385643655 29.123054385643655 29.123054385643655 29.123054385643655 29.123054385643655 29.123054385643655 29.123054385643655 29.123054385643655 29.123054385643655 29.123054385643655 29.123054385643655 29.123054385643655 29.123054385643655 29.123054385643655 29.123054385643655 29.123054385643655 29.123054385643655 29.123054385643655 29.123054385643655 29.123054385643655 29.123054385643655 29.123054385643655 29.123054385643655 29.123054385643655 29.123054385643655 29.123054385643655 29.123054385643655 29.123054385643655 29.123054385643655 29.123054385643655 29.123054385643655 29.123054385643655 29.123054385643655 29.123054385643655 29.123054385643655 29.123054385643655 29.123054385643655 29.123054385643655 29.123054385643655 29.123054385643655 29.123054385643655 29.123054385643655 29.123054385643655 29.123054385643655 29.123054385643655 29.123054385643655 29.123054385643655 29.123054385643655 29.123054385643655 29.123054385643655 29.123054385643655 29.123054385643655 29.123054385643655 29.123054385643655 29.123054385643655 29.123054385643655 29.123054385643655 29.123054385643655 29.123054385643655 29.123054385643655 29.15381798205457 29.123054385643655 29.123054385643655 29.123054385643655 29.123054385643655 29.123054385643655 29.123054385643655 29.123054385643655 29.123054385643655 29.123054385643655 29.123054385643655 29.123054385643655 29.123054385643655 29.123054385643655 29.123054385643655 29.123054385643655 29.09229078923274 29.123054385643655 29.123054385643655 29.123054385643655 29.09229078923274 29.09229078923274 29.09229078923274 29.09229078923274 29.09229078923274 29.09229078923274 29.061527192821828 29.09229078923274 29.061527192821828 29.061527192821828 29.061527192821828 29.061527192821828 29.061527192821828 29.061527192821828 29.061527192821828 29.061527192821828 29.061527192821828 29.061527192821828 29.061527192821828 29.061527192821828 29.061527192821828 29.061527192821828 29.061527192821828 29.061527192821828 29.061527192821828 29.061527192821828 29.061527192821828 29.061527192821828 29.061527192821828 29.061527192821828 29.061527192821828 29.061527192821828 29.061527192821828 29.061527192821828 29.061527192821828 29.061527192821828 29.061527192821828 29.061527192821828 29.061527192821828 29.061527192821828 29.061527192821828 29.061527192821828 29.061527192821828 29.061527192821828 29.061527192821828 29.061527192821828 29.061527192821828 29.061527192821828 29.061527192821828 29.061527192821828 29.061527192821828 29.061527192821828 29.061527192821828 29.061527192821828 29.061527192821828 29.061527192821828 29.061527192821828 29.061527192821828 29.061527192821828 29.061527192821828 29.061527192821828 29.061527192821828 29.061527192821828 29.061527192821828 29.061527192821828 29.061527192821828 29.061527192821828 29.061527192821828 29.061527192821828 29.061527192821828 29.061527192821828 29.061527192821828 29.061527192821828 29.061527192821828 29.061527192821828 29.061527192821828 29.061527192821828 29.061527192821828 29.061527192821828 29.061527192821828 29.061527192821828 29.061527192821828 29.061527192821828 29.061527192821828 29.061527192821828 29.061527192821828 29.061527192821828 29.061527192821828 29.061527192821828 29.061527192821828 29.061527192821828 29.061527192821828 29.061527192821828 29.061527192821828 29.061527192821828 29.061527192821828 29.061527192821828 29.061527192821828 29.061527192821828 29.061527192821828 29.061527192821828 29.061527192821828 29.061527192821828 29.061527192821828 29.061527192821828 29.061527192821828 29.061527192821828 29.061527192821828 29.061527192821828 29.061527192821828 29.061527192821828 29.061527192821828 29.061527192821828 29.061527192821828 29.061527192821828 29.061527192821828 29.061527192821828 29.061527192821828 29.061527192821828 29.061527192821828 29.061527192821828 29.061527192821828 29.061527192821828 29.061527192821828 29.061527192821828 29.061527192821828 29.061527192821828 29.061527192821828 29.061527192821828 29.061527192821828 29.061527192821828 29.061527192821828 29.061527192821828 29.061527192821828 29.061527192821828 29.061527192821828 29.061527192821828 29.061527192821828 29.061527192821828 29.061527192821828 29.061527192821828 29.061527192821828 29.061527192821828 29.061527192821828 29.061527192821828 29.061527192821828 29.061527192821828 29.061527192821828 29.061527192821828 29.061527192821828 29.061527192821828 29.061527192821828 29.061527192821828 29.061527192821828 29.061527192821828 29.061527192821828 29.061527192821828 29.061527192821828 29.061527192821828 29.061527192821828 29.061527192821828 29.061527192821828 29.061527192821828 29.061527192821828 29.061527192821828 29.061527192821828 29.061527192821828 29.061527192821828 29.061527192821828 29.061527192821828 29.061527192821828 29.061527192821828 29.061527192821828 29.061527192821828 29.061527192821828 29.061527192821828 29.061527192821828 29.061527192821828 29.061527192821828 29.061527192821828 29.061527192821828 29.061527192821828 29.061527192821828 29.061527192821828 29.061527192821828 29.061527192821828 29.061527192821828 29.061527192821828 29.061527192821828 29.061527192821828 29.061527192821828 29.061527192821828 29.061527192821828 29.061527192821828 29.061527192821828 29.061527192821828 29.061527192821828 29.061527192821828 29.061527192821828 29.061527192821828 29.061527192821828 29.061527192821828 29.061527192821828 29.061527192821828 29.061527192821828 29.061527192821828 29.061527192821828 29.061527192821828 29.061527192821828 29.061527192821828 29.061527192821828 29.061527192821828 29.061527192821828 29.061527192821828 29.061527192821828 29.061527192821828 29.061527192821828 29.061527192821828 29.061527192821828 29.061527192821828 29.061527192821828 29.061527192821828 29.061527192821828 29.061527192821828 29.061527192821828 29.061527192821828 29.061527192821828 29.061527192821828 29.061527192821828 29.061527192821828 29.061527192821828 29.061527192821828 29.061527192821828 29.061527192821828 29.061527192821828 29.061527192821828 29.061527192821828 29.061527192821828 29.061527192821828 29.061527192821828 29.061527192821828 29.061527192821828 29.061527192821828 29.061527192821828 29.061527192821828 29.061527192821828 29.061527192821828 29.061527192821828 29.061527192821828 29.061527192821828 29.061527192821828 29.061527192821828 29.061527192821828 29.061527192821828 29.061527192821828 29.061527192821828 29.061527192821828 29.061527192821828 29.061527192821828 29.061527192821828 29.061527192821828 29.061527192821828 29.061527192821828 29.061527192821828 29.061527192821828 29.061527192821828 29.061527192821828 29.061527192821828 29.061527192821828 29.061527192821828 29.061527192821828 29.061527192821828 29.061527192821828 29.061527192821828 29.061527192821828 29.061527192821828 29.061527192821828 29.061527192821828 29.061527192821828 29.061527192821828 29.061527192821828 29.061527192821828 29.061527192821828 29.061527192821828 29.061527192821828 29.061527192821828 29.061527192821828 29.061527192821828 29.061527192821828 29.061527192821828 29.061527192821828 29.061527192821828 29.061527192821828 29.061527192821828 29.061527192821828 29.061527192821828 29.061527192821828 29.061527192821828 29.09229078923274 29.061527192821828 29.061527192821828 29.061527192821828 29.061527192821828 29.061527192821828 29.061527192821828 29.061527192821828 29.061527192821828 29.061527192821828 29.061527192821828 29.061527192821828 29.061527192821828 29.061527192821828 29.061527192821828 29.061527192821828 29.061527192821828 29.061527192821828 29.061527192821828 29.061527192821828 29.061527192821828 29.061527192821828 29.061527192821828 29.061527192821828 29.061527192821828 29.061527192821828 29.061527192821828 29.061527192821828 29.061527192821828 29.061527192821828 29.061527192821828 29.061527192821828 29.061527192821828 29.061527192821828 29.061527192821828 29.061527192821828 29.061527192821828 29.061527192821828 29.061527192821828 29.061527192821828 29.061527192821828 29.061527192821828 29.061527192821828 29.061527192821828 29.061527192821828 29.061527192821828 29.061527192821828 29.061527192821828 29.061527192821828 29.061527192821828 29.061527192821828 29.061527192821828 29.061527192821828 29.061527192821828 29.061527192821828 29.061527192821828 29.061527192821828 29.061527192821828 29.061527192821828 29.061527192821828 29.061527192821828 29.061527192821828 29.061527192821828 29.061527192821828 29.061527192821828 29.09229078923274 29.09229078923274 29.09229078923274 29.09229078923274 29.09229078923274 29.09229078923274 29.123054385643655 29.123054385643655 29.15381798205457 29.15381798205457 29.15381798205457 29.184581578465483 29.15381798205457 29.184581578465483 29.184581578465483 29.184581578465483 29.184581578465483 29.184581578465483 29.184581578465483 29.215345174876397 29.215345174876397 29.215345174876397 29.215345174876397 29.24610877128731 29.24610877128731 29.24610877128731 29.24610877128731 29.24610877128731 29.24610877128731 29.24610877128731 29.276872367698225 29.276872367698225 29.276872367698225 29.30763596410914 29.30763596410914 29.30763596410914 29.30763596410914 29.338399560520052 29.338399560520052 29.369163156930966 29.369163156930966 29.39992675334188 29.39992675334188 29.430690349752794 29.430690349752794 29.430690349752794 29.461453946163708 29.461453946163708 29.49221754257462 29.49221754257462 29.522981138985532 29.522981138985532 29.522981138985532 29.522981138985532 29.522981138985532 29.553744735396446 29.553744735396446 29.553744735396446 29.553744735396446 29.553744735396446 29.58450833180736 29.58450833180736 29.58450833180736 29.58450833180736 29.58450833180736 29.615271928218274 29.615271928218274 29.646035524629188 29.646035524629188 29.6767991210401 29.707562717451015 29.769089910272843 29.799853506683757 29.83061710309467 29.861380699505585 29.922907892327412 29.98443508514924 29.98443508514924 30.07672587438198 30.169016663614723 30.199780260025637 30.29207104925838 30.353598242080206 30.445889031312948 30.538179820545686 30.5689434169566 30.66123420618934 30.72276139901117 30.81505218824391 30.907342977476652 31.030397363120308 31.091924555942136 31.245742537996705 31.27650613440762 31.36879692364036 31.430324116462188 31.55337850210584 31.676432887749495 31.768723676982237 31.891778062625892 32.014832448269544 32.1378868339132 32.260941219556855 32.38399560520051 32.53781358725508 32.78392235854239 32.84544955136422 32.93774034059696 33.09155832265153 33.214612708295185 33.33766709393884 33.42995788317158 33.55301226881524 33.7068302508698 33.73759384728072 33.79912104010255 33.922175425746204 34.01446621497894 34.075993407800766 34.19904779344442 34.41439296832082 34.5989745467863 34.69126533601904 34.87584691448453 35.12195568577184 35.24501007141549 35.46035524629189 35.55264603552463 35.76799121040103 36.01409998168833 36.1679179637429 36.444790331441126 36.81395348837209 36.93700787401575 37.21388024171397 37.398461820179456 37.67533418787768 37.9522065555759 38.25984251968504 38.50595129097235 38.75206006225966 38.93664164072514 39.121223219190625 39.275041201245195 39.582677165354326 39.82878593664164 39.982603918696206 40.22871268998352 40.444057864859914 40.6286394433254 40.87474821461271 41.02856619666728 41.243911371543675 41.459256546420065 41.61307452847464 41.82841970335103 42.04376487822743 42.32063724592565 42.47445522798022 42.62827321003479 42.905145577733016 43.15125434902033 43.42812671671855 43.612708295184035 43.70499908441677 43.828053470060425 43.92034425929317 43.95110785570408 44.01263504852591 44.04339864493682 44.04339864493682 44.074162241347736 44.04339864493682 44.04339864493682 44.04339864493682 44.04339864493682 44.04339864493682 44.04339864493682 44.04339864493682 44.04339864493682 44.04339864493682 44.04339864493682 44.04339864493682 44.04339864493682 44.04339864493682 44.074162241347736 44.04339864493682 44.04339864493682 44.04339864493682 44.04339864493682 44.04339864493682 44.04339864493682 44.04339864493682 44.04339864493682 44.04339864493682 44.04339864493682 44.04339864493682 44.04339864493682 44.10492583775865 44.16645303058048 44.19721662699139 44.25874381981322 44.28950741622413 44.32027101263505 44.32027101263505 44.381798205456874 44.41256180186779 44.41256180186779 44.4433253982787 44.474088994689616 44.50485259110053 44.50485259110053 44.50485259110053 44.50485259110053 44.50485259110053 44.535616187511444 44.50485259110053 44.50485259110053 44.50485259110053 44.50485259110053 44.50485259110053 44.50485259110053 44.50485259110053 44.50485259110053 44.50485259110053 44.50485259110053 44.50485259110053 44.50485259110053 44.535616187511444 44.50485259110053 44.50485259110053 44.50485259110053 44.50485259110053 44.50485259110053 44.50485259110053 44.50485259110053 44.50485259110053 44.50485259110053 44.50485259110053 44.50485259110053 44.50485259110053 44.50485259110053 44.50485259110053 44.50485259110053 44.50485259110053 44.535616187511444 44.535616187511444 44.535616187511444 44.535616187511444 44.56637978392236 44.627906976744185 44.72019776597693 44.75096136238784 44.81248855520967 44.90477934444241 44.935542940853324 44.99707013367515 45.02783373008606 45.12012451931881 45.21241530855154 45.24317890496246 45.30470609778429 45.3354696941952 45.36623329060612 45.36623329060612 45.396996887017025 45.427760483427946 45.45852407983885 45.48928767624977 45.52005127266068 45.5508148690716 45.5508148690716 45.5508148690716 45.58157846548251 45.58157846548251 45.58157846548251 45.58157846548251 45.58157846548251 45.58157846548251 45.58157846548251 45.5508148690716 45.58157846548251 45.58157846548251 45.58157846548251 45.58157846548251 