0.01274505253215291	-0.0001664550478901487	0.013571681210003043	1.3828765014262798	1.3830702165448925	1.3835682134113567	1.383620069458493	1.3834427456191476	132.0	255.0	11111110.0	
0.011257959215367621	-0.00016611711225601709	0.01357436341933768	1.3828893164264342	1.3830842236380845	1.3835807303882517	1.383634076551685	1.383455560619302	133.0	255.0	11111110.0	
0.010174348676811322	-0.00016577929721948976	0.013572575279781255	1.3828812697984303	1.3830755809635618	1.3835723857369884	1.3836269239934593	1.3834487060843357	134.0	255.0	11111110.0	
0.009623839703977883	-0.00016544160337575816	0.013573171326300064	1.3828770974727986	1.3830696204983737	1.3835679153880973	1.3836239437608653	1.3834433416656664	135.0	255.0	11111110.0	
0.009642782791877563	-0.0001651040313191326	0.01357078714022483	1.3828720310773888	1.3830660442192608	1.3835649351555033	1.3836194734119742	1.3834382752702565	136.0	255.0	11111110.0	
0.010192674785165631	-0.00016476658164303596	0.013566614814593174	1.382881865844949	1.3830776671263776	1.3835753659695824	1.3836269239934593	1.3834501962006327	137.0	255.0	11111110.0	
0.011163361203328679	-0.00016442925493999745	0.0135612503959239	1.382888422356656	1.3830815414287498	1.3835807303882517	1.3836307982958316	1.3834552625960426	138.0	255.0	11111110.0	
0.012396200567528095	-0.0001640920518016467	0.013557972140070455	1.382878885612355	1.3830717066611895	1.3835697035276537	1.3836239437608653	1.3834442357354446	139.0	255.0	11111110.0	
0.013702081805926207	-0.0001637549728187077	0.01355469388421701	1.3828726271239076	1.383068428405336	1.3835622529461686	1.383618579342196	1.3834394673632942	140.0	255.0	11111110.0	
0.014907422472649335	-0.00016341801858099316	0.01356274051222092	1.3828782895658362	1.3830726007309677	1.3835688094578755	1.3836233477143465	1.3834469179447793	141.0	255.0	11111110.0	
0.015842028210354193	-0.000163081189677399	0.013568402954149598	1.382869944914573	1.3830642560797044	1.3835589746903152	1.3836150030630832	1.383438573293516	142.0	255.0	11111110.0	
0.01639555603568457	-0.00016274448669589906	0.013568700977409002	1.3828767994495392	1.3830717066611895	1.3835664252718003	1.3836212615515306	1.3834433416656664	143.0	255.0	11111110.0	
0.016517922624089652	-0.00016240791022353982	0.013560952372664496	1.3828741172402046	1.3830690244518549	1.3835664252718003	1.3836197714352336	1.3834433416656664	144.0	255.0	11111110.0	
0.01623277431755024	-0.00016207146084643544	0.01355469388421701	1.3828809717751709	1.38307647503334	1.3835738758532854	1.3836269239934593	1.383450494223892	145.0	255.0	11111110.0	
0.015615536269087939	-0.00016173513914976296	0.013556780047032839	1.382881865844949	1.3830758789868212	1.3835747699230636	1.3836293081795346	1.383451090270411	146.0	255.0	11111110.0	
0.01477170126553732	-0.0001613989457177577	0.013562442488961516	1.382883952007765	1.3830776671263776	1.38357655806262	1.383631096319091	1.3834534744564861	147.0	255.0	11111110.0	
0.013822478662309866	-0.00016106288113370865	0.013558270163329859	1.382883952007765	1.383079455265934	1.3835756639928418	1.383631096319091	1.3834531764332267	148.0	255.0	11111110.0	
0.012915115401598407	-0.0001607269459799541	0.013554097837698202	1.382869944914573	1.3830672363122984	1.3835619549229092	1.383618579342196	1.3834388713167753	149.0	255.0	11111110.0	
0.012168161943458568	-0.00016039114083787756	0.013548435395769524	1.3828651765424225	1.3830612758471104	1.3835568885274994	1.3836114267839703	1.3834341029446249	150.0	255.0	11111110.0	
0.011671421469008406	-0.00016005546628790365	0.013543369000359655	1.3828776935193174	1.3830723027077083	1.3835697035276537	1.3836254338771623	1.383444533758704	151.0	255.0	11111110.0	
0.01146663159941021	-0.00015971992290949392	0.013534726325836936	1.3828753093332422	1.3830702165448925	1.3835646371322439	1.38362155957479	1.38344155352611	152.0	255.0	11111110.0	
0.011558718602836698	-0.00015938451128114323	0.013526381674573621	1.3828735211936858	1.3830681303820767	1.3835607628298716	1.3836173872491584	1.3834394673632942	153.0	255.0	11111110.0	
0.011917101294294881	-0.00015904923198037586	0.013528765860648854	1.382880375728652	1.3830746868937835	1.3835700015509131	1.3836260299236811	1.3834481100378169	154.0	255.0	11111110.0	
0.012461914893935824	-0.00015871408558374182	0.01353502434909634	1.3828693488680541	1.3830666402657796	1.3835619549229092	1.3836173872491584	1.383438573293516	155.0	255.0	11111110.0	
0.013085966095109225	-0.00015837907266681334	0.013528169814130046	1.382866964681979	1.3830651501494826	1.3835598687600934	1.3836129169002673	1.383435593060922	156.0	255.0	11111110.0	
0.01370754085799148	-0.00015804419380418134	0.013520719232644944	1.3828583220074562	1.3830532292191065	1.3835494379460143	1.3836021880629288	1.3834239701538051	157.0	255.0	11111110.0	
0.014252812301409063	-0.00015770944956945194	0.013525189581536005	1.3828642824726443	1.3830568054982193	1.383553014225127	1.383609042597895	1.3834308246887714	158.0	255.0	11111110.0	
0.014647104389427523	-0.00015737484053524316	0.013532640163021107	1.3828723291006482	1.383066938289039	1.3835643391089845	1.3836203674817524	1.3834403614330724	159.0	255.0	11111110.0	
0.014846077674457817	-0.00015704036727318162	0.013535322372355744	1.3828696468913135	1.3830642560797044	1.3835619549229092	1.3836182813189366	1.3834379772469971	160.0	255.0	11111110.0	
0.014848826210196031	-0.0001567060303538994	0.013538302604949785	1.3828708389843511	1.3830651501494826	1.3835619549229092	1.383618579342196	1.3834403614330724	161.0	255.0	11111110.0	
0.014676110833414526	-0.00015637183034703078	0.013540388767765614	1.3828782895658362	1.383073494800746	1.3835702995741725	1.3836272220167187	1.3834481100378169	162.0	255.0	11111110.0	
0.014370046267353574	-0.00015603776782120918	0.013539494697987401	1.3828806737519115	1.3830755809635618	1.3835700015509131	1.3836284141097563	1.3834498981773733	163.0	255.0	11111110.0	
0.013993000238773081	-0.00015570384334406427	0.013540686791025018	1.3828756073565016	1.3830696204983737	1.383564041085725	1.3836227516678277	1.3834433416656664	164.0	255.0	11111110.0	
0.013605214674300902	-0.00015537005748221904	0.013543667023619059	1.3828753093332422	1.3830717066611895	1.3835664252718003	1.3836224536445683	1.3834448317819634	165.0	255.0	11111110.0	
0.013264957354157409	-0.00015503641080128687	0.013552011674882373	1.3828863361938402	1.3830830315450469	1.3835777501556576	1.383634076551685	1.3834579448053772	166.0	255.0	11111110.0	
0.013009276528216018	-0.00015470290386586862	0.013560952372664496	1.382882461891468	1.383074984917043	1.3835726837602478	1.3836284141097563	1.3834507922471515	167.0	255.0	11111110.0	
0.01285662108604372	-0.0001543695372395501	0.013563932605258537	1.3828833559612461	1.3830782631728964	1.383573577830026	1.3836319903888692	1.3834534744564861	168.0	255.0	11111110.0	
0.012811705221143126	-0.0001540363114848992	0.013559164233108071	1.382880375728652	1.38307647503334	1.3835717896904696	1.3836299042260534	1.383451090270411	169.0	255.0	11111110.0	
0.012866428255822217	-0.00015370322716346343	0.01354962748880714	1.3828908065427312	1.3830880979404567	1.3835828165510675	1.3836394409703543	1.3834597329449336	170.0	255.0	11111110.0	
0.013005017001005318	-0.00015337028483576712	0.013544859116656675	1.3828925946822876	1.383086011777641	1.3835840086441051	1.3836373548075385	1.38346152108449	171.0	255.0	11111110.0	
0.01319388254646624	-0.000153037485061309	0.013544859116656675	1.3828630903796066	1.383055911428441	1.3835539082949053	1.3836084465513763	1.383432016781809	172.0	255.0	11111110.0	
0.013398329367609398	-0.00015270482839855972	0.013549925512066545	1.382861898286569	1.3830562094517005	1.383552120155349	1.3836084465513763	1.3834311227120308	173.0	255.0	11111110.0	
0.013580924658176825	-0.00015237231540495932	0.013552905744660585	1.3828738192169452	1.3830693224751143	1.3835658292252815	1.38362155957479	1.3834433416656664	174.0	255.0	11111110.0	
0.013720265819726123	-0.00015203994663691482	0.013553799814438798	1.382875905379761	1.3830737928240053	1.3835700015509131	1.3836239437608653	1.3834454278284822	175.0	255.0	11111110.0	
0.01380551258797238	-0.00015170772264979783	0.013552607721401181	1.3828711370076106	1.3830687264285955	1.3835643391089845	1.3836197714352336	1.3834427456191476	176.0	255.0	11111110.0	
0.013840363159927805	-0.00015137564399794206	0.013553501791179394	1.3828735211936858	1.3830675343355578	1.3835634450392063	1.38362155957479	1.3834436396889258	177.0	255.0	11111110.0	
0.013826247025339444	-0.0001510437112346411	0.013549329465547736	1.3828735211936858	1.3830675343355578	1.3835634450392063	1.3836218575980495	1.3834418515493694	178.0	255.0	11111110.0	
0.013783525588492414	-0.00015071192491214607	0.013546051209694291	1.382877395496058	1.3830711106146707	1.3835679153880973	1.3836254338771623	1.3834457258517416	179.0	255.0	11111110.0	
0.013727676661059451	-0.00015038028558166325	0.01354307097710025	1.3828672627052383	1.3830633620099262	1.3835583786437964	1.3836153010863426	1.383434997014403	180.0	255.0	11111110.0	
0.013679709061404808	-0.00015004879379335173	0.013547243302731908	1.382868454798276	1.3830675343355578	1.3835607628298716	1.3836153010863426	1.3834373812004783	181.0	255.0	11111110.0	
0.013639328226259857	-0.0001497174500963211	0.01354813737251012	1.3828765014262798	1.3830717066611895	1.3835673193415785	1.3836224536445683	1.3834436396889258	182.0	255.0	11111110.0	
0.013607609949755559	-0.00014938625503862924	0.01354158086080323	1.3828785875890957	1.3830702165448925	1.3835664252718003	1.3836233477143465	1.383443043642407	183.0	255.0	11111110.0	
0.013594340346623003	-0.00014905520916727992	0.013538600628209189	1.3828878263101372	1.3830791572426746	1.3835753659695824	1.3836293081795346	1.3834519843401891	184.0	255.0	11111110.0	
0.013593564884086319	-0.00014872431302822076	0.01354009074450621	1.382889912472953	1.3830806473589716	1.3835798363184735	1.3836322884121286	1.3834543685262644	185.0	255.0	11111110.0	
0.013587404311860547	-0.0001483935671663408	0.013537110511912169	1.382880375728652	1.3830702165448925	1.3835697035276537	1.3836224536445683	1.3834451298052228	186.0	255.0	11111110.0	
0.013567501300383084	-0.00014806297212546836	0.013529659930427066	1.382860408170272	1.3830532292191065	1.3835518221320895	1.3836036781792258	1.383426056316621	187.0	255.0	11111110.0	
0.013537762483950175	-0.00014773252844836864	0.013528169814130046	1.3828642824726443	1.3830585936377757	1.3835577825972776	1.383609042597895	1.3834308246887714	188.0	255.0	11111110.0	
0.013489312643225452	-0.00014740223667674177	0.013526083651314217	1.382857427937678	1.3830487588702154	1.3835467557366796	1.3835989098070753	1.3834206918979517	189.0	255.0	11111110.0	
0.01342954764536457	-0.00014707209735122045	0.013527573767611238	1.3828562358446403	1.383045480614362	1.3835434774808262	1.3835932473651467	1.383418009688617	190.0	255.0	11111110.0	
0.01336261556348013	-0.00014674211101136782	0.01352846783738945	1.3828616002633096	1.3830508450330312	1.383550033992533	1.3836012939931506	1.3834254602701022	191.0	255.0	11111110.0	
0.013299626511732391	-0.00014641227819567532	0.013527573767611238	1.382866964681979	1.3830547193354035	1.3835533122483865	1.383606062365301	1.3834281424794368	192.0	255.0	11111110.0	
0.013252834643103261	-0.00014608259944156037	0.01352340144197958	1.38286636863546	1.38305650747496	1.3835545043414241	1.3836066584118198	1.3834299306189932	193.0	255.0	11111110.0	
0.013238474040670495	-0.0001457530752853645	0.013520123186126136	1.3828690508447947	1.3830597857308133	1.3835616568996498	1.3836117248072297	1.3834346989911437	194.0	255.0	11111110.0	
0.013262808088759131	-0.00014542370626235098	0.013516248883753882	1.3828675607284977	1.3830568054982193	1.3835592727135746	1.3836096386444139	1.3834338049213655	195.0	255.0	11111110.0	
0.013330931046229701	-0.00014509449290670297	0.01351535481397567	1.3828738192169452	1.3830615738703698	1.383564041085725	1.3836132149235267	1.383437083177219	196.0	255.0	11111110.0	
0.013432644188820743	-0.00014476543575152144	0.013512672604641033	1.3828690508447947	1.3830591896842945	1.3835598687600934	1.3836093406211545	1.3834317187585496	197.0	255.0	11111110.0	
0.013558337684707523	-0.00014443653532882308	0.013510586441825205	1.3828645804959037	1.3830553153819223	1.3835553984112023	1.3836048702722634	1.3834284405026962	198.0	255.0	11111110.0	
0.013689852203390803	-0.00014410779216953828	0.013508202255749972	1.3828693488680541	1.3830576995679975	1.3835571865507588	1.3836081485281169	1.3834323148050685	199.0	255.0	11111110.0	
0.013807087437324849	-0.00014377920680350923	0.013505222023155931	1.3828791836356145	1.3830660442192608	1.3835673193415785	1.383615599109602	1.3834391693400347	200.0	255.0	11111110.0	
0.013892758831020072	-0.00014345077975948798	0.01350373190685891	1.3828845480542837	1.38307140863793	1.3835702995741725	1.3836224536445683	1.3834463218982604	201.0	255.0	11111110.0	
0.01392668219904184	-0.00014312251156513444	0.013498963534708445	1.382864878519163	1.3830517391028094	1.3835503320157925	1.38360159201641	1.3834266523631398	202.0	255.0	11111110.0	
0.013903334487392865	-0.00014279440274701457	0.01349419516255798	1.382861898286569	1.3830472687539184	1.3835494379460143	1.383598611783816	1.383420989921211	203.0	255.0	11111110.0	
0.013826485723438725	-0.00014246645383059846	0.01349419516255798	1.3828872302636184	1.3830731967774865	1.3835738758532854	1.3836221556213089	1.383444533758704	204.0	255.0	11111110.0	
0.01370541174553295	-0.00014213866534025846	0.01350075167426487	1.382895872938141	1.3830827335217875	1.3835843066673645	1.383631096319091	1.3834543685262644	205.0	255.0	11111110.0	
0.013543845501583884	-0.00014181103779926742	0.013501347720783678	1.382897959100957	1.3830836275915657	1.3835866908534398	1.383634076551685	1.3834549645727832	206.0	255.0	11111110.0	
0.013373326027991347	-0.00014148357172979678	0.013505222023155931	1.3828955749148817	1.3830827335217875	1.3835857967836616	1.383632586435388	1.3834552625960426	207.0	255.0	11111110.0	
0.013214001273271042	-0.00014115626765291486	0.013507904232490568	1.3829080918917767	1.3830943564289042	1.383597121667519	1.3836442093425048	1.3834683756194563	208.0	255.0	11111110.0	
0.013087750330751645	-0.0001408291260885851	0.01350730818597176	1.3828931907288065	1.3830788592194152	1.3835807303882517	1.3836275200399781	1.3834519843401891	209.0	255.0	11111110.0	
0.013017572041977983	-0.0001405021475556644	0.01350730818597176	1.382877395496058	1.3830642560797044	1.3835658292252815	1.3836132149235267	1.3834361891074407	210.0	255.0	11111110.0	
0.013014091508552235	-0.0001401753325719012	0.01350730818597176	1.3828946808451035	1.3830803493357122	1.383581028411511	1.3836305002725722	1.3834519843401891	211.0	255.0	11111110.0	
0.013077653418085132	-0.00013984868165393415	0.01350581806967474	1.3828982571242163	1.3830833295683063	1.3835852007371428	1.3836331824819068	1.3834564546890802	212.0	255.0	11111110.0	
0.013201641337833013	-0.00013952219531729012	0.013504327953377719	1.3829018334033292	1.383090482126532	1.3835902671325526	1.3836373548075385	1.38346152108449	213.0	255.0	11111110.0	
0.013367595448144615	-0.00013919587407638267	0.013501347720783678	1.3828955749148817	1.3830851177078627	1.383584604690624	1.3836307982958316	1.3834531764332267	214.0	255.0	11111110.0	
0.013554991965232382	-0.0001388697184445105	0.013499857604486657	1.3828878263101372	1.3830758789868212	1.38357655806262	1.3836233477143465	1.3834463218982604	215.0	255.0	11111110.0	
0.013732919045495324	-0.00013854372893385577	0.013495387255595596	1.3828857401473214	1.383072004684449	1.3835756639928418	1.3836206655050118	1.383444533758704	216.0	255.0	11111110.0	
0.013876031803491473	-0.00013821790605548272	0.013487936674110492	1.3828705409610917	1.3830550173586629	1.3835574845740182	1.3836036781792258	1.3834266523631398	217.0	255.0	11111110.0	
0.013972170667024397	-0.00013789225031933611	0.013486744581072876	1.382869944914573	1.3830535272423659	1.38355659050424	1.383603082132707	1.3834269503863992	218.0	255.0	11111110.0	
0.01399919033855384	-0.00013756676223423975	0.01348346632521943	1.3828568318911592	1.3830407122422115	1.3835449675971232	1.3835914592255902	1.3834138373629854	219.0	255.0	11111110.0	
0.01395594396327902	-0.000137241442307895	0.013480784115884794	1.3828687528215353	1.3830523351493282	1.383555100387943	1.3836009959698912	1.3834242681770645	220.0	255.0	11111110.0	
0.013847420393548809	-0.00013691629104687955	0.013477505860031349	1.382872925147167	1.3830556134051817	1.3835583786437964	1.3836048702722634	1.3834287385259556	221.0	255.0	11111110.0	
0.013689564686691013	-0.00013659130895664592	0.013474227604177904	1.3828723291006482	1.3830556134051817	1.3835607628298716	1.3836069564350792	1.383429036549215	222.0	255.0	11111110.0	
0.01350955264644179	-0.00013626649654152015	0.013476313766993733	1.3828782895658362	1.383060977823851	1.3835631470159468	1.383610532714192	1.3834326128283279	223.0	255.0	11111110.0	
0.013329417496052464	-0.00013594185430470051	0.01348048609262539	1.382878885612355	1.3830630639866668	1.3835643391089845	1.3836114267839703	1.3834346989911437	224.0	255.0	11111110.0	
0.01316958040080729	-0.0001356173827482562	0.013481380162403602	1.3828693488680541	1.3830553153819223	1.3835574845740182	1.383604572249004	1.3834263543398804	225.0	255.0	11111110.0	
0.01306021216185989	-0.000135293082373126	0.013487340627591684	1.3828762034030204	1.3830636600331856	1.3835646371322439	1.3836129169002673	1.3834361891074407	226.0	255.0	11111110.0	
0.013008536990721542	-0.00013496895367911714	0.01349061888344513	1.382882461891468	1.3830675343355578	1.3835688094578755	1.3836173872491584	1.3834397653865536	227.0	255.0	11111110.0	
0.013020627142287656	-0.00013464499716490418	0.01349061888344513	1.382895872938141	1.3830821374752686	1.3835822205045487	1.3836302022493128	1.3834516863169297	228.0	255.0	11111110.0	
0.013094991880569095	-0.00013432121332802765	0.013488830743888706	1.3828991511939945	1.3830863098009003	1.3835866908534398	1.3836322884121286	1.383455560619302	229.0	255.0	11111110.0	
0.013223548314327229	-0.00013399760266489296	0.013489426790407514	1.3828982571242163	1.383083925614825	1.3835852007371428	1.3836328844586474	1.383457050735599	230.0	255.0	11111110.0	
0.013379860526606481	-0.00013367416567076928	0.013484956441516451	1.38289646898466	1.3830836275915657	1.383584604690624	1.383634076551685	1.3834549645727832	231.0	255.0	11111110.0	
0.01354750340584212	-0.00013335090283978843	0.01348197620892241	1.3828917006125094	1.3830791572426746	1.3835792402719547	1.3836299042260534	1.3834507922471515	232.0	255.0	11111110.0	
0.013701303952648842	-0.00013302781466494385	0.013479293999587773	1.3828997472405133	1.383085415731122	1.3835852007371428	1.3836364607377603	1.3834576467821178	233.0	255.0	11111110.0	
0.013820958834471979	-0.00013270490163808934	0.013477803883290753	1.3828917006125094	1.3830785611961558	1.383578048178917	1.3836269239934593	1.383449600154114	234.0	255.0	11111110.0	
0.013887246984256524	-0.00013238216424993826	0.013473631557659096	1.382880375728652	1.383066938289039	1.3835682134113567	1.3836150030630832	1.383437083177219	235.0	255.0	11111110.0	
0.013896601468005709	-0.0001320596029900624	0.013470949348324459	1.382875905379761	1.383060977823851	1.3835622529461686	1.3836087445746357	1.383432016781809	236.0	255.0	11111110.0	
0.013849184761430027	-0.00013173721834689107	0.013469459232027439	1.3828720310773888	1.3830562094517005	1.383558080620537	1.3836063603885604	1.3834272484096586	237.0	255.0	11111110.0	
0.013755210069731402	-0.00013141501080771013	0.013470949348324459	1.3828702429378323	1.3830556134051817	1.3835589746903152	1.383604572249004	1.3834269503863992	238.0	255.0	11111110.0	
0.013629256452256499	-0.00013109298085866116	0.013475121673956116	1.3828693488680541	1.3830547193354035	1.3835592727135746	1.383604572249004	1.3834266523631398	239.0	255.0	11111110.0	
0.01348899124364871	-0.0001307711289847405	0.01348048609262539	1.3828616002633096	1.3830457786376213	1.3835473517831984	1.3835974196907783	1.3834186057351359	240.0	255.0	11111110.0	
0.013354103568824277	-0.00013044945566979843	0.013486148534554068	1.382869944914573	1.383055911428441	1.3835559944577211	1.383607552481598	1.3834281424794368	241.0	255.0	11111110.0	
0.013237109672684124	-0.00013012796139653834	0.013485254464775855	1.3828693488680541	1.3830541232888847	1.3835562924809806	1.383606062365301	1.3834248642235834	242.0	255.0	11111110.0	
0.01315260398305465	-0.00012980664664651587	0.01347690981351254	1.3828696468913135	1.3830556134051817	1.3835589746903152	1.3836066584118198	1.3834272484096586	243.0	255.0	11111110.0	
0.013120986890921688	-0.00012948551190013815	0.013473035511140288	1.382872925147167	1.3830588916610351	1.3835628489926874	1.3836099366676733	1.3834332088748467	244.0	255.0	11111110.0	
0.013146494727815544	-0.00012916455763666305	0.013477505860031349	1.3828753093332422	1.3830627659634074	1.3835634450392063	1.3836123208537485	1.3834367851539595	245.0	255.0	11111110.0	
0.01321269492341584	-0.0001288437843341984	0.013479890046106582	1.3828756073565016	1.3830621699168886	1.3835619549229092	1.383612618877008	1.383433506898106	246.0	255.0	11111110.0	
0.013306413865145118	-0.00012852319246970124	0.013477803883290753	1.3828651765424225	1.3830532292191065	1.3835506300390519	1.383603082132707	1.3834236721305457	247.0	255.0	11111110.0	
0.013423304836488646	-0.0001282027825189771	0.01348197620892241	1.382878885612355	1.383065448172742	1.383567021318319	1.383617089225899	1.383438573293516	248.0	255.0	11111110.0	
0.013530560564082113	-0.0001278825549566794	0.013475717720474924	1.3828806737519115	1.3830672363122984	1.3835682134113567	1.3836188773654554	1.3834391693400347	249.0	255.0	11111110.0	
0.013620438251489415	-0.00012756251025630879	0.01346588295291459	1.3828812697984303	1.3830657461960014	1.3835685114346161	1.3836164931793802	1.3834406594563318	250.0	255.0	11111110.0	
0.013688075631339272	-0.00012724264889021233	0.013460220510985912	1.3828872302636184	1.3830717066611895	1.383575067946323	1.3836227516678277	1.3834451298052228	251.0	255.0	11111110.0	
0.013723776222455707	-0.00012692297132958292	0.013457538301651275	1.3828866342170996	1.3830726007309677	1.3835747699230636	1.3836248378306435	1.3834451298052228	252.0	255.0	11111110.0	
0.013715841937412477	-0.00012660347804445873	0.013448597603869152	1.382882461891468	1.3830690244518549	1.3835694055043943	1.383620069458493	1.38344155352611	253.0	255.0	11111110.0	
0.013678341355473378	-0.00012628416950372266	0.013444723301496899	1.3828621963098284	1.3830490568934748	1.383550033992533	1.383597121667519	1.3834192017816547	254.0	255.0	11111110.0	
0.01361592709576008	-0.00012596504617510155	0.013443829231718687	1.3828556397981215	1.383040414218952	1.3835449675971232	1.383590565155812	1.3834129432932072	255.0	255.0	11111110.0	
0.01353791943529822	-0.0001256461085251658	0.013445021324756303	1.3828767994495392	1.3830615738703698	1.3835652331787627	1.3836114267839703	1.3834341029446249	0.0	255.0	11111110.0	
0.013450856183738246	-0.00012532735701932887	0.01344263713868107	1.3828908065427312	1.3830761770100806	1.3835786442254359	1.3836257319004217	1.3834484080610763	1.0	255.0	11111110.0	
0.013370079810510114	-0.00012500879212184662	0.013439954929346434	1.3828863361938402	1.383073494800746	1.3835753659695824	1.3836233477143465	1.383444533758704	2.0	255.0	11111110.0	
0.013306892149702269	-0.00012469041429581684	0.013438464813049413	1.3828857401473214	1.3830743888705241	1.3835741738765448	1.383624539807384	1.383444533758704	3.0	255.0	11111110.0	
0.0132782154049222	-0.0001243722240031787	0.01344919365038796	1.382888422356656	1.3830746868937835	1.3835747699230636	1.3836269239934593	1.3834433416656664	4.0	255.0	11111110.0	
0.013265749373545367	-0.0001240542217047123	0.013450981789944385	1.3828794816588739	1.3830660442192608	1.3835685114346161	1.3836173872491584	1.3834382752702565	5.0	255.0	11111110.0	
0.013274658694689155	-0.00012373640786003827	0.013448895627128556	1.3828765014262798	1.3830636600331856	1.3835658292252815	1.3836144070165644	1.3834367851539595	6.0	255.0	11111110.0	
0.013311373151488514	-0.00012341878292761733	0.013453663999279022	1.382892892705547	1.383077965149637	1.3835798363184735	1.3836299042260534	1.383451090270411	7.0	255.0	11111110.0	
0.013363486517411415	-0.0001231013473647497	0.013459922487726508	1.3828881243333966	1.3830755809635618	1.3835768560858794	1.3836260299236811	1.383446023875001	8.0	255.0	11111110.0	
0.013411672173502226	-0.0001227841016275749	0.013455452138835446	1.382886932240359	1.38307647503334	1.3835771541091388	1.3836254338771623	1.383446023875001	9.0	255.0	11111110.0	
0.013461549117994511	-0.0001224670461710713	0.013453067952760214	1.3828896144496936	1.3830776671263776	1.3835786442254359	1.3836275200399781	1.3834472159680387	10.0	255.0	11111110.0	
0.013513683400665288	-0.0001221501814490557	0.01346081655750472	1.38289140258925	1.3830785611961558	1.3835768560858794	1.3836269239934593	1.3834478120145575	11.0	255.0	11111110.0	
0.01355007363734877	-0.00012183350791418288	0.01346588295291459	1.3828779915425768	1.3830660442192608	1.3835658292252815	1.3836144070165644	1.3834367851539595	12.0	255.0	11111110.0	
0.013569911356874988	-0.00012151702601794532	0.013469459232027439	1.3828842500310243	1.3830705145681519	1.3835726837602478	1.383618579342196	1.3834433416656664	13.0	255.0	11111110.0	
0.013572403772467703	-0.00012120073621067277	0.01347035330180565	1.3828711370076106	1.38305650747496	1.3835592727135746	1.3836054663187822	1.3834272484096586	14.0	255.0	11111110.0	
0.013567020416106681	-0.00012088463894153193	0.013476015743734329	1.3828794816588739	1.3830666402657796	1.3835682134113567	1.3836164931793802	1.3834352950376625	15.0	255.0	11111110.0	
0.013550585024856898	-0.00012056873465852614	0.013479890046106582	1.382883952007765	1.383072004684449	1.3835726837602478	1.3836221556213089	1.38344155352611	16.0	255.0	11111110.0	
0.013522239044350341	-0.00012025302380849512	0.013476313766993733	1.3828794816588739	1.3830657461960014	1.3835682134113567	1.383615599109602	1.383437083177219	17.0	255.0	11111110.0	
0.013499238531844635	-0.00011993750683711457	0.013478399929809561	1.3828782895658362	1.3830672363122984	1.3835697035276537	1.3836164931793802	1.3834394673632942	18.0	255.0	11111110.0	
0.013477406702128969	-0.00011962218418889584	0.01347899597632837	1.3828720310773888	1.383060977823851	1.3835637430624657	1.3836099366676733	1.3834329108515873	19.0	255.0	11111110.0	
0.013458748852344209	-0.00011930705630718564	0.013477803883290753	1.3828660706122007	1.3830532292191065	1.3835562924809806	1.3836024860861882	1.3834251622468428	20.0	255.0	11111110.0	
0.013444284540747468	-0.00011899212363416583	0.013474823650696712	1.3828613022400502	1.3830490568934748	1.383548543876236	1.3835980157372971	1.3834197978281735	21.0	255.0	11111110.0	
0.013431601823251503	-0.00011867738661085309	0.013467671092471014	1.382877395496058	1.3830651501494826	1.3835664252718003	1.3836150030630832	1.3834376792237377	22.0	255.0	11111110.0	
0.013425230065438007	-0.00011836284567709864	0.013462008650542336	1.3828866342170996	1.3830746868937835	1.3835756639928418	1.3836242417841247	1.3834463218982604	23.0	255.0	11111110.0	
0.013421005886166348	-0.00011804850127158796	0.013455452138835446	1.3828809717751709	1.3830681303820767	1.3835682134113567	1.383617089225899	1.3834397653865536	24.0	255.0	11111110.0	
0.01341651213076574	-0.00011773435383184063	0.013447107487572132	1.3828863361938402	1.3830723027077083	1.3835726837602478	1.3836233477143465	1.3834466199215198	25.0	255.0	11111110.0	
0.01341209968515671	-0.0001174204037942099	0.013438464813049413	1.3828779915425768	1.3830660442192608	1.3835682134113567	1.3836164931793802	1.383438573293516	26.0	255.0	11111110.0	
0.013410826001585354	-0.00011710665159388269	0.013433398417639544	1.3828776935193174	1.383065448172742	1.3835679153880973	1.3836150030630832	1.3834367851539595	27.0	255.0	11111110.0	
0.013413506422818473	-0.00011679309766487919	0.01343310039438014	1.3828702429378323	1.3830568054982193	1.3835568885274994	1.383606062365301	1.383427546432918	28.0	255.0	11111110.0	
0.013416183589731658	-0.00011647974244005264	0.01343310039438014	1.3828601101470126	1.3830451825911025	1.383548543876236	1.383598611783816	1.383419499804914	29.0	255.0	11111110.0	
0.013418086510512451	-0.00011616658635108924	0.013431312254823715	1.3828660706122007	1.3830517391028094	1.3835542063181647	1.3836051682955228	1.3834263543398804	30.0	255.0	11111110.0	
0.013423970660916499	-0.00011585362982850789	0.013431312254823715	1.3828660706122007	1.3830538252656253	1.38355659050424	1.383604572249004	1.383426056316621	31.0	255.0	11111110.0	
0.013437713572487311	-0.00011554087330166004	0.013436676673492989	1.3828672627052383	1.3830562094517005	1.3835574845740182	1.3836069564350792	1.3834287385259556	32.0	255.0	11111110.0	
0.013456216117268266	-0.00011522831719872942	0.013444723301496899	1.3828723291006482	1.3830597857308133	1.3835619549229092	1.383611128760711	1.383432016781809	33.0	255.0	11111110.0	
0.013472874293269403	-0.00011491596194673184	0.013449491673647365	1.3828657725889413	1.3830520371260688	1.383553014225127	1.3836024860861882	1.383423076084027	34.0	255.0	11111110.0	
0.013488035997650819	-0.00011460380797151521	0.013452471906241405	1.3828767994495392	1.3830627659634074	1.383564041085725	1.3836129169002673	1.383433506898106	35.0	255.0	11111110.0	
0.013505728547105996	-0.00011429185569775925	0.013459922487726508	1.3828675607284977	1.383055911428441	1.3835577825972776	1.3836057643420416	1.3834266523631398	36.0	255.0	11111110.0	
0.013516715842047203	-0.00011398010554897537	0.013464988883136377	1.382864878519163	1.3830508450330312	1.3835524181786083	1.3836021880629288	1.3834239701538051	37.0	255.0	11111110.0	
0.013518763135605768	-0.0001136685579475065	0.013467075045952206	1.3828711370076106	1.3830571035214787	1.3835592727135746	1.3836084465513763	1.3834296325957338	38.0	255.0	11111110.0	
0.01351149759933276	-0.00011335721331452692	0.013466777022692802	1.382889912472953	1.38307647503334	1.3835777501556576	1.3836257319004217	1.383449600154114	39.0	255.0	11111110.0	
0.013495748945887365	-0.00011304607207004224	0.013464988883136377	1.382881865844949	1.3830705145681519	1.3835726837602478	1.3836218575980495	1.3834436396889258	40.0	255.0	11111110.0	
0.013474538588830269	-0.0001127351346328892	0.01346379679009876	1.3828878263101372	1.3830740908472647	1.3835756639928418	1.3836266259702	1.3834472159680387	41.0	255.0	11111110.0	
0.013447345989236574	-0.00011242440142073555	0.013460518534245316	1.3828872302636184	1.383074984917043	1.3835753659695824	1.3836236457376059	1.3834469179447793	42.0	255.0	11111110.0	
0.013418291529431643	-0.00011211387285008	0.013456048185354254	1.382880375728652	1.3830696204983737	1.3835697035276537	1.3836188773654554	1.3834406594563318	43.0	255.0	11111110.0	
0.013387974142708734	-0.00011180354933625212	0.013447107487572132	1.3828672627052383	1.3830538252656253	1.383555100387943	1.3836039762024852	1.3834272484096586	44.0	255.0	11111110.0	
0.01337101130900106	-0.00011149343129341221	0.013445021324756303	1.3828747132867234	1.3830621699168886	1.3835622529461686	1.3836135129467861	1.383434997014403	45.0	255.0	11111110.0	
0.013362109811877586	-0.00011118351913455123	0.013442041092162262	1.3828797796821333	1.3830672363122984	1.3835658292252815	1.3836173872491584	1.3834391693400347	46.0	255.0	11111110.0	
0.013360880801197244	-0.00011087381327149078	0.013435782603714776	1.3828750113099828	1.3830606798005916	1.383562550969428	1.3836120228304891	1.3834346989911437	47.0	255.0	11111110.0	
0.01336905179006378	-0.00011056431411488293	0.013427437952451462	1.3828708389843511	1.3830582956145163	1.3835619549229092	1.3836099366676733	1.3834323148050685	48.0	255.0	11111110.0	
0.01339262827305748	-0.00011025502207421028	0.013424755743116825	1.3828800777053927	1.3830663422425202	1.383569107481135	1.3836164931793802	1.3834379772469971	49.0	255.0	11111110.0	
0.013423647370152971	-0.00010994593755778589	0.013423265626819805	1.3828830579379867	1.3830696204983737	1.3835697035276537	1.3836191753887148	1.3834397653865536	50.0	255.0	11111110.0	
0.01345722094922633	-0.00010963706097275318	0.013422371557041592	1.3828621963098284	1.3830481628236966	1.3835479478297172	1.383597121667519	1.3834200958514329	51.0	255.0	11111110.0	
0.0134882668889555	-0.00010932839272508594	0.013421775510522784	1.3828520635190087	1.3830386260793956	1.383541093294751	1.3835893730627744	1.3834093670140943	52.0	255.0	11111110.0	
0.013513839104984254	-0.00010901993321958826	0.013423265626819805	1.3828502753794523	1.3830353478235422	1.383539603178454	1.3835881809697368	1.3834072808512785	53.0	255.0	11111110.0	
0.013530796053276974	-0.00010871168285989464	0.013427735975710866	1.3828645804959037	1.3830508450330312	1.3835533122483865	1.3836024860861882	1.3834233741072863	54.0	255.0	11111110.0	
0.013530959383765208	-0.00010840364204846997	0.013429226092007886	1.3828681567750165	1.383055911428441	1.3835577825972776	1.3836066584118198	1.3834287385259556	55.0	255.0	11111110.0	
0.013518551239977262	-0.00010809581118660946	0.013432206324601927	1.3828750113099828	1.3830615738703698	1.3835643391089845	1.383611128760711	1.3834361891074407	56.0	255.0	11111110.0	
0.013492795627290171	-0.00010778819067443873	0.013434292487417756	1.3828732231704264	1.3830603817773321	1.3835613588763904	1.3836099366676733	1.3834329108515873	57.0	255.0	11111110.0	
0.01345335531043643	-0.00010748078091091382	0.013431312254823715	1.3828675607284977	1.3830553153819223	1.3835574845740182	1.3836054663187822	1.3834269503863992	58.0	255.0	11111110.0	
0.013406186104572978	-0.00010717358229382127	0.013423861673338613	1.3828613022400502	1.383046970730659	1.3835497359692737	1.3835977177140377	1.383419499804914	59.0	255.0	11111110.0	
0.013366972059569037	-0.00010686659521977815	0.013422371557041592	1.382860408170272	1.3830472687539184	1.383550033992533	1.3835968236442595	1.3834203938746923	60.0	255.0	11111110.0	
0.013335726178057504	-0.00010655982008423215	0.013422073533782188	1.3828624943330878	1.3830502489865124	1.383553014225127	1.3835995058535941	1.3834233741072863	61.0	255.0	11111110.0	
0.013308047649430945	-0.0001062532572814616	0.013413728882518874	1.382861898286569	1.3830448845678431	1.383548543876236	1.3835974196907783	1.3834192017816547	62.0	255.0	11111110.0	
0.013299809536291668	-0.00010594690720457556	0.013410152603406025	1.3828726271239076	1.3830556134051817	1.3835607628298716	1.3836081485281169	1.3834296325957338	63.0	255.0	11111110.0	
0.01331071843191016	-0.00010564077024551393	0.013410748649924833	1.3828857401473214	1.3830705145681519	1.3835753659695824	1.38362155957479	1.383444533758704	64.0	255.0	11111110.0	
0.013338791554101408	-0.00010533484679504757	0.013415218998815894	1.3828735211936858	1.3830600837540727	1.3835652331787627	1.3836096386444139	1.3834329108515873	65.0	255.0	11111110.0	
0.013371003522584716	-0.00010502913724277833	0.01341343085925947	1.3828535536353057	1.3830383280561362	1.3835443715506044	1.3835878829464774	1.3834114531769102	66.0	255.0	11111110.0	
0.013412812767923056	-0.00010472364197713925	0.013415218998815894	1.3828481892166364	1.3830332616607264	1.383537517015638	1.383586094806921	1.3834048966652033	67.0	255.0	11111110.0	
0.013457504798591455	-0.00010441836138539458	0.013419689347706956	1.382850871425971	1.3830350498002828	1.3835399012017133	1.3835884789929962	1.383405492711722	68.0	255.0	11111110.0	
0.013491146639869585	-0.00010411329585364003	0.013418199231409935	1.382855937821381	1.3830430964282867	1.3835458616669014	1.3835929493418873	1.3834132413164666	69.0	255.0	11111110.0	
0.013512711194041908	-0.00010380844576680286	0.013414026905778278	1.382864878519163	1.3830517391028094	1.3835533122483865	1.3836009959698912	1.3834233741072863	70.0	255.0	11111110.0	
0.013523703663090789	-0.00010350381150864202	0.013412238766221853	1.3828651765424225	1.3830523351493282	1.383553610271646	1.3836009959698912	1.3834218839909893	71.0	255.0	11111110.0	
0.013522050125217865	-0.0001031993934617484	0.013412834812740661	1.382866964681979	1.383052931195847	1.3835545043414241	1.3836021880629288	1.3834233741072863	72.0	255.0	11111110.0	
0.01350274977624517	-0.00010289519200754496	0.013410450626665429	1.3828675607284977	1.3830496529399936	1.3835527162018677	1.3836021880629288	1.3834248642235834	73.0	255.0	11111110.0	
0.013466850186211408	-0.00010259120752628696	0.01340329806843973	1.3828571299144186	1.3830383280561362	1.383542583411048	1.3835908631790714	1.383413539339726	74.0	255.0	11111110.0	
0.013428698191219068	-0.00010228744039706206	0.01340180795214271	1.3828645804959037	1.383046970730659	1.383553014225127	1.3835992078303347	1.3834212879444705	75.0	255.0	11111110.0	
0.013385663076595701	-0.00010198389099779066	0.013398529696289265	1.3828657725889413	1.3830502489865124	1.3835548023646835	1.3835995058535941	1.3834221820142487	76.0	255.0	11111110.0	
0.013342312351325535	-0.00010168055970522608	0.01339227120784178	1.382867858751757	1.3830508450330312	1.383555100387943	1.3836018900396694	1.3834239701538051	77.0	255.0	11111110.0	
0.01330880533813861	-0.00010137744689495476	0.013388098882210122	1.3828630903796066	1.3830451825911025	1.3835494379460143	1.3835977177140377	1.3834171156188388	78.0	255.0	11111110.0	
0.013289362239070141	-0.00010107455294139656	0.013386608765913102	1.3828693488680541	1.383052931195847	1.38355659050424	1.38360159201641	1.3834236721305457	79.0	255.0	11111110.0	
0.013282894713857293	-0.00010077187821780498	0.013384522603097273	1.3828624943330878	1.3830451825911025	1.38355152410883	1.383595631551222	1.3834192017816547	80.0	255.0	11111110.0	
0.013287657076376514	-0.00010046942309626746	0.013379456207687403	1.382847891193377	1.3830317715444294	1.3835378150388975	1.3835837106208457	1.383406982828019	81.0	255.0	11111110.0	
0.013306369712244756	-0.00010016718794770555	0.01337558190531515	1.3828610042167908	1.3830475667771778	1.383552120155349	1.3835989098070753	1.383420989921211	82.0	255.0	11111110.0	
0.013336705419242832	-9.98651731418753e-05	0.01337409178901813	1.382863388402866	1.3830493549167342	1.3835527162018677	1.3835995058535941	1.3834227780607675	83.0	255.0	11111110.0	
0.01337443211894713	-9.95633790473675e-05	0.01337558190531515	1.3828693488680541	1.3830553153819223	1.3835553984112023	1.383603082132707	1.3834272484096586	84.0	255.0	11111110.0	
0.013410546449378238	-9.9261806031608e-05	0.013376177951833958	1.3828756073565016	1.3830615738703698	1.3835634450392063	1.3836096386444139	1.3834332088748467	85.0	255.0	11111110.0	
0.01344204191029838	-9.896045446085799e-05	0.013377668068130979	1.3828696468913135	1.3830541232888847	1.3835583786437964	1.383604572249004	1.383429036549215	86.0	255.0	11111110.0	
0.013464034065896191	-9.865932470021427e-05	0.013379158184428	1.3828785875890957	1.383062467940148	1.3835664252718003	1.3836135129467861	1.3834376792237377	87.0	255.0	11111110.0	
0.013473421869255967	-9.83584171136097e-05	0.013380052254206212	1.38287143503087	1.3830553153819223	1.3835586766670558	1.3836066584118198	1.3834308246887714	88.0	255.0	11111110.0	
0.013466919156946727	-9.805773206381335e-05	0.013377668068130979	1.382866964681979	1.38305144107955	1.3835562924809806	1.3836021880629288	1.3834257582933616	89.0	255.0	11111110.0	
0.013451971900207813	-9.775726991243098e-05	0.013378562137909191	1.3828812697984303	1.3830690244518549	1.3835741738765448	1.383617089225899	1.3834403614330724	90.0	255.0	11111110.0	
0.013427567446975253	-9.745703101990537e-05	0.013379456207687403	1.3828753093332422	1.383060977823851	1.3835628489926874	1.383609042597895	1.3834311227120308	91.0	255.0	11111110.0	
0.013394603665545858	-9.715701574551667e-05	0.013377370044871575	1.382880375728652	1.3830645541029638	1.3835667232950597	1.3836158971328614	1.3834352950376625	92.0	255.0	11111110.0	
0.013351619302676332	-9.685722444738284e-05	0.013365747137754814	1.382880375728652	1.3830636600331856	1.3835673193415785	1.3836150030630832	1.3834367851539595	93.0	255.0	11111110.0	
0.013314904594852447	-9.655765748245993e-05	0.013356210393453883	1.3828794816588739	1.3830642560797044	1.3835664252718003	1.383614108993305	1.3834358910841813	94.0	255.0	11111110.0	
0.013289644219132705	-9.625831520654249e-05	0.013350845974784609	1.3828735211936858	1.3830582956145163	1.3835604648066122	1.3836078505048575	1.383430526665512	95.0	255.0	11111110.0	
0.01328192874018106	-9.595919797426398e-05	0.013354124230638054	1.382861898286569	1.3830466727073996	1.3835488418994955	1.3835962275977407	1.3834192017816547	96.0	255.0	11111110.0	
0.013281512752413962	-9.566030613909715e-05	0.013355018300416266	1.382863388402866	1.3830472687539184	1.3835506300390519	1.383596525621	1.3834189037583953	97.0	255.0	11111110.0	
0.013289641340825761	-9.536164005335447e-05	0.013354720277156862	1.3828753093332422	1.3830588916610351	1.3835643391089845	1.3836084465513763	1.3834326128283279	98.0	255.0	11111110.0	
0.01330580968520189	-9.506320006818859e-05	0.013354124230638054	1.382878885612355	1.3830612758471104	1.3835667232950597	1.3836144070165644	1.3834361891074407	99.0	255.0	11111110.0	
0.013330007779095387	-9.476498653359268e-05	0.013355912370194479	1.38286636863546	1.3830478648004372	1.3835518221320895	1.3835992078303347	1.383423076084027	100.0	255.0	11111110.0	
0.013367124599380956	-9.446699979840092e-05	0.01336902539360826	1.38286636863546	1.3830481628236966	1.3835539082949053	1.383600101900113	1.3834242681770645	101.0	255.0	11111110.0	
0.013398821695988326	-9.416924021028897e-05	0.013378860161168595	1.3828654745656819	1.3830481628236966	1.3835512260855707	1.383600101900113	1.3834212879444705	102.0	255.0	11111110.0	
0.013416274191583791	-9.387170811577436e-05	0.013378562137909191	1.3828568318911592	1.3830436924748055	1.3835458616669014	1.3835923532953684	1.3834153274792824	103.0	255.0	11111110.0	
0.013424708500472698	-9.357440386021702e-05	0.013374687835536938	1.382855937821381	1.3830433944515461	1.383545563643642	1.3835926513186279	1.3834168175955794	104.0	255.0	11111110.0	
0.013428765609942673	-9.327732778781972e-05	0.013373197719239917	1.382874415263464	1.3830591896842945	1.383562550969428	1.3836096386444139	1.383432016781809	105.0	255.0	11111110.0	
0.01342269014772683	-9.298048024162858e-05	0.013368727370348856	1.3828794816588739	1.3830636600331856	1.383569107481135	1.3836158971328614	1.383438573293516	106.0	255.0	11111110.0	
0.013414389855115462	-9.268386156353343e-05	0.013368727370348856	1.3828812697984303	1.3830651501494826	1.3835708956206914	1.3836176852724178	1.3834418515493694	107.0	255.0	11111110.0	
0.013399984205781609	-9.238747209426846e-05	0.013368131323830048	1.38287143503087	1.3830576995679975	1.383559570736834	1.3836096386444139	1.3834317187585496	108.0	255.0	11111110.0	
0.01337576880474327	-9.20913121734126e-05	0.013360680742344944	1.3828565338678998	1.3830433944515461	1.3835449675971232	1.383592055272109	1.3834147314327636	109.0	255.0	11111110.0	
0.013357527316147998	-9.179538213939012e-05	0.013359786672566732	1.3828601101470126	1.3830451825911025	1.3835473517831984	1.3835947374814437	1.3834186057351359	110.0	255.0	11111110.0	
0.01334228459911792	-9.149968232947103e-05	0.013360680742344944	1.3828511694492305	1.383035943870061	1.3835387091086757	1.383587584923218	1.3834102610838726	111.0	255.0	11111110.0	
0.013326548618569273	-9.120421307977168e-05	0.013357700509750903	1.3828458050305612	1.3830302814281323	1.38353155655045	1.3835789422486953	1.3834019164326092	112.0	255.0	11111110.0	
0.01332121609250654	-9.090897472525528e-05	0.01336038271908554	1.3828517654957493	1.3830368379398392	1.3835384110854163	1.3835854987604022	1.3834099630606131	113.0	255.0	11111110.0	
0.013319081539181687	-9.061396759973247e-05	0.013360978765604348	1.3828753093332422	1.383060977823851	1.3835637430624657	1.3836108307374515	1.3834352950376625	114.0	255.0	11111110.0	
0.01331847150163505	-9.031919203586175e-05	0.013357402486491499	1.3828723291006482	1.3830591896842945	1.3835613588763904	1.3836081485281169	1.3834332088748467	115.0	255.0	11111110.0	
0.013325307470108252	-9.00246483651501e-05	0.013356210393453883	1.3828732231704264	1.3830585936377757	1.3835622529461686	1.3836084465513763	1.3834338049213655	116.0	255.0	11111110.0	
0.013335693113871382	-8.973033691795353e-05	0.013355018300416266	1.3828767994495392	1.383063958056445	1.3835667232950597	1.383612618877008	1.3834364871307	117.0	255.0	11111110.0	
0.0133506976958574	-8.943625802347756e-05	0.01335680643997269	1.38286636863546	1.3830532292191065	1.3835568885274994	1.3836027841094476	1.3834251622468428	118.0	255.0	11111110.0	
0.013370668314504461	-8.914241200977785e-05	0.013364257021457793	1.382861898286569	1.3830475667771778	1.3835509280623113	1.3835983137605565	1.383419499804914	119.0	255.0	11111110.0	
0.01338888879080189	-8.884879920376079e-05	0.01337260167272111	1.3828779915425768	1.3830621699168886	1.3835634450392063	1.3836144070165644	1.3834361891074407	120.0	255.0	11111110.0	
0.013396078932042003	-8.855541993118406e-05	0.013373197719239917	1.3828738192169452	1.3830591896842945	1.3835619549229092	1.3836114267839703	1.3834341029446249	121.0	255.0	11111110.0	
0.013401011239865148	-8.826227451665716e-05	0.013374985858796342	1.382867858751757	1.3830532292191065	1.3835562924809806	1.383604572249004	1.3834287385259556	122.0	255.0	11111110.0	
0.013400920532481755	-8.796936328364202e-05	0.013375283882055746	1.3828642824726443	1.3830493549167342	1.3835509280623113	1.3836003999233724	1.3834242681770645	123.0	255.0	11111110.0	
0.013394944928655665	-8.767668655445361e-05	0.01337260167272111	1.3828708389843511	1.3830547193354035	1.38355659050424	1.3836042742257446	1.3834311227120308	124.0	255.0	11111110.0	
0.013383278156530549	-8.738424465026052e-05	0.013366045161014218	1.3828848460775431	1.3830708125914113	1.3835717896904696	1.3836206655050118	1.3834463218982604	125.0	255.0	11111110.0	
0.013372228581824788	-8.709203789108557e-05	0.013360978765604348	1.3828848460775431	1.3830731967774865	1.3835741738765448	1.3836239437608653	1.3834463218982604	126.0	255.0	11111110.0	
0.013362138891247178	-8.680006659580649e-05	0.013357104463232095	1.382885442124062	1.3830723027077083	1.3835732798067666	1.3836209635282712	1.3834448317819634	127.0	255.0	11111110.0	
0.013351649778094768	-8.650833108215635e-05	0.01335233609108163	1.382880375728652	1.3830663422425202	1.3835688094578755	1.3836150030630832	1.3834406594563318	128.0	255.0	11111110.0	
0.01333866475053643	-8.621683166672436e-05	0.01334369341655891	1.3828717330541294	1.383055911428441	1.3835598687600934	1.383607552481598	1.3834302286422526	129.0	255.0	11111110.0	
0.013325664330263427	-8.59255686649564e-05	0.013332964579220364	1.3828720310773888	1.3830568054982193	1.3835589746903152	1.3836063603885604	1.3834308246887714	130.0	255.0	11111110.0	
0.013322982666353502	-8.56345423911557e-05	0.013330878416404535	1.382875905379761	1.3830627659634074	1.3835643391089845	1.383610532714192	1.3834367851539595	131.0	255.0	11111110.0	
0.01332043516341124	-8.534375315848341e-05	0.013327898183810494	1.3828741172402046	1.3830630639866668	1.3835634450392063	1.383611128760711	1.3834338049213655	132.0	255.0	11111110.0	
0.013320139158730709	-8.505320127895936e-05	0.013326408067513474	1.382867858751757	1.3830547193354035	1.3835562924809806	1.3836033801559664	1.3834278444561774	133.0	255.0	11111110.0	
0.013319698458477176	-8.476288706346261e-05	0.013324321904697645	1.382863388402866	1.3830511430562906	1.3835533122483865	1.3836021880629288	1.3834242681770645	134.0	255.0	11111110.0	
0.013322596771149674	-8.447281082173209e-05	0.013325513997735261	1.3828693488680541	1.383057401544738	1.3835583786437964	1.3836084465513763	1.3834308246887714	135.0	255.0	11111110.0	
0.013333050889184883	-8.41829728623673e-05	0.013335050742036192	1.38286636863546	1.383052931195847	1.3835539082949053	1.3836024860861882	1.3834269503863992	136.0	255.0	11111110.0	
0.013340606020492984	-8.389337349282904e-05	0.013342799346780699	1.3828723291006482	1.3830588916610351	1.3835607628298716	1.3836087445746357	1.3834352950376625	137.0	255.0	11111110.0	
0.013346888240094884	-8.360401301943997e-05	0.013349951905006397	1.38287143503087	1.3830588916610351	1.383561060853131	1.3836093406211545	1.3834332088748467	138.0	255.0	11111110.0	
0.013346741600308716	-8.331489174738538e-05	0.013350547951525205	1.3828613022400502	1.3830481628236966	1.3835494379460143	1.3835998038768536	1.3834236721305457	139.0	255.0	11111110.0	
0.013349088923260751	-8.302600998071378e-05	0.013352932137600438	1.3828765014262798	1.3830636600331856	1.3835664252718003	1.383615599109602	1.3834376792237377	140.0	255.0	11111110.0	
0.013352707181323042	-8.273736802233761e-05	0.013355912370194479	1.3828621963098284	1.3830502489865124	1.383553014225127	1.383600101900113	1.383423076084027	141.0	255.0	11111110.0	
0.013356644914622693	-8.244896617403392e-05	0.013358594579529115	1.382874415263464	1.3830621699168886	1.3835637430624657	1.3836120228304891	1.3834361891074407	142.0	255.0	11111110.0	
0.013359063048332427	-8.216080473644514e-05	0.013359190626047924	1.3828833559612461	1.383069918521633	1.3835726837602478	1.3836224536445683	1.383444533758704	143.0	255.0	11111110.0	
0.013362665515491272	-8.187288400907978e-05	0.013360680742344944	1.3828797796821333	1.3830660442192608	1.3835673193415785	1.3836179832956772	1.383440063409813	144.0	255.0	11111110.0	
0.013364103100251597	-8.158520429031311e-05	0.013360084695826136	1.382885442124062	1.3830731967774865	1.3835732798067666	1.3836236457376059	1.3834469179447793	145.0	255.0	11111110.0	
0.01336345000407628	-8.129776587738781e-05	0.013357700509750903	1.3828893164264342	1.3830737928240053	1.3835738758532854	1.3836269239934593	1.383449004107595	146.0	255.0	11111110.0	
0.013362172612725895	-8.101056906641476e-05	0.01335531632367567	1.3828973630544381	1.3830818394520092	1.3835822205045487	1.3836337785284256	1.3834576467821178	147.0	255.0	11111110.0	
0.013362747378950043	-8.072361415237372e-05	0.013355912370194479	1.3828925946822876	1.3830791572426746	1.3835807303882517	1.3836299042260534	1.3834552625960426	148.0	255.0	11111110.0	
0.01336246737489786	-8.043690142911416e-05	0.013357104463232095	1.3828857401473214	1.383072004684449	1.3835747699230636	1.3836218575980495	1.3834487060843357	149.0	255.0	11111110.0	
0.013360030524041456	-8.015043118935586e-05	0.013357402486491499	1.3828845480542837	1.383072004684449	1.3835726837602478	1.3836224536445683	1.3834481100378169	150.0	255.0	11111110.0	
0.013355390037257678	-7.98642037246897e-05	0.013356210393453883	1.38287143503087	1.383059487707554	1.3835613588763904	1.383610532714192	1.3834338049213655	151.0	255.0	11111110.0	
0.013355151615670031	-7.957821932557839e-05	0.013359786672566732	1.382866964681979	1.3830547193354035	1.3835553984112023	1.3836054663187822	1.3834284405026962	152.0	255.0	11111110.0	
0.01335462603136003	-7.929247828135721e-05	0.013363064928420177	1.382878885612355	1.3830648521262232	1.3835673193415785	1.3836164931793802	1.3834391693400347	153.0	255.0	11111110.0	
0.013351174417292366	-7.900698088023478e-05	0.013362468881901369	1.382877395496058	1.3830636600331856	1.383566127248541	1.383615599109602	1.3834382752702565	154.0	255.0	11111110.0	
0.013346079885543018	-7.87217274092938e-05	0.013358296556269711	1.3828672627052383	1.3830541232888847	1.38355659050424	1.3836048702722634	1.3834278444561774	155.0	255.0	11111110.0	
0.013341950776140803	-7.84367181544918e-05	0.013352634114341034	1.3828481892166364	1.383037433986358	1.383538113062157	1.3835881809697368	1.383410559107132	156.0	255.0	11111110.0	
0.013344110457893223	-7.815195340066182e-05	0.013351143998044013	1.3828481892166364	1.383035943870061	1.3835384110854163	1.3835866908534398	1.3834111551536508	157.0	255.0	11111110.0	
0.013350440483292737	-7.786743343151333e-05	0.013352634114341034	1.3828550437516027	1.3830416063119897	1.3835449675971232	1.3835923532953684	1.383418009688617	158.0	255.0	11111110.0	
0.013352920325853466	-7.758315852963285e-05	0.013349653881746993	1.3828586200307156	1.3830475667771778	1.3835494379460143	1.383598611783816	1.3834218839909893	159.0	255.0	11111110.0	
0.013354110301182684	-7.729912897648481e-05	0.013345183532855931	1.3828654745656819	1.3830511430562906	1.3835562924809806	1.3836027841094476	1.3834269503863992	160.0	255.0	11111110.0	
0.013357254748414081	-7.701534505241231e-05	0.013343395393299507	1.3828660706122007	1.3830541232888847	1.3835553984112023	1.383603082132707	1.3834287385259556	161.0	255.0	11111110.0	
0.01335930930266022	-7.673180703663792e-05	0.01334220330026189	1.3828630903796066	1.383049950963253	1.383552120155349	1.3836024860861882	1.3834257582933616	162.0	255.0	11111110.0	
0.013359691852569506	-7.644851520726445e-05	0.013341607253743082	1.382866964681979	1.3830520371260688	1.3835574845740182	1.3836039762024852	1.3834281424794368	163.0	255.0	11111110.0	
0.013354791685683686	-7.616546984127563e-05	0.013338030974630233	1.3828660706122007	1.3830517391028094	1.3835562924809806	1.3836039762024852	1.3834278444561774	164.0	255.0	11111110.0	
0.013352675330648425	-7.588267121453705e-05	0.013339521090927254	1.382858918053975	1.3830466727073996	1.3835491399227549	1.3835980157372971	1.3834233741072863	165.0	255.0	11111110.0	
0.01334873855438345	-7.560011960179689e-05	0.013341309230483678	1.3828556397981215	1.3830427984050273	1.3835458616669014	1.383595631551222	1.3834197978281735	166.0	255.0	11111110.0	
0.013343206896961054	-7.53178152766867e-05	0.013342799346780699	1.3828639844493849	1.3830508450330312	1.383552120155349	1.3836027841094476	1.3834263543398804	167.0	255.0	11111110.0	
0.013339085848251137	-7.503575851172223e-05	0.013346077602634144	1.3828675607284977	1.3830550173586629	1.3835559944577211	1.3836078505048575	1.3834302286422526	168.0	255.0	11111110.0	
0.013334427175355884	-7.475394957830423e-05	0.013348163765449972	1.3828639844493849	1.3830523351493282	1.383553610271646	1.383604572249004	1.3834278444561774	169.0	255.0	11111110.0	
0.01332586939009468	-7.44723887467193e-05	0.013344289463077719	1.3828630903796066	1.3830490568934748	1.3835524181786083	1.3836021880629288	1.3834281424794368	170.0	255.0	11111110.0	
0.01332121983144067	-7.41910762861407e-05	0.013341309230483678	1.3828526595655275	1.383041904335249	1.3835419873645292	1.3835932473651467	1.3834174136420982	171.0	255.0	11111110.0	
0.013322243924232736	-7.391001246462909e-05	0.013341011207224274	1.3828535536353057	1.383040414218952	1.3835419873645292	1.3835926513186279	1.3834156255025418	172.0	255.0	11111110.0	
0.013327562768190283	-7.362919754913346e-05	0.013342501323521294	1.3828621963098284	1.3830496529399936	1.3835509280623113	1.3836006979466318	1.3834251622468428	173.0	255.0	11111110.0	
0.013334453739827409	-7.334863180549189e-05	0.01334369341655891	1.3828654745656819	1.3830541232888847	1.3835533122483865	1.3836033801559664	1.3834281424794368	174.0	255.0	11111110.0	
0.013338515947957947	-7.30683154984324e-05	0.01334071318396487	1.382864878519163	1.383052931195847	1.3835524181786083	1.3836051682955228	1.3834287385259556	175.0	255.0	11111110.0	
0.013344297912531944	-7.278824889157378e-05	0.013338925044408445	1.382878885612355	1.3830657461960014	1.3835667232950597	1.3836176852724178	1.3834406594563318	176.0	255.0	11111110.0	
0.013350304030611415	-7.250843224742641e-05	0.013338030974630233	1.3828863361938402	1.3830773691031182	1.3835759620161012	1.3836260299236811	1.383449004107595	177.0	255.0	11111110.0	
0.013349315072722938	-7.222886582739313e-05	0.013331474462923343	1.3828741172402046	1.3830627659634074	1.3835652331787627	1.3836144070165644	1.3834376792237377	178.0	255.0	11111110.0	
0.013347689583325691	-7.194954989177006e-05	0.01332611004425407	1.382852957588787	1.3830413082887303	1.3835437755040856	1.3835947374814437	1.383418009688617	179.0	255.0	11111110.0	
0.013348129114091275	-7.167048469974754e-05	0.013325513997735261	1.3828592160772344	1.3830466727073996	1.383550033992533	1.3835998038768536	1.3834218839909893	180.0	255.0	11111110.0	
0.013343519998538762	-7.139167050941087e-05	0.013322831788400625	1.382852957588787	1.3830395201491739	1.383542583411048	1.3835926513186279	1.3834153274792824	181.0	255.0	11111110.0	
0.013338089231866333	-7.111310757774127e-05	0.013321937718622412	1.382852957588787	1.3830392221259145	1.3835422853877886	1.3835911612023308	1.3834132413164666	182.0	255.0	11111110.0	
0.013333711628122647	-7.083479616061658e-05	0.013324321904697645	1.382858918053975	1.3830463746841402	1.3835488418994955	1.3835989098070753	1.3834239701538051	183.0	255.0	11111110.0	
0.013329315932224188	-7.055673651281233e-05	0.013328196207069898	1.3828553417748621	1.3830427984050273	1.3835431794575668	1.3835953335279625	1.3834203938746923	184.0	255.0	11111110.0	
0.013317252223816396	-7.027892888800249e-05	0.013324321904697645	1.382857427937678	1.3830448845678431	1.3835443715506044	1.383596525621	1.3834177116653577	185.0	255.0	11111110.0	
0.01330715716309303	-7.000137353876036e-05	0.013320745625584796	1.3828461030538206	1.3830350498002828	1.383536026899341	1.3835872868999586	1.3834096650373537	186.0	255.0	11111110.0	
0.01330655254196768	-6.97240707165595e-05	0.013324619927957049	1.382855937821381	1.383045480614362	1.3835464577134202	1.3835980157372971	1.3834221820142487	187.0	255.0	11111110.0	
0.013306695324196174	-6.944702067177461e-05	0.013327004114032282	1.3828613022400502	1.383048460846956	1.3835494379460143	1.3836021880629288	1.3834266523631398	188.0	255.0	11111110.0	
0.013308019341131674	-6.917022365368234e-05	0.013327898183810494	1.3828630903796066	1.3830493549167342	1.3835518221320895	1.3836039762024852	1.3834257582933616	189.0	255.0	11111110.0	
0.013312803459831943	-6.889367991046229e-05	0.013329686323366919	1.3828654745656819	1.383055911428441	1.383555100387943	1.3836087445746357	1.3834293345724744	190.0	255.0	11111110.0	
0.013321279682903102	-6.86173896891978e-05	0.013333262602479768	1.3828693488680541	1.383059487707554	1.3835589746903152	1.383611128760711	1.3834352950376625	191.0	255.0	11111110.0	
0.013329972423437156	-6.834135323587694e-05	0.013335944811814405	1.3828723291006482	1.3830612758471104	1.3835622529461686	1.3836138109700455	1.383440063409813	192.0	255.0	11111110.0	
0.013336724428497941	-6.80655707953933e-05	0.013336242835073809	1.382857427937678	1.3830448845678431	1.383548543876236	1.3835992078303347	1.3834236721305457	193.0	255.0	11111110.0	
0.013343153399319454	-6.779004261154704e-05	0.013336540858333213	1.3828535536353057	1.3830422023585085	1.383544073527345	1.383595631551222	1.3834197978281735	194.0	255.0	11111110.0	
0.013344778199700936	-6.751476892704566e-05	0.013332964579220364	1.382861898286569	1.3830496529399936	1.3835503320157925	1.3836027841094476	1.3834272484096586	195.0	255.0	11111110.0	
0.013344174424667173	-6.723974998350504e-05	0.013328494230329302	1.3828466991003394	1.383034453753764	1.3835366229458599	1.3835866908534398	1.3834132413164666	196.0	255.0	11111110.0	
0.013344592246145506	-6.696498602145033e-05	0.013327004114032282	1.3828452089840424	1.38303147352117	1.383536026899341	1.383586094806921	1.3834111551536508	197.0	255.0	11111110.0	
0.013340718366889607	-6.669047728031683e-05	0.013323427834919433	1.3828511694492305	1.3830377320096174	1.3835401992249727	1.3835902671325526	1.3834147314327636	198.0	255.0	11111110.0	
0.01333629547233271	-6.641622399845101e-05	0.013321341672103604	1.3828526595655275	1.383040414218952	1.383541093294751	1.383593545388406	1.3834159235258012	199.0	255.0	11111110.0	
0.013335190479230806	-6.614222641311134e-05	0.013324619927957049	1.3828490832864146	1.3830377320096174	1.383539603178454	1.3835926513186279	1.3834159235258012	200.0	255.0	11111110.0	
0.013332417173289137	-6.586848476046927e-05	0.013327898183810494	1.3828455070073018	1.3830353478235422	1.3835366229458599	1.383587584923218	1.3834108571303914	201.0	255.0	11111110.0	
0.013322463652512355	-6.559499927561014e-05	0.013324321904697645	1.3828624943330878	1.3830520371260688	1.383548543876236	1.3836039762024852	1.3834257582933616	202.0	255.0	11111110.0	
0.013316581393980462	-6.532177019253412e-05	0.013324023881438241	1.3828723291006482	1.3830633620099262	1.3835613588763904	1.3836147050398238	1.383437083177219	203.0	255.0	11111110.0	
0.013310346767292262	-6.504879774415724e-05	0.013321937718622412	1.3828791836356145	1.3830693224751143	1.3835664252718003	1.38362155957479	1.3834442357354446	204.0	255.0	11111110.0	
0.013308678557197856	-6.477608216231226e-05	0.01332253376514122	1.3828800777053927	1.383069918521633	1.3835700015509131	1.3836236457376059	1.3834466199215198	205.0	255.0	11111110.0	
0.013306990521560836	-6.450362367774968e-05	0.0133210436488442	1.3828741172402046	1.383066938289039	1.3835637430624657	1.3836167912026396	1.3834421495726288	206.0	255.0	11111110.0	
0.013310776068460956	-6.423142252013867e-05	0.013323129811660029	1.3828750113099828	1.3830660442192608	1.3835634450392063	1.383618579342196	1.3834412555028506	207.0	255.0	11111110.0	
0.013309751173248006	-6.3959478918068e-05	0.013318659462768967	1.3828550437516027	1.3830478648004372	1.3835434774808262	1.3836012939931506	1.3834221820142487	208.0	255.0	11111110.0	
0.013307224554013501	-6.368779309904713e-05	0.013310910858024461	1.3828380564258167	1.3830302814281323	1.3835261921317807	1.3835819224812893	1.3834043006186845	209.0	255.0	11111110.0	
0.013312851695223024	-6.341636528950698e-05	0.013310612834765057	1.3828362682862603	1.3830275992187977	1.3835273842248184	1.3835804323649923	1.3834037045721657	210.0	255.0	11111110.0	
0.013319553442852993	-6.314519571480106e-05	0.013312102951062077	1.3828458050305612	1.3830383280561362	1.383538113062157	1.3835917572488496	1.3834138373629854	211.0	255.0	11111110.0	
0.013319723486285292	-6.287428459920642e-05	0.013308228648689824	1.3828616002633096	1.3830526331725876	1.3835533122483865	1.383606062365301	1.3834308246887714	212.0	255.0	11111110.0	
0.013317729658827387	-6.260363216592459e-05	0.013303460276539359	1.3828681567750165	1.3830588916610351	1.3835583786437964	1.3836135129467861	1.383437083177219	213.0	255.0	11111110.0	
0.013323454327698962	-6.23332386370826e-05	0.013308526671949228	1.3828723291006482	1.3830615738703698	1.3835637430624657	1.383615599109602	1.3834397653865536	214.0	255.0	11111110.0	
0.01332566575030705	-6.206310423373398e-05	0.013312698997580885	1.3828675607284977	1.38305650747496	1.3835571865507588	1.383610532714192	1.3834329108515873	215.0	255.0	11111110.0	
0.013322946309396047	-6.179322917585968e-05	0.013313891090618502	1.3828490832864146	1.383037433986358	1.3835387091086757	1.3835941414349249	1.3834177116653577	216.0	255.0	11111110.0	
0.013317157446358502	-6.152361368236916e-05	0.01331299702084029	1.3828505734027117	1.3830416063119897	1.383541093294751	1.3835977177140377	1.3834183077118765	217.0	255.0	11111110.0	
0.013314322930879289	-6.125425797110129e-05	0.013315381206915522	1.382863388402866	1.3830547193354035	1.3835533122483865	1.3836093406211545	1.383429036549215	218.0	255.0	11111110.0	
0.013311416359095234	-6.098516225882537e-05	0.013317467369731351	1.3828630903796066	1.3830517391028094	1.3835503320157925	1.3836069564350792	1.3834281424794368	219.0	255.0	11111110.0	
0.013313052934687822	-6.0716326761242175e-05	0.013323427834919433	1.3828535536353057	1.3830413082887303	1.3835407952714915	1.3835980157372971	1.3834212879444705	220.0	255.0	11111110.0	
0.013319016340675281	-6.0447751692984976e-05	0.013332964579220364	1.382852957588787	1.3830413082887303	1.3835404972482321	1.3835941414349249	1.3834197978281735	221.0	255.0	11111110.0	
0.01332621445816606	-6.0179437267620476e-05	0.013342799346780699	1.3828639844493849	1.383052931195847	1.3835512260855707	1.3836054663187822	1.3834302286422526	222.0	255.0	11111110.0	
0.01332761338756743	-5.9911383697649895e-05	0.013345183532855931	1.3828645804959037	1.383055911428441	1.3835542063181647	1.3836093406211545	1.3834341029446249	223.0	255.0	11111110.0	
0.013329167386332295	-5.964359119450991e-05	0.013345481556115335	1.3828598121237532	1.3830520371260688	1.3835518221320895	1.383606062365301	1.3834311227120308	224.0	255.0	11111110.0	
0.013329960362016915	-5.937605996857375e-05	0.013342799346780699	1.3828690508447947	1.3830612758471104	1.3835598687600934	1.3836147050398238	1.3834394673632942	225.0	255.0	11111110.0	
0.013327770265839025	-5.910879022915216e-05	0.013335050742036192	1.3828660706122007	1.3830571035214787	1.3835559944577211	1.3836114267839703	1.3834352950376625	226.0	255.0	11111110.0	
0.01332763944844769	-5.884178218449442e-05	0.013327898183810494	1.3828571299144186	1.3830457786376213	1.383547053759939	1.3836021880629288	1.3834278444561774	227.0	255.0	11111110.0	
0.013329852771764362	-5.8575036041789434e-05	0.013322831788400625	1.3828610042167908	1.3830532292191065	1.383552120155349	1.3836081485281169	1.383432016781809	228.0	255.0	11111110.0	
0.01332896824621579	-5.830855200716673e-05	0.013315381206915522	1.382852957588787	1.3830451825911025	1.383542583411048	1.3835992078303347	1.3834218839909893	229.0	255.0	11111110.0	
0.013330053674751777	-5.80423302856975e-05	0.01331150690454327	1.3828481892166364	1.3830392221259145	1.383538113062157	1.3835926513186279	1.3834159235258012	230.0	255.0	11111110.0	
0.013331857314261515	-5.7776371081395616e-05	0.013310910858024461	1.38284640107708	1.383037433986358	1.383536026899341	1.3835896710860338	1.3834153274792824	231.0	255.0	11111110.0	
0.013331897448270333	-5.751067459721872e-05	0.01331150690454327	1.3828499773561929	1.3830398181724333	1.3835399012017133	1.3835947374814437	1.3834218839909893	232.0	255.0	11111110.0	
0.013327253522141034	-5.724524103506919e-05	0.013310016788246249	1.3828624943330878	1.3830508450330312	1.3835527162018677	1.3836069564350792	1.3834341029446249	233.0	255.0	11111110.0	
0.013325524337092462	-5.698007059579525e-05	0.013313593067359098	1.382868454798276	1.3830585936377757	1.3835607628298716	1.3836132149235267	1.3834397653865536	234.0	255.0	11111110.0	
0.01332165451465623	-5.671516347919199e-05	0.013316573299953139	1.3828639844493849	1.3830571035214787	1.3835562924809806	1.3836102346909327	1.3834338049213655	235.0	255.0	11111110.0	
0.013317589596924983	-5.645051988400247e-05	0.013319851555806584	1.3828672627052383	1.383059487707554	1.3835568885274994	1.3836150030630832	1.3834367851539595	236.0	255.0	11111110.0	
0.013314027536062367	-5.6186140007918725e-05	0.013323129811660029	1.3828624943330878	1.383055911428441	1.3835533122483865	1.3836084465513763	1.383433506898106	237.0	255.0	11111110.0	
0.013310431989135663	-5.5922024047582824e-05	0.013324917951216453	1.382857427937678	1.3830511430562906	1.3835479478297172	1.3836042742257446	1.3834293345724744	238.0	255.0	11111110.0	
0.013307012960071878	-5.565817219858794e-05	0.013324619927957049	1.3828535536353057	1.3830460766608808	1.3835434774808262	1.3836003999233724	1.3834242681770645	239.0	255.0	11111110.0	
0.013307882207197795	-5.539458465547941e-05	0.01332611004425407	1.3828630903796066	1.3830550173586629	1.3835524181786083	1.3836099366676733	1.383432016781809	240.0	255.0	11111110.0	
0.013307646038112486	-5.513126161175585e-05	0.013324023881438241	1.382869944914573	1.3830636600331856	1.3835598687600934	1.3836179832956772	1.38344155352611	241.0	255.0	11111110.0	
0.013309913051520577	-5.486820325987016e-05	0.013322235741881816	1.3828711370076106	1.3830651501494826	1.3835622529461686	1.38362155957479	1.3834424475958882	242.0	255.0	11111110.0	
0.013319511887939499	-5.4605409791230636e-05	0.013326706090772878	1.3828738192169452	1.3830678323588173	1.3835652331787627	1.3836242417841247	1.3834451298052228	243.0	255.0	11111110.0	
0.013323980576749146	-5.4342881396202025e-05	0.013325812020994665	1.3828666666587195	1.3830591896842945	1.3835574845740182	1.3836153010863426	1.383437083177219	244.0	255.0	11111110.0	
0.013329113924880563	-5.4080618264106616e-05	0.013325812020994665	1.3828720310773888	1.3830633620099262	1.3835604648066122	1.3836173872491584	1.3834406594563318	245.0	255.0	11111110.0	
0.013328838230453147	-5.381862058322532e-05	0.0133210436488442	1.3828672627052383	1.3830591896842945	1.3835571865507588	1.3836138109700455	1.3834367851539595	246.0	255.0	11111110.0	
0.013331060590100415	-5.355688854079878e-05	0.013319851555806584	1.3828827599147273	1.3830755809635618	1.3835723857369884	1.3836287121330157	1.3834513882936703	247.0	255.0	11111110.0	
0.013333346178734636	-5.329542232302843e-05	0.013320447602325392	1.3828836539845055	1.38307647503334	1.3835753659695824	1.3836307982958316	1.3834534744564861	248.0	255.0	11111110.0	
0.013329280730346383	-5.303422211507761e-05	0.013316275276693735	1.3828717330541294	1.3830645541029638	1.3835643391089845	1.3836188773654554	1.3834439377121852	249.0	255.0	11111110.0	
0.013325764143367747	-5.277328810107266e-05	0.013313891090618502	1.382866964681979	1.3830600837540727	1.383559570736834	1.3836144070165644	1.3834394673632942	250.0	255.0	11111110.0	
0.013324270350009926	-5.2512620464103986e-05	0.013314785160396714	1.3828630903796066	1.3830538252656253	1.383553014225127	1.3836093406211545	1.383433506898106	251.0	255.0	11111110.0	
0.013321479707906253	-5.225221938622721e-05	0.013315381206915522	1.3828595141004938	1.3830502489865124	1.3835494379460143	1.383606062365301	1.3834326128283279	252.0	255.0	11111110.0	
0.01331879499389605	-5.1992085048464215e-05	0.013316573299953139	1.382868454798276	1.3830576995679975	1.3835577825972776	1.3836150030630832	1.383438573293516	253.0	255.0	11111110.0	
0.013315553752979213	-5.173221763080431e-05	0.013317169346471947	1.3828747132867234	1.3830651501494826	1.3835649351555033	1.38362155957479	1.3834436396889258	254.0	255.0	11111110.0	
0.01331732860111757	-5.147261731220531e-05	0.01332253376514122	1.3828690508447947	1.3830618718936292	1.3835592727135746	1.3836176852724178	1.3834406594563318	255.0	255.0	11111110.0	
0.013316656027396557	-5.121328427059467e-05	0.013324917951216453	1.3828756073565016	1.3830681303820767	1.3835652331787627	1.3836254338771623	1.3834487060843357	0.0	255.0	11111110.0	
0.013312792640888303	-5.0954218682870586e-05	0.013322831788400625	1.3828750113099828	1.3830678323588173	1.3835637430624657	1.383623049691087	1.3834481100378169	1.0	255.0	11111110.0	
0.013311114707526005	-5.0695420724903086e-05	0.013321341672103604	1.3828750113099828	1.3830666402657796	1.3835634450392063	1.383620069458493	1.3834463218982604	2.0	255.0	11111110.0	
0.013310561443121822	-5.0436890571535194e-05	0.01331955353254718	1.3828785875890957	1.3830705145681519	1.3835688094578755	1.3836260299236811	1.383449004107595	3.0	255.0	11111110.0	
0.013312819785934106	-5.017862839658404e-05	0.01331955353254718	1.3828720310773888	1.3830663422425202	1.3835622529461686	1.38362155957479	1.3834442357354446	4.0	255.0	11111110.0	
0.013318399294451494	-4.992063437284197e-05	0.01332253376514122	1.3828601101470126	1.3830576995679975	1.38355152410883	1.3836120228304891	1.3834338049213655	5.0	255.0	11111110.0	
0.013319858078544519	-4.9662908672077666e-05	0.013321341672103604	1.3828568318911592	1.3830523351493282	1.3835482458529766	1.3836057643420416	1.3834281424794368	6.0	255.0	11111110.0	
0.01332074484307718	-4.9405451465037316e-05	0.01331955353254718	1.3828592160772344	1.383054421312144	1.3835503320157925	1.3836081485281169	1.383430526665512	7.0	255.0	11111110.0	
0.013323078334484283	-4.9148262921445714e-05	0.01331955353254718	1.382866964681979	1.3830597857308133	1.3835556964344617	1.3836135129467861	1.3834376792237377	8.0	255.0	11111110.0	
0.013325873741717916	-4.8891343210007415e-05	0.013320745625584796	1.3828726271239076	1.3830681303820767	1.3835637430624657	1.3836218575980495	1.3834451298052228	9.0	255.0	11111110.0	
0.013332264843425083	-4.863469249840785e-05	0.013326706090772878	1.3828627923563472	1.3830585936377757	1.383555100387943	1.3836114267839703	1.3834376792237377	19.0	255.0	11111110.0	
0.013328616015743842	-4.837831095331451e-05	0.013323427834919433	1.3828535536353057	1.3830490568934748	1.3835449675971232	1.383604572249004	1.3834293345724744	20.0	255.0	11111110.0	
0.01332433441507986	-4.812219874037808e-05	0.01331955353254718	1.3828595141004938	1.3830562094517005	1.3835509280623113	1.3836120228304891	1.3834341029446249	21.0	255.0	11111110.0	
0.013321265943178725	-4.7866356024233544e-05	0.013316871323212543	1.3828708389843511	1.3830672363122984	1.3835613588763904	1.3836209635282712	1.3834442357354446	22.0	255.0	11111110.0	
0.013317079592333594	-4.761078296850137e-05	0.01331299702084029	1.3828654745656819	1.3830591896842945	1.3835568885274994	1.383614108993305	1.3834376792237377	23.0	255.0	11111110.0	
0.013336554824360827	-4.7355479735788654e-05	0.01333415667225798	1.3828550437516027	1.3830502489865124	1.3835461596901608	1.3836042742257446	1.3834278444561774	17.0	255.0	11111110.0	
0.013331275797594758	-4.71004464876903e-05	0.013331772486182747	1.3828654745656819	1.3830606798005916	1.3835568885274994	1.3836144070165644	1.383438573293516	18.0	255.0	11111110.0	
0.013324089918672642	-4.6845683384790125e-05	0.013326706090772878	1.3828627923563472	1.3830585936377757	1.383555100387943	1.3836114267839703	1.3834376792237377	19.0	255.0	11111110.0	
0.013319673900144772	-4.659119058666208e-05	0.013323427834919433	1.3828535536353057	1.3830490568934748	1.3835449675971232	1.383604572249004	1.3834293345724744	20.0	255.0	11111110.0	
0.013315578820533643	-4.6336968251871386e-05	0.01331955353254718	1.3828595141004938	1.3830562094517005	1.3835509280623113	1.3836120228304891	1.3834341029446249	21.0	255.0	11111110.0	
0.01331345766216897	-4.608301653797566e-05	0.013316871323212543	1.3828708389843511	1.3830672363122984	1.3835613588763904	1.3836209635282712	1.3834442357354446	22.0	255.0	11111110.0	
0.013310753292823427	-4.582933560152614e-05	0.01331299702084029	1.3828654745656819	1.3830591896842945	1.3835568885274994	1.383614108993305	1.3834376792237377	23.0	255.0	11111110.0	
0.013312993671664853	-4.5575925598068836e-05	0.013313891090618502	1.382866964681979	1.3830606798005916	1.3835583786437964	1.3836164931793802	1.3834379772469971	24.0	255.0	11111110.0	
0.01331745953624744	-4.532278668214568e-05	0.013317467369731351	1.382860408170272	1.3830556134051817	1.3835524181786083	1.3836093406211545	1.3834326128283279	25.0	255.0	11111110.0	
0.013315940239836394	-4.506991900729572e-05	0.013315381206915522	1.3828541496818245	1.3830490568934748	1.3835464577134202	1.3836009959698912	1.3834263543398804	26.0	255.0	11111110.0	
0.01331837356880135	-4.481732272605628e-05	0.013317467369731351	1.3828511694492305	1.3830481628236966	1.383542583411048	1.3835995058535941	1.3834236721305457	27.0	255.0	11111110.0	
0.013317024271160981	-4.456499798996419e-05	0.01331597725343433	1.382852361542268	1.3830472687539184	1.383541093294751	1.383600101900113	1.383423076084027	28.0	255.0	11111110.0	
0.013316045154096571	-4.43129449495569e-05	0.013314785160396714	1.3828613022400502	1.3830562094517005	1.38355152410883	1.3836093406211545	1.3834338049213655	29.0	255.0	11111110.0	
0.013316561214211951	-4.4061163754373706e-05	0.013315083183656118	1.3828642824726443	1.38305650747496	1.383552120155349	1.383611128760711	1.383435593060922	30.0	255.0	11111110.0	
0.013317296339678928	-4.380965455295691e-05	0.013315679230174926	1.3828642824726443	1.3830571035214787	1.3835539082949053	1.383612618877008	1.3834346989911437	31.0	255.0	11111110.0	
0.013318787407557054	-4.3558417492853004e-05	0.013317169346471947	1.3828720310773888	1.3830672363122984	1.3835634450392063	1.383623049691087	1.383443043642407	32.0	255.0	11111110.0	
0.013324009553544859	-4.3307452720613877e-05	0.013322831788400625	1.3828750113099828	1.3830690244518549	1.3835652331787627	1.3836248378306435	1.383446023875001	33.0	255.0	11111110.0	
0.013326632288690179	-4.305676038179799e-05	0.013326408067513474	1.3828598121237532	1.3830520371260688	1.38355152410883	1.3836099366676733	1.3834314207352902	34.0	255.0	11111110.0	
0.01332309709842023	-4.280634062097161e-05	0.013323725858178837	1.3828535536353057	1.3830475667771778	1.383545563643642	1.3836024860861882	1.383427546432918	35.0	255.0	11111110.0	
0.013318962514767978	-4.2556193581709985e-05	0.013319851555806584	1.3828613022400502	1.3830556134051817	1.383552120155349	1.3836096386444139	1.3834346989911437	36.0	255.0	11111110.0	
0.01331625415121426	-4.230631940659855e-05	0.013316871323212543	1.3828651765424225	1.3830588916610351	1.3835574845740182	1.3836158971328614	1.3834403614330724	37.0	255.0	11111110.0	
0.013315839709793222	-4.20567182372341e-05	0.01331597725343433	1.3828601101470126	1.38305650747496	1.383552120155349	1.3836102346909327	1.3834364871307	38.0	255.0	11111110.0	
0.013314250010266185	-4.180739021422598e-05	0.013313891090618502	1.3828613022400502	1.38305650747496	1.383552120155349	1.383611128760711	1.3834352950376625	39.0	255.0	11111110.0	
0.013312925318914195	-4.155833547719737e-05	0.013312102951062077	1.3828586200307156	1.3830526331725876	1.3835494379460143	1.383609042597895	1.3834308246887714	40.0	255.0	11111110.0	
0.013315957839844704	-4.130955416478643e-05	0.013315083183656118	1.382868454798276	1.3830606798005916	1.383558080620537	1.3836176852724178	1.3834394673632942	41.0	255.0	11111110.0	
0.01331440803244042	-4.1061046414647494e-05	0.013313891090618502	1.382860408170272	1.3830538252656253	1.383553014225127	1.3836102346909327	1.3834326128283279	42.0	255.0	11111110.0	
0.013314219431597966	-4.081281236345234e-05	0.013314189113877906	1.3828571299144186	1.3830496529399936	1.383550033992533	1.3836069564350792	1.3834296325957338	43.0	255.0	11111110.0	
0.013315905825216225	-4.0564852146891346e-05	0.013316573299953139	1.3828610042167908	1.3830538252656253	1.3835524181786083	1.3836096386444139	1.3834317187585496	44.0	255.0	11111110.0	
0.01331295379256117	-4.031716589967475e-05	0.013314189113877906	1.3828675607284977	1.3830588916610351	1.3835571865507588	1.3836158971328614	1.383440063409813	45.0	255.0	11111110.0	
0.013311679018657582	-4.0069753755533824e-05	0.01331299702084029	1.3828657725889413	1.383060977823851	1.3835574845740182	1.3836164931793802	1.3834382752702565	46.0	255.0	11111110.0	
0.013312813992824574	-3.9822615847222135e-05	0.013313891090618502	1.3828738192169452	1.3830690244518549	1.3835643391089845	1.3836233477143465	1.3834466199215198	47.0	255.0	11111110.0	
0.013312171364087435	-3.957575230651673e-05	0.013312698997580885	1.3828651765424225	1.3830621699168886	1.3835562924809806	1.3836158971328614	1.383438573293516	48.0	255.0	11111110.0	
0.013314123778839318	-3.93291632642194e-05	0.013313891090618502	1.3828541496818245	1.3830523351493282	1.3835479478297172	1.3836084465513763	1.383430526665512	49.0	255.0	11111110.0	
0.013318813792174027	-3.908284885015786e-05	0.013318063416250159	1.3828469971235988	1.3830433944515461	1.383538113062157	1.3835989098070753	1.3834197978281735	50.0	255.0	11111110.0	
0.013316554830002292	-3.8836809193187e-05	0.013315381206915522	1.3828455070073018	1.3830427984050273	1.3835354308528223	1.3835959295744813	1.3834174136420982	51.0	255.0	11111110.0	
0.013313958651117194	-3.859104442119011e-05	0.013312102951062077	1.382850871425971	1.3830508450330312	1.3835446695738638	1.3836036781792258	1.3834263543398804	52.0	255.0	11111110.0	
0.013314289471241901	-3.834555466108013e-05	0.013311804927802673	1.3828562358446403	1.3830535272423659	1.383548543876236	1.3836099366676733	1.3834308246887714	53.0	255.0	11111110.0	
0.013314523987522671	-3.810034003880083e-05	0.013311804927802673	1.3828610042167908	1.3830541232888847	1.3835518221320895	1.3836129169002673	1.3834338049213655	54.0	255.0	11111110.0	
0.013308689381253846	-3.7855400679328105e-05	0.013305844462614591	1.382857427937678	1.3830526331725876	1.383548543876236	1.3836078505048575	1.383430526665512	55.0	255.0	11111110.0	
0.01330194216395786	-3.761073670667116e-05	0.013298691904388893	1.3828616002633096	1.3830582956145163	1.38355152410883	1.383610532714192	1.3834341029446249	56.0	255.0	11111110.0	
0.01330581162078338	-3.7366348243873796e-05	0.013302566206761146	1.3828645804959037	1.3830615738703698	1.3835577825972776	1.3836150030630832	1.383438573293516	57.0	255.0	11111110.0	
0.013311426252419718	-3.7122235413015594e-05	0.01330942074172744	1.38286636863546	1.3830615738703698	1.3835577825972776	1.3836164931793802	1.3834391693400347	58.0	255.0	11111110.0	
0.013307215647376093	-3.687839833521321e-05	0.013307036555652208	1.3828797796821333	1.3830755809635618	1.3835723857369884	1.3836293081795346	1.3834516863169297	59.0	255.0	11111110.0	
0.013305263995996902	-3.663483713062158e-05	0.013306738532392804	1.3828779915425768	1.3830702165448925	1.3835711936439508	1.383628116086497	1.3834501962006327	60.0	255.0	11111110.0	
0.013304180692385743	-3.6391551918435173e-05	0.013307036555652208	1.3828708389843511	1.3830657461960014	1.3835634450392063	1.3836203674817524	1.3834433416656664	61.0	255.0	11111110.0	
0.013302995036647664	-3.614854281688926e-05	0.013306738532392804	1.3828690508447947	1.3830645541029638	1.3835613588763904	1.3836188773654554	1.3834433416656664	62.0	255.0	11111110.0	
0.013303034093027325	-3.590580994326115e-05	0.013307036555652208	1.382869944914573	1.3830645541029638	1.3835601667833528	1.3836203674817524	1.3834442357354446	63.0	255.0	11111110.0	
0.01330509415915425	-3.566335341387143e-05	0.013308824695208632	1.3828636864261254	1.3830585936377757	1.3835562924809806	1.3836129169002673	1.383437083177219	64.0	255.0	11111110.0	
0.013306422023226037	-3.542117334408523e-05	0.01330942074172744	1.3828553417748621	1.3830511430562906	1.3835497359692737	1.383604572249004	1.3834296325957338	65.0	255.0	11111110.0	
0.013307034412568005	-3.5179269848313464e-05	0.013308824695208632	1.382861898286569	1.3830562094517005	1.3835548023646835	1.3836123208537485	1.383435593060922	66.0	255.0	11111110.0	
0.013306865732127178	-3.4937643040014094e-05	0.013307036555652208	1.3828747132867234	1.3830690244518549	1.3835664252718003	1.3836254338771623	1.3834498981773733	67.0	255.0	11111110.0	
0.013310543146937198	-3.46962930316934e-05	0.013309122718468036	1.3828735211936858	1.3830678323588173	1.3835649351555033	1.383624539807384	1.3834466199215198	68.0	255.0	11111110.0	
0.013312024209017621	-3.445521993490723e-05	0.01330942074172744	1.3828607061935314	1.3830556134051817	1.3835542063181647	1.3836135129467861	1.3834346989911437	69.0	255.0	11111110.0	
0.013312470546785199	-3.4214423860262245e-05	0.013309122718468036	1.3828630903796066	1.3830597857308133	1.3835556964344617	1.3836135129467861	1.3834367851539595	70.0	255.0	11111110.0	
0.013316322924316587	-3.397390491741723e-05	0.01331299702084029	1.3828657725889413	1.3830630639866668	1.3835574845740182	1.383615599109602	1.383440063409813	71.0	255.0	11111110.0	
0.013314700888916972	-3.373366321508433e-05	0.013312102951062077	1.3828571299144186	1.3830490568934748	1.3835473517831984	1.3836066584118198	1.3834308246887714	72.0	255.0	11111110.0	
0.013307474648038954	-3.349369886103032e-05	0.013305546439355187	1.382843420844486	1.383037433986358	1.3835339407365252	1.3835941414349249	1.3834168175955794	73.0	255.0	11111110.0	
0.01330689618552562	-3.325401196207788e-05	0.013305546439355187	1.3828565338678998	1.383052931195847	1.383547053759939	1.3836063603885604	1.3834287385259556	74.0	255.0	11111110.0	
0.013300497513468578	-3.301460262410686e-05	0.013299585974167106	1.382864878519163	1.3830585936377757	1.3835527162018677	1.3836138109700455	1.3834361891074407	75.0	255.0	11111110.0	
0.013292716034468828	-3.277547095205556e-05	0.013291539346163195	1.3828735211936858	1.3830651501494826	1.3835622529461686	1.3836224536445683	1.3834448317819634	76.0	255.0	11111110.0	
0.013294669396188773	-3.253661704992202e-05	0.013293029462460216	1.382880375728652	1.3830726007309677	1.3835702995741725	1.3836278180632375	1.3834513882936703	77.0	255.0	11111110.0	
0.01329339552433985	-3.2298041020765237e-05	0.013291539346163195	1.3828797796821333	1.3830723027077083	1.3835682134113567	1.3836269239934593	1.3834522823634485	78.0	255.0	11111110.0	
0.013294588130045274	-3.205974296670653e-05	0.013292731439200811	1.3828800777053927	1.383073494800746	1.3835700015509131	1.3836278180632375	1.3834534744564861	79.0	255.0	11111110.0	
0.013299914548675339	-3.182172298893078e-05	0.013298691904388893	1.3828690508447947	1.3830645541029638	1.3835607628298716	1.383618579342196	1.38344155352611	80.0	255.0	11111110.0	
0.013304454888781087	-3.158398118768772e-05	0.013304652369576975	1.3828666666587195	1.3830621699168886	1.3835589746903152	1.3836179832956772	1.3834388713167753	81.0	255.0	11111110.0	
0.013307895203676532	-3.1346517662293186e-05	0.013310016788246249	1.3828779915425768	1.3830717066611895	1.3835682134113567	1.3836254338771623	1.3834498981773733	82.0	255.0	11111110.0	
0.013307237002808597	-3.110933251113045e-05	0.013311208881283865	1.3828845480542837	1.3830788592194152	1.3835732798067666	1.3836322884121286	1.3834546665495238	83.0	255.0	11111110.0	
0.013302941462350205	-3.087242583165148e-05	0.01330793062543042	1.3828782895658362	1.3830726007309677	1.3835658292252815	1.3836272220167187	1.3834484080610763	84.0	255.0	11111110.0	
0.013304014713396378	-3.0635797720378266e-05	0.013309122718468036	1.3828794816588739	1.3830737928240053	1.3835697035276537	1.383629606202794	1.383450494223892	85.0	255.0	11111110.0	
0.013305648852972822	-3.0399448272904075e-05	0.013310314811505653	1.3828782895658362	1.383072004684449	1.3835702995741725	1.3836293081795346	1.3834516863169297	86.0	255.0	11111110.0	
0.013306883005368494	-3.0163377583894776e-05	0.013310612834765057	1.382867858751757	1.3830621699168886	1.3835607628298716	1.3836182813189366	1.3834406594563318	87.0	255.0	11111110.0	
0.013307645292832319	-2.992758574709013e-05	0.013310016788246249	1.3828687528215353	1.3830621699168886	1.3835586766670558	1.3836179832956772	1.383438573293516	88.0	255.0	11111110.0	
0.013303899420704313	-2.9692072855305078e-05	0.013304354346317571	1.382868454798276	1.3830633620099262	1.383559570736834	1.3836182813189366	1.3834406594563318	89.0	255.0	11111110.0	
0.013302397133717453	-2.9456839000431037e-05	0.013300480043945318	1.382866964681979	1.3830630639866668	1.3835601667833528	1.3836188773654554	1.3834406594563318	90.0	255.0	11111110.0	
0.013300053294136	-2.9221884273437226e-05	0.013295711671794852	1.3828616002633096	1.383055911428441	1.3835509280623113	1.3836108307374515	1.3834344009678843	91.0	255.0	11111110.0	
0.013300573509496427	-2.8987208764371952e-05	0.013294221555497832	1.382860408170272	1.3830562094517005	1.3835506300390519	1.3836084465513763	1.3834332088748467	92.0	255.0	11111110.0	
0.013301930581694781	-2.875281256236391e-05	0.013294519578757236	1.3828601101470126	1.3830538252656253	1.3835518221320895	1.3836063603885604	1.3834326128283279	93.0	255.0	11111110.0	
0.013303006566887349	-2.851869575562349e-05	0.013295711671794852	1.3828654745656819	1.383057997591257	1.3835562924809806	1.3836120228304891	1.383437083177219	94.0	255.0	11111110.0	
0.013303528086759903	-2.8284858431444105e-05	0.013297499811351277	1.382861898286569	1.3830535272423659	1.3835539082949053	1.3836096386444139	1.3834344009678843	95.0	255.0	11111110.0	
0.01330565045486951	-2.805130067620348e-05	0.013301970160242338	1.382866964681979	1.3830627659634074	1.3835592727135746	1.3836164931793802	1.38344155352611	96.0	255.0	11111110.0	
0.013306094830363558	-2.781802257536498e-05	0.013305546439355187	1.38286636863546	1.3830636600331856	1.3835604648066122	1.383615599109602	1.3834412555028506	97.0	255.0	11111110.0	
0.013301818091675674	-2.7585024213478903e-05	0.013304354346317571	1.3828767994495392	1.383072004684449	1.3835685114346161	1.3836263279469405	1.3834507922471515	98.0	255.0	11111110.0	
0.013293539346923214	-2.7352305674183815e-05	0.013298095857870085	1.382868454798276	1.383062467940148	1.383559570736834	1.3836197714352336	1.38344155352611	99.0	255.0	11111110.0	
0.01328767232151301	-2.711986704020785e-05	0.013292731439200811	1.3828675607284977	1.3830612758471104	1.3835598687600934	1.3836182813189366	1.3834397653865536	100.0	255.0	11111110.0	
0.01328770055515422	-2.6887708393370028e-05	0.013292135392682003	1.3828735211936858	1.3830696204983737	1.3835646371322439	1.3836239437608653	1.3834472159680387	101.0	255.0	11111110.0	
0.013292300916438599	-2.66558298145816e-05	0.013295711671794852	1.382872925147167	1.3830687264285955	1.3835643391089845	1.3836218575980495	1.383447513991298	102.0	255.0	11111110.0	
0.01329573282292012	-2.642423138384734e-05	0.013298095857870085	1.3828660706122007	1.3830615738703698	1.3835574845740182	1.3836161951561208	1.3834397653865536	103.0	255.0	11111110.0	
0.013300208430551687	-2.619291318026688e-05	0.013301672136982934	1.3828666666587195	1.383059487707554	1.383555100387943	1.3836138109700455	1.3834376792237377	104.0	255.0	11111110.0	
0.013300410534813869	-2.596187528203601e-05	0.013301076090464126	1.3828747132867234	1.3830657461960014	1.3835628489926874	1.3836209635282712	1.3834439377121852	105.0	255.0	11111110.0	
0.013301771462365735	-2.573111776644803e-05	0.013301672136982934	1.3828723291006482	1.383065448172742	1.3835634450392063	1.3836203674817524	1.3834427456191476	106.0	255.0	11111110.0	
0.013305163278740529	-2.5500640709895078e-05	0.013304652369576975	1.382878885612355	1.383069918521633	1.3835682134113567	1.3836260299236811	1.383449600154114	107.0	255.0	11111110.0	
0.013304674494753903	-2.5270444187869443e-05	0.013304056323058167	1.382874415263464	1.3830663422425202	1.3835646371322439	1.38362155957479	1.3834451298052228	108.0	255.0	11111110.0	
0.013303843172516332	-2.5040528274964884e-05	0.013303162253279955	1.38286636863546	1.3830582956145163	1.3835562924809806	1.3836114267839703	1.3834361891074407	109.0	255.0	11111110.0	
0.013303564907320375	-2.4810893044877988e-05	0.01330286423002055	1.3828484872398958	1.3830401161956927	1.383537517015638	1.383593545388406	1.383419499804914	110.0	255.0	11111110.0	
0.013301275460048187	-2.4581538570409492e-05	0.013300480043945318	1.3828505734027117	1.3830436924748055	1.3835399012017133	1.3835974196907783	1.3834218839909893	111.0	255.0	11111110.0	
0.013301714438924354	-2.4352464923465615e-05	0.013300778067204722	1.3828627923563472	1.3830541232888847	1.38355152410883	1.3836087445746357	1.383430526665512	112.0	255.0	11111110.0	
0.013301193958357218	-2.412367217505939e-05	0.013300182020685914	1.38286636863546	1.3830603817773321	1.3835571865507588	1.3836144070165644	1.3834391693400347	113.0	255.0	11111110.0	
0.013300667475121899	-2.3895160395312016e-05	0.013299585974167106	1.382877395496058	1.3830708125914113	1.383567617364838	1.3836263279469405	1.3834481100378169	114.0	255.0	11111110.0	
0.013299288139703611	-2.36669296534542e-05	0.013298095857870085	1.382877395496058	1.383069918521633	1.383567617364838	1.3836263279469405	1.3834478120145575	115.0	255.0	11111110.0	
0.01329965872061793	-2.343898001782748e-05	0.01329839388112949	1.382877395496058	1.3830726007309677	1.3835673193415785	1.3836263279469405	1.3834487060843357	116.0	255.0	11111110.0	
0.013297620533569176	-2.3211311555885584e-05	0.01329630771831366	1.3828756073565016	1.3830687264285955	1.3835643391089845	1.3836209635282712	1.3834451298052228	117.0	255.0	11111110.0	
0.0132965172136268	-2.298392433419577e-05	0.013295115625276044	1.3828726271239076	1.3830657461960014	1.3835622529461686	1.3836206655050118	1.3834436396889258	118.0	255.0	11111110.0	
0.013299561222258614	-2.275681841844017e-05	0.01329839388112949	1.3828827599147273	1.3830740908472647	1.3835711936439508	1.3836299042260534	1.383454070503005	119.0	255.0	11111110.0	
0.013293644328329952	-2.2529993873417143e-05	0.013292731439200811	1.3828741172402046	1.3830681303820767	1.383565531202022	1.38362155957479	1.3834451298052228	120.0	255.0	11111110.0	
0.013281553831103327	-2.230345076304262e-05	0.013279916439046436	1.382872925147167	1.3830663422425202	1.3835643391089845	1.3836206655050118	1.3834442357354446	121.0	255.0	11111110.0	
0.013280223741943863	-2.207718915035146e-05	0.013277234229711799	1.3828711370076106	1.3830630639866668	1.3835604648066122	1.3836194734119742	1.3834427456191476	122.0	255.0	11111110.0	
0.013281196209095238	-2.1851209097498777e-05	0.013277234229711799	1.382866964681979	1.3830576995679975	1.383555100387943	1.3836129169002673	1.3834361891074407	123.0	255.0	11111110.0	
0.013284878916988355	-2.1625510665761322e-05	0.013280810508824648	1.382869944914573	1.3830633620099262	1.3835604648066122	1.3836173872491584	1.383440063409813	124.0	255.0	11111110.0	
0.013287248351795953	-2.1400093915538817e-05	0.013284088764678093	1.3828624943330878	1.3830547193354035	1.3835524181786083	1.3836078505048575	1.3834302286422526	125.0	255.0	11111110.0	
0.013286305829255959	-2.117495890635533e-05	0.013284684811196901	1.3828565338678998	1.383046970730659	1.3835458616669014	1.3836018900396694	1.3834248642235834	126.0	255.0	11111110.0	
0.013281247851591555	-2.0950105696860624e-05	0.013281108532084052	1.3828681567750165	1.3830591896842945	1.3835589746903152	1.3836150030630832	1.3834406594563318	127.0	255.0	11111110.0	
0.013270842045201361	-2.0725534344831507e-05	0.013271273764523717	1.3828690508447947	1.3830621699168886	1.3835592727135746	1.3836164931793802	1.3834421495726288	128.0	255.0	11111110.0	
0.013268202689990322	-2.0501244907173194e-05	0.013268293531929676	1.382864878519163	1.3830600837540727	1.3835556964344617	1.383612618877008	1.383435593060922	129.0	255.0	11111110.0	
0.013271561484297686	-2.0277237439920694e-05	0.013271273764523717	1.3828705409610917	1.3830660442192608	1.3835628489926874	1.3836209635282712	1.3834436396889258	130.0	255.0	11111110.0	
0.013273982501448105	-2.0053511998240147e-05	0.01327365795059895	1.3828732231704264	1.3830693224751143	1.383564041085725	1.3836233477143465	1.3834481100378169	131.0	255.0	11111110.0	
0.013275268880517398	-1.98300686364302e-05	0.01327514806689597	1.3828580239841968	1.3830520371260688	1.3835473517831984	1.3836069564350792	1.3834311227120308	132.0	255.0	11111110.0	
0.013274161629031918	-1.9606907407923376e-05	0.013274253997117758	1.3828511694492305	1.3830460766608808	1.3835428814343074	1.383600101900113	1.3834248642235834	133.0	255.0	11111110.0	
0.013272645146177849	-1.9384028365287423e-05	0.013272763880820737	1.3828767994495392	1.3830711106146707	1.3835667232950597	1.3836254338771623	1.3834487060843357	134.0	255.0	11111110.0	
0.013273286447235834	-1.9161431560226698e-05	0.013273359927339546	1.3828845480542837	1.3830791572426746	1.3835747699230636	1.3836337785284256	1.3834567527123396	135.0	255.0	11111110.0	
0.01327524530313996	-1.8939117043583528e-05	0.013275446090155374	1.382875905379761	1.383069918521633	1.3835649351555033	1.3836236457376059	1.3834478120145575	136.0	255.0	11111110.0	
0.013274717175723063	-1.8717084865339586e-05	0.01327514806689597	1.3828705409610917	1.3830642560797044	1.3835604648066122	1.3836191753887148	1.383440063409813	137.0	255.0	11111110.0	
0.01327286205856499	-1.849533507461727e-05	0.013273359927339546	1.3828616002633096	1.3830547193354035	1.3835518221320895	1.383610532714192	1.3834317187585496	138.0	255.0	11111110.0	
0.01327377670977173	-1.827386771968108e-05	0.013274253997117758	1.382860408170272	1.3830520371260688	1.3835491399227549	1.383606062365301	1.3834293345724744	139.0	255.0	11111110.0	
0.013273491383955808	-1.8052682847938966e-05	0.013273955973858354	1.3828595141004938	1.3830526331725876	1.383550033992533	1.383606062365301	1.3834311227120308	140.0	255.0	11111110.0	
0.013270479174224867	-1.7831780505943736e-05	0.013270677718004909	1.38287143503087	1.3830642560797044	1.3835607628298716	1.383617089225899	1.38344155352611	141.0	255.0	11111110.0	
0.013270660444278428	-1.7611160739394422e-05	0.013270379694745505	1.3828753093332422	1.383066938289039	1.383567021318319	1.3836209635282712	1.383444533758704	142.0	255.0	11111110.0	
0.013276405581539965	-1.739082359313765e-05	0.013276042136674182	1.3828732231704264	1.3830636600331856	1.383564041085725	1.3836176852724178	1.38344155352611	143.0	255.0	11111110.0	
0.013280857248797738	-1.7170769111169026e-05	0.013281108532084052	1.3828770974727986	1.3830687264285955	1.3835664252718003	1.383623049691087	1.3834457258517416	144.0	255.0	11111110.0	
0.013279188020440789	-1.6950997336634515e-05	0.01328021446230584	1.3828842500310243	1.38307647503334	1.3835741738765448	1.3836319903888692	1.3834543685262644	145.0	255.0	11111110.0	
0.013275325676948762	-1.6731508311831835e-05	0.01327663818319299	1.382881865844949	1.3830770710798588	1.3835738758532854	1.3836313943423504	1.3834534744564861	146.0	255.0	11111110.0	
0.013277445004152334	-1.6512302078211834e-05	0.01327872434600882	1.3828842500310243	1.3830788592194152	1.3835753659695824	1.3836328844586474	1.3834576467821178	147.0	255.0	11111110.0	
0.013278112535692327	-1.6293378676379876e-05	0.013279320392527627	1.3828779915425768	1.3830696204983737	1.3835667232950597	1.3836242417841247	1.3834493021308545	148.0	255.0	11111110.0	
0.013277210634181216	-1.6074738146097243e-05	0.013278128299490011	1.3828705409610917	1.3830636600331856	1.383559570736834	1.3836167912026396	1.3834427456191476	149.0	255.0	11111110.0	
0.0132788119883231	-1.5856380526282507e-05	0.013279320392527627	1.3828767994495392	1.3830711106146707	1.3835679153880973	1.3836254338771623	1.3834501962006327	150.0	255.0	11111110.0	
0.013279752521080754	-1.5638305855012905e-05	0.013279916439046436	1.3828681567750165	1.383062467940148	1.3835589746903152	1.3836188773654554	1.3834406594563318	151.0	255.0	11111110.0	
0.013280330393000795	-1.542051416952575e-05	0.01328021446230584	1.3828645804959037	1.3830582956145163	1.383555100387943	1.3836135129467861	1.3834346989911437	152.0	255.0	11111110.0	
0.013282777650459097	-1.5203005506219814e-05	0.013282598648381072	1.382857427937678	1.3830496529399936	1.3835479478297172	1.3836054663187822	1.3834278444561774	153.0	255.0	11111110.0	
0.013285999819573435	-1.498577990065673e-05	0.013286174927493921	1.3828660706122007	1.3830582956145163	1.3835545043414241	1.3836129169002673	1.3834352950376625	154.0	255.0	11111110.0	
0.01327928939088503	-1.4768837387562381e-05	0.013279618415787032	1.382874415263464	1.3830672363122984	1.3835637430624657	1.3836218575980495	1.3834463218982604	155.0	255.0	11111110.0	
0.013273688005276334	-1.4552178000828296e-05	0.013273359927339546	1.382889912472953	1.3830821374752686	1.3835792402719547	1.3836361627145009	1.3834624151542683	156.0	255.0	11111110.0	
0.013273783979352095	-1.4335801773513037e-05	0.013272465857561333	1.3828738192169452	1.3830633620099262	1.3835622529461686	1.3836182813189366	1.3834427456191476	157.0	255.0	11111110.0	
0.013273738883329004	-1.4119708737843604e-05	0.013271571787783121	1.3828654745656819	1.3830553153819223	1.383555100387943	1.3836093406211545	1.3834341029446249	158.0	255.0	11111110.0	
0.013272615303934449	-1.390389892521683e-05	0.013269783648226697	1.3828776935193174	1.3830690244518549	1.3835679153880973	1.3836227516678277	1.3834472159680387	159.0	255.0	11111110.0	
0.01327660938163695	-1.3688372366200776e-05	0.01327365795059895	1.3828887203799154	1.383079455265934	1.3835771541091388	1.3836334805051662	1.3834561566658208	160.0	255.0	11111110.0	
0.013276100798576048	-1.3473129090536132e-05	0.01327365795059895	1.3828776935193174	1.383068428405336	1.3835643391089845	1.3836203674817524	1.3834457258517416	161.0	255.0	11111110.0	
0.013274194400571758	-1.3258169127137622e-05	0.013272465857561333	1.3828616002633096	1.3830532292191065	1.3835506300390519	1.3836048702722634	1.3834311227120308	162.0	255.0	11111110.0	
0.013273947223455308	-1.3043492504095407e-05	0.013273061904080142	1.382852957588787	1.3830451825911025	1.3835431794575668	1.3835980157372971	1.3834242681770645	163.0	255.0	11111110.0	
0.013276942958981493	-1.2829099248676476e-05	0.013277234229711799	1.3828621963098284	1.3830541232888847	1.383553610271646	1.3836099366676733	1.3834352950376625	164.0	255.0	11111110.0	
0.01328040386864637	-1.2614989387326056e-05	0.013282300625121668	1.38286636863546	1.383057997591257	1.383559570736834	1.383612618877008	1.383438573293516	165.0	255.0	11111110.0	
0.01328166057023426	-1.2401162945669011e-05	0.01328528085771571	1.3828785875890957	1.3830702165448925	1.3835702995741725	1.3836260299236811	1.383452580386708	166.0	255.0	11111110.0	
0.013283159541787421	-1.2187619948511252e-05	0.01328826109030975	1.3828747132867234	1.3830657461960014	1.3835622529461686	1.3836209635282712	1.383446023875001	167.0	255.0	11111110.0	
0.013282279050129115	-1.1974360419841139e-05	0.01328826109030975	1.382874415263464	1.3830666402657796	1.3835643391089845	1.3836191753887148	1.3834451298052228	168.0	255.0	11111110.0	
0.013276936255062	-1.1761384382830893e-05	0.013282598648381072	1.382861898286569	1.383055911428441	1.3835548023646835	1.3836096386444139	1.383435593060922	169.0	255.0	11111110.0	
0.013267694396857557	-1.1548691859837994e-05	0.013271273764523717	1.3828815678216897	1.38307140863793	1.3835700015509131	1.3836260299236811	1.383450494223892	179.0	255.0	11111110.0	
0.013272195609221245	-1.1336282872406593e-05	0.013272763880820737	1.3828779915425768	1.3830690244518549	1.3835667232950597	1.3836218575980495	1.3834487060843357	180.0	255.0	11111110.0	
0.013276372617968797	-1.1124157441268926e-05	0.013274253997117758	1.3828770974727986	1.3830690244518549	1.3835652331787627	1.3836224536445683	1.3834478120145575	181.0	255.0	11111110.0	
0.013280999106169852	-1.0912315586346723e-05	0.013276936206452395	1.3828833559612461	1.3830761770100806	1.3835732798067666	1.3836284141097563	1.3834528784099673	182.0	255.0	11111110.0	
0.013283477713092365	-1.0700757326752612e-05	0.013278426322749415	1.3828800777053927	1.3830746868937835	1.383570597597432	1.3836284141097563	1.3834519843401891	183.0	255.0	11111110.0	
0.013277731855037703	-1.048948268079154e-05	0.01327216783430193	1.3828720310773888	1.3830615738703698	1.3835589746903152	1.3836150030630832	1.3834409574795912	177.0	255.0	11111110.0	
0.01327643427673505	-1.0278491665962172e-05	0.013270677718004909	1.382863388402866	1.3830562094517005	1.3835539082949053	1.3836093406211545	1.383434997014403	178.0	255.0	11111110.0	
0.013276494650866513	-1.0067784298958315e-05	0.013271273764523717	1.3828815678216897	1.38307140863793	1.3835700015509131	1.3836260299236811	1.383450494223892	179.0	255.0	11111110.0	
0.013276671891908553	-9.857360595670335e-06	0.013272763880820737	1.3828779915425768	1.3830690244518549	1.3835667232950597	1.3836218575980495	1.3834487060843357	180.0	255.0	11111110.0	
0.013276255817240375	-9.647220571186567e-06	0.013274253997117758	1.3828770974727986	1.3830690244518549	1.3835652331787627	1.3836224536445683	1.3834478120145575	181.0	255.0	11111110.0	
0.013276668887891002	-9.437364239794733e-06	0.013276936206452395	1.3828833559612461	1.3830761770100806	1.3835732798067666	1.3836284141097563	1.3834528784099673	182.0	255.0	11111110.0	
0.013275858993581843	-9.227791614983354e-06	0.013278426322749415	1.3828800777053927	1.3830746868937835	1.383570597597432	1.3836284141097563	1.3834519843401891	183.0	255.0	11111110.0	
0.013272881196406962	-9.018502709443164e-06	0.013277234229711799	1.3828765014262798	1.3830705145681519	1.3835673193415785	1.3836236457376059	1.3834472159680387	184.0	255.0	11111110.0	
0.013268261555515061	-8.809497535068534e-06	0.013273359927339546	1.382867858751757	1.3830612758471104	1.3835589746903152	1.383615599109602	1.3834403614330724	185.0	255.0	11111110.0	
0.01327074312444665	-8.600776102958886e-06	0.013275744113414778	1.382867858751757	1.3830612758471104	1.3835568885274994	1.383612618877008	1.3834403614330724	186.0	255.0	11111110.0	
0.013274160706146124	-8.392338423420113e-06	0.01327872434600882	1.3828693488680541	1.3830612758471104	1.3835568885274994	1.3836135129467861	1.383438573293516	187.0	255.0	11111110.0	
0.013275262873100857	-8.184184505965997e-06	0.013279022369268223	1.3828753093332422	1.3830663422425202	1.3835643391089845	1.3836203674817524	1.383443043642407	188.0	255.0	11111110.0	
0.013273948186969177	-7.976314359319628e-06	0.013276340159933587	1.3828785875890957	1.383072004684449	1.3835697035276537	1.3836272220167187	1.3834501962006327	189.0	255.0	11111110.0	
0.013272587332397296	-7.768727991414824e-06	0.013273061904080142	1.3828797796821333	1.3830696204983737	1.3835688094578755	1.3836260299236811	1.3834481100378169	190.0	255.0	11111110.0	
0.013273753480334044	-7.5614254093975535e-06	0.01327216783430193	1.382875905379761	1.3830675343355578	1.3835664252718003	1.383623049691087	1.3834457258517416	191.0	255.0	11111110.0	
0.013273233237570445	-7.354406619627356e-06	0.013269783648226697	1.382872925147167	1.3830642560797044	1.3835598687600934	1.3836176852724178	1.38344155352611	192.0	255.0	11111110.0	
0.013273777487569532	-7.14767162767876e-06	0.013268889578448484	1.3828738192169452	1.3830633620099262	1.3835628489926874	1.3836188773654554	1.3834436396889258	193.0	255.0	11111110.0	
0.013273094613422983	-6.941220438342711e-06	0.013267399462151464	1.3828675607284977	1.3830585936377757	1.3835568885274994	1.383614108993305	1.3834358910841813	194.0	255.0	11111110.0	
0.013273167778313685	-6.735053055627984e-06	0.013267399462151464	1.3828660706122007	1.3830618718936292	1.3835604648066122	1.3836138109700455	1.3834364871307	195.0	255.0	11111110.0	
0.013276392904333276	-6.529169482762613e-06	0.013271571787783121	1.3828747132867234	1.3830672363122984	1.3835643391089845	1.3836188773654554	1.383444533758704	196.0	255.0	11111110.0	
0.0132763173807273	-6.323569722195313e-06	0.013273359927339546	1.3828750113099828	1.3830666402657796	1.3835628489926874	1.3836179832956772	1.3834439377121852	197.0	255.0	11111110.0	
0.013278595246181395	-6.118253775596908e-06	0.013278128299490011	1.3828720310773888	1.3830630639866668	1.3835598687600934	1.3836167912026396	1.38344155352611	198.0	255.0	11111110.0	
0.013275412695503091	-5.913221643861747e-06	0.013277532252971203	1.3828756073565016	1.3830681303820767	1.3835643391089845	1.3836212615515306	1.3834463218982604	199.0	255.0	11111110.0	
0.013271418103198205	-5.708473327109141e-06	0.013275446090155374	1.3828779915425768	1.3830711106146707	1.3835664252718003	1.383623049691087	1.3834487060843357	200.0	255.0	11111110.0	
0.013265880189191193	-5.50400882468478e-06	0.013270677718004909	1.3828696468913135	1.3830606798005916	1.3835562924809806	1.3836150030630832	1.3834412555028506	201.0	255.0	11111110.0	
0.013264737447223071	-5.299828135162165e-06	0.013269187601707888	1.3828756073565016	1.3830687264285955	1.383567021318319	1.3836242417841247	1.383450494223892	202.0	255.0	11111110.0	
0.013260451176050523	-5.09593125634403e-06	0.01326352515977921	1.3828705409610917	1.3830615738703698	1.3835604648066122	1.3836158971328614	1.3834433416656664	203.0	255.0	11111110.0	
0.013259407397089617	-4.892318185263772e-06	0.013260246903925766	1.38287143503087	1.3830651501494826	1.3835607628298716	1.3836164931793802	1.3834436396889258	204.0	255.0	11111110.0	
0.013261212029475777	-4.68898891818688e-06	0.013259650857406957	1.382868454798276	1.3830633620099262	1.3835601667833528	1.383614108993305	1.3834397653865536	205.0	255.0	11111110.0	
0.01326210276932613	-4.485943450612368e-06	0.013258458764369341	1.3828726271239076	1.383066938289039	1.3835643391089845	1.3836188773654554	1.3834451298052228	206.0	255.0	11111110.0	
0.013257680356987291	-4.283181777274199e-06	0.013252200275921855	1.3828595141004938	1.3830550173586629	1.3835512260855707	1.3836051682955228	1.383432016781809	207.0	255.0	11111110.0	
0.013256725333051557	-4.0807038921427215e-06	0.013249816089846623	1.3828571299144186	1.3830496529399936	1.3835467557366796	1.3836024860861882	1.3834287385259556	208.0	255.0	11111110.0	
0.013257770125605813	-3.878509788426099e-06	0.01325041213636543	1.3828601101470126	1.3830538252656253	1.3835503320157925	1.3836078505048575	1.3834317187585496	209.0	255.0	11111110.0	
0.013257675529766658	-3.6765994585717396e-06	0.013251008182884239	1.3828642824726443	1.3830568054982193	1.3835545043414241	1.383610532714192	1.3834358910841813	210.0	255.0	11111110.0	
0.013259154524639927	-3.474972894267734e-06	0.013254286438737684	1.3828642824726443	1.3830568054982193	1.3835539082949053	1.383609042597895	1.3834358910841813	211.0	255.0	11111110.0	
0.013257467982788635	-3.2736300864442853e-06	0.013255180508515896	1.3828583220074562	1.3830520371260688	1.3835497359692737	1.3836024860861882	1.3834287385259556	212.0	255.0	11111110.0	
0.01325921252004582	-3.072571025275146e-06	0.013259948880666362	1.3828630903796066	1.3830562094517005	1.3835548023646835	1.3836099366676733	1.3834332088748467	213.0	255.0	11111110.0	
0.013261018596452146	-2.8717957001790486e-06	0.013265015276076231	1.3828681567750165	1.3830621699168886	1.3835598687600934	1.3836153010863426	1.3834403614330724	214.0	255.0	11111110.0	
0.013259400873823372	-2.671304099821145e-06	0.013266207369113847	1.3828654745656819	1.3830591896842945	1.3835562924809806	1.3836120228304891	1.383437083177219	215.0	255.0	11111110.0	
0.013254344017768066	-2.471096212114439e-06	0.013262631090000998	1.3828607061935314	1.3830526331725876	1.3835494379460143	1.383607552481598	1.3834311227120308	216.0	255.0	11111110.0	
0.013252129984635033	-2.2711720242212214e-06	0.013260246903925766	1.3828726271239076	1.3830657461960014	1.3835592727135746	1.383620069458493	1.3834436396889258	217.0	255.0	11111110.0	
0.013247143353593388	-2.0715315225545086e-06	0.013253392368959472	1.3828821638682085	1.3830773691031182	1.383572087713729	1.3836302022493128	1.3834564546890802	218.0	255.0	11111110.0	
0.013244851866817448	-1.8721746927794786e-06	0.013247729927030794	1.3828815678216897	1.3830746868937835	1.3835717896904696	1.3836290101562752	1.3834537724797455	219.0	255.0	11111110.0	
0.013241442591731547	-1.6731015198149097e-06	0.013239981322286286	1.3828753093332422	1.3830681303820767	1.3835643391089845	1.383623049691087	1.3834463218982604	220.0	255.0	11111110.0	
0.0132485201369533	-1.4743119878346184e-06	0.013242961554880327	1.382878885612355	1.3830696204983737	1.383567021318319	1.3836239437608653	1.3834501962006327	221.0	255.0	11111110.0	
0.013254695465656092	-1.2758060802688999e-06	0.013246537833993178	1.3828705409610917	1.3830621699168886	1.3835577825972776	1.3836144070165644	1.38344155352611	222.0	255.0	11111110.0	
0.013257666535129473	-1.077583779805968e-06	0.013248623996809006	1.3828639844493849	1.3830571035214787	1.3835533122483865	1.383611128760711	1.3834341029446249	223.0	255.0	11111110.0	
0.013260686624963672	-8.79645068393397e-07	0.01325249829918126	1.382874415263464	1.3830666402657796	1.383564041085725	1.3836209635282712	1.3834442357354446	224.0	255.0	11111110.0	
0.01326070631037648	-6.819899272395653e-07	0.013254882485256492	1.3828660706122007	1.3830571035214787	1.3835559944577211	1.3836120228304891	1.3834379772469971	225.0	255.0	11111110.0	
0.013259756528510861	-4.846183368150973e-07	0.013257266671331725	1.3828693488680541	1.3830600837540727	1.3835583786437964	1.3836135129467861	1.383440063409813	226.0	255.0	11111110.0	
0.013260070860679669	-2.8753027685430957e-07	0.013261438996963382	1.3828735211936858	1.3830675343355578	1.3835637430624657	1.3836203674817524	1.3834433416656664	227.0	255.0	11111110.0	
0.01325978949356386	-9.072572635665585e-08	0.013265015276076231	1.382863388402866	1.3830588916610351	1.383555100387943	1.3836099366676733	1.3834346989911437	228.0	255.0	11111110.0	
0.013264299629981009	1.0579533641182654e-07	0.013273061904080142	1.382866964681979	1.383060977823851	1.3835589746903152	1.383615599109602	1.3834397653865536	229.0	255.0	11111110.0	
0.013267099831199395	3.0203293391706945e-07	0.01327872434600882	1.3828630903796066	1.3830568054982193	1.3835518221320895	1.3836096386444139	1.383433506898106	230.0	255.0	11111110.0	
0.013267991279409195	4.979870893555258e-07	0.013281108532084052	1.382864878519163	1.3830588916610351	1.3835548023646835	1.383612618877008	1.3834382752702565	231.0	255.0	11111110.0	
0.013275033959688624	6.936578266527203e-07	0.01328826109030975	1.3828702429378323	1.3830612758471104	1.3835577825972776	1.383615599109602	1.3834418515493694	232.0	255.0	11111110.0	
0.013281109905745275	8.890451704617996e-07	0.01329332748571962	1.3828550437516027	1.3830490568934748	1.383544073527345	1.3836003999233724	1.3834281424794368	233.0	255.0	11111110.0	
0.013286226624142463	1.0841491461620811e-06	0.01329630771831366	1.3828571299144186	1.3830517391028094	1.3835464577134202	1.3836039762024852	1.3834311227120308	234.0	255.0	11111110.0	
0.013282957050470357	1.2789697798576004e-06	0.013289453183347366	1.3828577259609374	1.3830511430562906	1.383547053759939	1.3836039762024852	1.3834302286422526	235.0	255.0	11111110.0	
0.01328083621458281	1.4735070983756586e-06	0.013282300625121668	1.3828639844493849	1.3830582956145163	1.383553014225127	1.3836093406211545	1.3834361891074407	236.0	255.0	11111110.0	
0.013279653343011148	1.6677611292653672e-06	0.013275446090155374	1.382852957588787	1.3830466727073996	1.3835443715506044	1.3836006979466318	1.3834251622468428	237.0	255.0	11111110.0	
0.013283020208989704	1.8617319007961947e-06	0.01327365795059895	1.3828487852631552	1.383043990498065	1.3835413913180103	1.3835974196907783	1.3834221820142487	238.0	255.0	11111110.0	
0.01328377239782431	2.0554194419565085e-06	0.013270677718004909	1.3828595141004938	1.3830523351493282	1.3835494379460143	1.3836054663187822	1.3834302286422526	239.0	255.0	11111110.0	
0.01328137439081286	2.2488237824521187e-06	0.013266207369113847	1.382852957588787	1.383045480614362	1.3835422853877886	1.3835992078303347	1.3834236721305457	240.0	255.0	11111110.0	
0.013277824066515202	2.44194495270482e-06	0.013262333066741594	1.3828538516585651	1.3830481628236966	1.383545563643642	1.3836018900396694	1.3834266523631398	241.0	255.0	11111110.0	
0.01327568057205642	2.634782983850933e-06	0.013261737020222786	1.382864878519163	1.3830597857308133	1.383555100387943	1.3836138109700455	1.3834364871307	242.0	255.0	11111110.0	
0.013270446824009616	2.8273379077398456e-06	0.013259650857406957	1.38286636863546	1.3830582956145163	1.3835574845740182	1.3836135129467861	1.3834382752702565	243.0	255.0	11111110.0	
0.013267080518210026	3.0196097569325508e-06	0.01326054492718517	1.3828654745656819	1.3830576995679975	1.3835559944577211	1.3836114267839703	1.383438573293516	244.0	255.0	11111110.0	
0.013267586146571371	3.2115985647001885e-06	0.013266207369113847	1.3828723291006482	1.3830648521262232	1.3835619549229092	1.3836182813189366	1.3834427456191476	245.0	255.0	11111110.0	
0.013261526995312798	3.4033043650225825e-06	0.013265313299335635	1.382866964681979	1.3830621699168886	1.3835592727135746	1.383615599109602	1.3834394673632942	246.0	255.0	11111110.0	
0.01325880189092976	3.59472719258678e-06	0.013266803415632656	1.3828660706122007	1.3830606798005916	1.3835604648066122	1.3836150030630832	1.383440063409813	247.0	255.0	11111110.0	
0.013256254781429918	3.785867082785587e-06	0.01326710143889206	1.3828607061935314	1.3830532292191065	1.383553014225127	1.383610532714192	1.383434997014403	248.0	255.0	11111110.0	
0.013258209062767678	3.976724071716109e-06	0.013270379694745505	1.3828580239841968	1.38305144107955	1.3835506300390519	1.3836069564350792	1.3834314207352902	249.0	255.0	11111110.0	
0.013258453429574968	4.167298196178286e-06	0.013270379694745505	1.382860408170272	1.383054421312144	1.3835539082949053	1.383610532714192	1.3834361891074407	250.0	255.0	11111110.0	
0.013256074063362423	4.3575894936734305e-06	0.013265909345854443	1.3828630903796066	1.3830591896842945	1.3835553984112023	1.3836120228304891	1.3834382752702565	251.0	255.0	11111110.0	
0.013260112126256978	4.5475980024027655e-06	0.013266505392373252	1.382861898286569	1.3830597857308133	1.3835539082949053	1.383610532714192	1.383435593060922	252.0	255.0	11111110.0	
0.013262352856553979	4.737323761265961e-06	0.013264717252816827	1.3828616002633096	1.3830553153819223	1.3835524181786083	1.3836096386444139	1.3834346989911437	253.0	255.0	11111110.0	
0.013262752595329965	4.926766809859672e-06	0.013260842950444574	1.382855937821381	1.3830490568934748	1.383547053759939	1.3836048702722634	1.3834296325957338	254.0	255.0	11111110.0	
0.013266001494284146	5.115927188476072e-06	0.013260246903925766	1.3828586200307156	1.3830481628236966	1.3835467557366796	1.3836051682955228	1.3834302286422526	255.0	255.0	11111110.0	
0.013263387917957704	5.304804938101397e-06	0.013254584461997088	1.3828675607284977	1.383057401544738	1.3835559944577211	1.3836150030630832	1.3834388713167753	0.0	255.0	11111110.0	
0.013264163353475475	5.493400100414476e-06	0.013253392368959472	1.382867858751757	1.3830591896842945	1.3835574845740182	1.3836150030630832	1.3834394673632942	1.0	255.0	11111110.0	
0.013264005407476413	5.6817127177852745e-06	0.013252796322440663	1.382872925147167	1.3830651501494826	1.3835616568996498	1.3836182813189366	1.3834442357354446	2.0	255.0	11111110.0	
0.013261267238914395	5.869742833273425e-06	0.013251008182884239	1.382878885612355	1.3830708125914113	1.3835679153880973	1.3836254338771623	1.383449600154114	3.0	255.0	11111110.0	
0.013255818362985415	6.057490490626771e-06	0.01324743190377139	1.3828708389843511	1.3830630639866668	1.383559570736834	1.3836179832956772	1.3834421495726288	4.0	255.0	11111110.0	
0.013250764990131567	6.244955734279898e-06	0.013244749694436753	1.3828747132867234	1.3830696204983737	1.383564041085725	1.3836233477143465	1.3834481100378169	5.0	255.0	11111110.0	
0.01325422582035621	6.432138609352677e-06	0.013251306206143643	1.3828794816588739	1.3830740908472647	1.3835679153880973	1.3836284141097563	1.3834519843401891	6.0	255.0	11111110.0	
0.01325239966290769	6.6190391616488e-06	0.013253094345700068	1.3828806737519115	1.3830726007309677	1.383569107481135	1.3836275200399781	1.3834519843401891	7.0	255.0	11111110.0	
0.013251973769762927	6.805657437654315e-06	0.013256074578294108	1.3828845480542837	1.383077965149637	1.3835747699230636	1.3836334805051662	1.383457050735599	8.0	255.0	11111110.0	
0.01325461283635596	6.991993484536167e-06	0.013261737020222786	1.382880375728652	1.3830761770100806	1.383572087713729	1.3836307982958316	1.3834552625960426	9.0	255.0	11111110.0	
0.013253320979937505	7.178047350140736e-06	0.013262631090000998	1.3828738192169452	1.38307140863793	1.3835679153880973	1.383625135853903	1.383450494223892	10.0	255.0	11111110.0	
0.013249972430446929	7.363819082992365e-06	0.013259948880666362	1.3828815678216897	1.3830767730565994	1.3835732798067666	1.3836307982958316	1.3834564546890802	11.0	255.0	11111110.0	
0.013246605013733497	7.549308732291906e-06	0.0132554785317753	1.3828738192169452	1.3830687264285955	1.3835652331787627	1.3836239437608653	1.3834493021308545	12.0	255.0	11111110.0	
0.013248988489954748	7.73451634791525e-06	0.0132554785317753	1.3828630903796066	1.3830597857308133	1.3835571865507588	1.3836135129467861	1.3834376792237377	13.0	255.0	11111110.0	
0.013253607163953563	7.919441980411867e-06	0.013257266671331725	1.3828720310773888	1.3830657461960014	1.3835631470159468	1.3836191753887148	1.3834448317819634	14.0	255.0	11111110.0	
0.013256447669335234	8.104085681003348e-06	0.013257266671331725	1.3828782895658362	1.383069918521633	1.3835679153880973	1.3836254338771623	1.3834487060843357	15.0	255.0	11111110.0	
0.013257344967350275	8.288447501581936e-06	0.0132554785317753	1.3828765014262798	1.383066938289039	1.3835649351555033	1.383624539807384	1.3834466199215198	16.0	255.0	11111110.0	
0.013255633669018678	8.472527494709062e-06	0.013251306206143643	1.3828735211936858	1.3830651501494826	1.3835634450392063	1.3836206655050118	1.3834457258517416	17.0	255.0	11111110.0	
0.013253298055266914	8.656325713613883e-06	0.013246835857252582	1.3828756073565016	1.383065448172742	1.3835643391089845	1.3836209635282712	1.3834451298052228	18.0	255.0	11111110.0	
0.013249895416923193	8.839842212191819e-06	0.01324176946184271	1.3828595141004938	1.38305144107955	1.3835488418994955	1.3836054663187822	1.3834311227120308	19.0	255.0	11111110.0	
0.013249855615737171	9.023077045003093e-06	0.013240875392064498	1.382857427937678	1.383048460846956	1.3835458616669014	1.3836057643420416	1.3834308246887714	20.0	255.0	11111110.0	
0.013251556190174572	9.206030267271263e-06	0.013242961554880327	1.382858918053975	1.3830511430562906	1.3835494379460143	1.3836099366676733	1.3834323148050685	21.0	255.0	11111110.0	
0.013255659676841912	9.388701934881768e-06	0.01324892202006841	1.38286636863546	1.3830600837540727	1.3835562924809806	1.3836173872491584	1.3834388713167753	22.0	255.0	11111110.0	
0.013252277116127963	9.571092104380465e-06	0.013248325973549602	1.382867858751757	1.3830603817773321	1.3835568885274994	1.3836176852724178	1.3834379772469971	23.0	255.0	11111110.0	
0.013247969658099159	9.753200832972165e-06	0.013246835857252582	1.382863388402866	1.3830556134051817	1.3835509280623113	1.3836108307374515	1.383435593060922	24.0	255.0	11111110.0	
0.013250208461780858	9.935028178519162e-06	0.013251902252662451	1.3828693488680541	1.3830627659634074	1.3835562924809806	1.383615599109602	1.3834421495726288	25.0	255.0	11111110.0	
