29.0 29.0 28.969236403589086 28.969236403589086 28.969236403589086 29.0 28.969236403589086 28.969236403589086 28.969236403589086 29.0 28.969236403589086 29.0 28.969236403589086 28.969236403589086 29.0 29.0 28.969236403589086 29.0 28.969236403589086 28.969236403589086 29.0 28.969236403589086 29.0 29.0 29.0 28.969236403589086 29.0 28.969236403589086 28.969236403589086 29.0 29.0 28.969236403589086 29.0 28.969236403589086 29.0 29.0 29.0 28.969236403589086 29.0 28.969236403589086 29.0 29.0 29.0 28.969236403589086 28.969236403589086 28.969236403589086 29.0 29.0 28.969236403589086 28.969236403589086 29.0 29.0 29.0 29.0 29.0 28.969236403589086 28.969236403589086 28.969236403589086 29.0 29.0 28.969236403589086 29.0 28.969236403589086 29.0 28.969236403589086 29.0 28.969236403589086 29.0 29.0 28.969236403589086 29.0 29.0 28.969236403589086 29.0 28.969236403589086 29.0 29.0 29.0 29.0 29.0 29.0 29.0 28.969236403589086 29.0 29.0 28.969236403589086 29.0 29.0 28.969236403589086 29.0 28.969236403589086 29.0 28.969236403589086 29.0 28.969236403589086 28.969236403589086 28.969236403589086 28.969236403589086 28.969236403589086 29.0 28.969236403589086 29.0 29.0 29.0 29.0 29.0 29.0 28.969236403589086 28.969236403589086 29.0 29.0 28.969236403589086 28.969236403589086 29.0 29.0 29.0 29.0 28.969236403589086 28.969236403589086 29.0 29.0 29.0 28.969236403589086 29.0 29.0 29.0 28.969236403589086 28.969236403589086 29.0 29.0 29.0 28.969236403589086 28.969236403589086 29.0 29.0 28.969236403589086 28.969236403589086 28.969236403589086 28.969236403589086 28.969236403589086 29.0 28.969236403589086 28.969236403589086 29.0 28.969236403589086 29.0 29.0 28.969236403589086 28.969236403589086 29.0 29.0 28.969236403589086 28.969236403589086 28.969236403589086 29.0 28.969236403589086 29.0 28.969236403589086 28.969236403589086 28.969236403589086 29.0 28.969236403589086 29.0 28.969236403589086 28.969236403589086 29.0 29.0 28.969236403589086 29.0 29.0 29.0 29.0 28.969236403589086 29.0 28.969236403589086 29.0 28.969236403589086 29.0 29.0 29.0 28.969236403589086 29.0 28.969236403589086 29.0 29.0 29.0 28.969236403589086 28.969236403589086 29.0 28.969236403589086 29.0 28.969236403589086 28.969236403589086 29.0 28.969236403589086 29.0 29.0 29.0 28.969236403589086 29.0 29.0 29.0 28.969236403589086 29.0 29.0 28.969236403589086 29.0 28.969236403589086 28.969236403589086 29.0 29.0 29.0 29.0 29.0 29.0 28.969236403589086 28.969236403589086 29.0 29.0 29.0 29.0 29.0 28.969236403589086 28.969236403589086 29.0 28.969236403589086 29.0 29.0 29.0 29.0 29.0 29.0 29.0 29.0 29.0 29.0 28.969236403589086 29.0 29.0 28.969236403589086 29.0 29.0 28.969236403589086 28.969236403589086 28.969236403589086 29.0 28.969236403589086 29.0 29.0 28.969236403589086 28.969236403589086 28.969236403589086 29.0 29.0 28.969236403589086 29.0 29.0 29.0 29.0 28.969236403589086 28.969236403589086 29.0 28.969236403589086 28.969236403589086 29.0 29.0 28.969236403589086 28.969236403589086 28.969236403589086 28.969236403589086 28.969236403589086 28.969236403589086 29.0 29.0 29.0 28.969236403589086 28.969236403589086 29.0 29.0 29.0 28.969236403589086 28.969236403589086 29.0 28.969236403589086 28.969236403589086 28.969236403589086 28.969236403589086 29.0 28.969236403589086 29.0 28.969236403589086 29.0 28.969236403589086 28.969236403589086 28.969236403589086 29.0 29.0 29.0 29.0 29.0 29.0 28.969236403589086 28.969236403589086 29.0 28.969236403589086 29.0 28.969236403589086 28.969236403589086 29.0 28.969236403589086 29.0 28.969236403589086 28.969236403589086 28.969236403589086 28.969236403589086 29.0 28.969236403589086 29.0 28.969236403589086 28.969236403589086 29.0 28.969236403589086 28.969236403589086 28.969236403589086 29.0 28.969236403589086 28.969236403589086 29.0 29.0 29.0 28.969236403589086 28.969236403589086 28.969236403589086 29.0 28.969236403589086 28.969236403589086 29.0 28.969236403589086 28.969236403589086 28.969236403589086 29.0 29.0 29.0 28.969236403589086 28.969236403589086 29.0 29.0 29.0 29.0 29.0 29.0 29.0 29.0 28.969236403589086 28.969236403589086 28.969236403589086 28.969236403589086 28.969236403589086 29.0 29.0 28.969236403589086 29.0 29.0 28.969236403589086 28.969236403589086 29.0 29.0 28.969236403589086 28.969236403589086 28.969236403589086 29.0 28.969236403589086 28.969236403589086 29.0 29.0 29.0 29.0 29.0 29.0 28.969236403589086 28.969236403589086 28.969236403589086 28.969236403589086 28.969236403589086 29.0 29.0 29.0 29.0 29.0 28.969236403589086 29.0 29.0 28.969236403589086 29.0 29.0 28.969236403589086 29.0 29.0 29.0 29.0 29.0 29.0 28.969236403589086 29.0 29.0 29.0 28.969236403589086 29.0 29.0 28.969236403589086 28.969236403589086 29.0 29.0 28.969236403589086 29.0 29.0 29.0 29.0 29.0 29.0 28.969236403589086 28.969236403589086 29.0 29.0 29.0 29.0 29.0 28.969236403589086 29.0 29.0 29.0 29.0 28.969236403589086 29.0 28.969236403589086 29.0 29.0 28.969236403589086 28.969236403589086 29.0 29.0 28.969236403589086 29.0 28.969236403589086 28.969236403589086 28.969236403589086 29.0 28.969236403589086 29.0 28.969236403589086 28.969236403589086 28.969236403589086 28.969236403589086 28.969236403589086 29.0 28.969236403589086 29.0 29.0 28.969236403589086 29.0 28.969236403589086 28.969236403589086 29.0 29.0 29.0 28.969236403589086 28.969236403589086 29.0 29.0 28.969236403589086 29.0 29.0 29.0 29.0 28.969236403589086 29.0 29.0 28.969236403589086 29.0 29.0 29.0 29.0 29.0 28.969236403589086 29.0 28.969236403589086 28.969236403589086 29.0 29.0 28.969236403589086 28.969236403589086 28.969236403589086 28.969236403589086 29.0 29.0 29.0 28.969236403589086 29.0 29.0 29.0 28.969236403589086 28.969236403589086 29.0 28.969236403589086 29.0 29.0 29.0 29.0 29.0 28.969236403589086 28.969236403589086 28.969236403589086 28.969236403589086 29.0 29.0 29.0 29.0 29.0 29.0 29.0 28.969236403589086 29.0 28.969236403589086 28.969236403589086 28.969236403589086 29.0 29.0 29.0 29.0 29.0 29.0 29.0 29.0 28.969236403589086 29.0 29.0 29.0 29.0 29.0 29.0 29.0 29.0 29.0 29.0 29.0 29.0 29.0 29.0 29.0 29.0 29.0 29.0 29.0 29.0 29.0 29.0 29.0 29.0 29.0 29.030763596410914 29.09229078923274 29.184581578465483 29.30763596410914 29.39992675334188 29.49221754257462 29.615271928218274 29.73832631386193 29.861380699505585 29.98443508514924 30.045962277971068 30.13825306720381 30.169016663614723 30.199780260025637 30.261307452847465 30.353598242080206 30.415125434902034 30.47665262772386 30.5689434169566 30.691997802600255 30.753524995422083 30.845815784654825 30.938106573887566 31.091924555942136 31.245742537996705 31.338033327229446 31.430324116462188 31.522614905694926 31.676432887749495 31.830250869804065 32.014832448269544 32.19941402673503 32.414759201611425 32.568577183665994 32.75315876213148 32.906976744186046 33.12232191906244 33.30690349752793 33.522248672404324 33.76835744369163 34.01446621497894 34.26057498626625 34.537447353964474 34.84508331807361 35.183482878593665 35.52188243911371 35.86028199963376 36.26020875297564 36.598608313495696 36.998535066837576 37.36769822376854 37.767624977110415 38.167551730452296 38.59824208020509 39.028932429957884 39.45962277971067 39.890313129463465 40.35176707562717 40.843984618201794 41.3054385643655 41.7668925105292 42.22834645669291 42.72056399926753 43.15125434902033 43.64347189159494 44.074162241347736 44.535616187511444 44.99707013367515 45.45852407983885 45.950741622413474 46.38143197216627 46.87364951474089 47.33510346090459 47.7965574070683 48.25801135323201 48.719465299395715 49.18091924555942 49.642373191723124 50.10382713788683 50.56528108405054 51.02673503021424 51.457425379967034 51.88811572971983 52.288042483061716 52.68796923640359 53.057132393334555 53.45705914667643 53.826222303607395 54.19538546053836 54.56454861746933 54.872184581578466 55.21058414209851 55.54898370261857 55.88738326313862 56.16425563083684 56.441127998535066 56.748763962644205 56.994872733931516 57.240981505218826 57.48709027650613 57.73319904779344 57.94854422266984 58.163889397546235 58.40999816883354 58.62534334370994 58.84068851858633 59.05603369346274 59.24061527192821 59.425196850393704 59.60977842885918 59.76359641091375 59.94817798937923 60.1019959714338 60.28657754989928 60.440395531953854 60.62497711041934 60.778795092473906 60.932613074528476 61.11719465299395 61.27101263504852 61.45559421351401 61.64017579197949 61.79399377403406 61.97857535249954 62.16315693096502 62.31697491301959 62.50155649148507 62.65537447353964 62.83995605200513 62.99377403405969 63.17835561252517 63.33217359457974 63.516755173045226 63.670573155099795 63.824391137154365 63.978209119208934 64.16279069767441 64.28584508331807 64.43966306537264 64.59348104742722 64.80882622230361 64.99340780076909 65.17798937923456 65.33180736128914 65.48562534334371 65.60867972898737 65.76249771104193 66.00860648232924 66.19318806079472 66.3470060428493 66.53158762131477 66.65464200695843 66.86998718183483 67.08533235671122 67.36220472440945 67.48525911005311 67.7006042849295 67.82365867057315 68.13129463468229 68.22358542391504 68.3466398095587 68.46969419520234 68.56198498443507 68.65427577366782 68.8080937557224 68.90038454495513 69.05420252700969 69.17725691265336 69.33107489470792 69.45412928035158 69.54642006958431 69.73100164804981 69.85405603369347 69.97711041933712 70.13092840139169 70.25398278703534 70.4078007690899 70.56161875114448 70.68467313678812 70.8384911188427 70.93078190807545 71.11536348654093 71.26918146859549 71.42299945065005 71.63834462552646 71.7306354147592 71.85368980040286 72.00750778245742 72.09979857169017 72.25361655374473 72.4074345357993 72.49972532503205 72.5920161142648 72.74583409631936 72.80736128914117 72.99194286760667 73.05347006042848 73.20728804248306 73.33034242812671 73.42263321735945 73.63797839223585 73.7302691814686 73.85332356711226 74.03790514557772 74.13019593481047 74.34554110968686 74.59164988097417 74.74546786302875 75.02234023072697 75.36073979124703 75.45303058047976 75.69913935176706 75.88372093023256 76.25288408716352 76.49899285845083 76.80662882255997 77.08350119025819 77.32960996154551 77.51419154001098 77.7603003112983 78.03717267899651 78.22175425746201 78.46786302874932 78.65244460721479 78.8985533785021 79.1138985533785 79.26771653543307 79.45229811389855 79.5753524995422 79.75993407800769 80.006042849295 80.12909723493865 80.28291521699322 80.4367331990478 80.55978758469143 80.71360556674601 80.83665995238968 81.02124153085515 81.1442959164988 81.23658670573155 81.32887749496429 81.42116828419702 81.45193188060794 81.54422266984068 81.5749862662516 81.66727705548433 81.69804065189524 81.72880424830618 81.75956784471708 81.79033144112799 81.79033144112799 81.79033144112799 81.79033144112799 81.8210950375389 81.79033144112799 81.79033144112799 81.79033144112799 81.79033144112799 81.79033144112799 81.79033144112799 81.79033144112799 81.79033144112799 81.79033144112799 81.79033144112799 81.79033144112799 81.79033144112799 81.79033144112799 81.79033144112799 81.75956784471708 81.79033144112799 81.79033144112799 81.79033144112799 81.79033144112799 81.79033144112799 81.79033144112799 81.79033144112799 81.79033144112799 81.79033144112799 81.79033144112799 81.79033144112799 81.79033144112799 81.79033144112799 81.79033144112799 81.75956784471708 81.75956784471708 81.75956784471708 81.75956784471708 81.75956784471708 81.72880424830618 81.72880424830618 81.69804065189524 81.66727705548433 81.63651345907343 81.63651345907343 81.63651345907343 81.6057498626625 81.6057498626625 81.6057498626625 81.6057498626625 81.6057498626625 81.6057498626625 81.6057498626625 81.6057498626625 81.6057498626625 81.6057498626625 81.6057498626625 81.51345907342977 81.45193188060794 81.35964109137521 81.29811389855337 81.26735030214246 81.20582310932063 81.1442959164988 81.1135323200879 81.08276872367698 81.05200512726607 81.05200512726607 81.02124153085515 81.02124153085515 81.02124153085515 81.02124153085515 81.02124153085515 81.02124153085515 81.02124153085515 81.02124153085515 81.02124153085515 81.02124153085515 81.02124153085515 81.02124153085515 81.02124153085515 81.02124153085515 81.02124153085515 81.02124153085515 81.02124153085515 81.02124153085515 81.02124153085515 81.02124153085515 80.99047793444424 80.99047793444424 80.95971433803334 80.99047793444424 80.95971433803334 80.95971433803334 80.99047793444424 80.99047793444424 80.95971433803334 80.95971433803334 80.95971433803334 80.95971433803334 80.9289507416224 80.86742354880059 80.80589635597875 80.74436916315693 80.71360556674601 80.68284197033509 80.68284197033509 80.65207837392418 80.65207837392418 80.62131477751328 80.59055118110236 80.59055118110236 80.55978758469143 80.49826039186962 80.49826039186962 80.4367331990478 80.40596960263687 80.40596960263687 80.34444240981506 80.28291521699322 80.28291521699322 80.25215162058231 80.25215162058231 80.25215162058231 80.25215162058231 80.2213880241714 80.2213880241714 80.2213880241714 80.25215162058231 80.2213880241714 80.15986083134956 80.12909723493865 80.06757004211681 80.0368064457059 80.006042849295 79.97527925288409 79.97527925288409 79.94451565647316 79.94451565647316 79.91375206006225 79.88298846365134 79.88298846365134 79.88298846365134 79.88298846365134 79.88298846365134 79.88298846365134 79.85222486724042 79.85222486724042 79.85222486724042 79.82146127082952 79.72917048159677 79.63687969236403 79.5753524995422 79.51382530672038 79.48306171030947 79.42153451748763 79.39077092107672 79.36000732466582 79.3292437282549 79.29848013184399 79.26771653543307 79.23695293902216 79.23695293902216 79.23695293902216 79.23695293902216 79.20618934261125 79.17542574620032 79.1138985533785 79.0831349569676 79.05237136055666 79.02160776414576 78.96008057132393 78.92931697491301 78.92931697491301 78.8985533785021 78.8677897820912 78.8677897820912 78.8677897820912 78.8677897820912 78.8677897820912 78.8677897820912 78.83702618568027 78.8677897820912 78.83702618568027 78.83702618568027 78.83702618568027 78.8677897820912 78.83702618568027 78.83702618568027 78.8677897820912 78.83702618568027 78.83702618568027 78.8677897820912 78.8677897820912 78.8677897820912 78.8677897820912 78.8677897820912 78.8677897820912 78.8677897820912 78.8677897820912 78.8677897820912 78.8677897820912 78.8677897820912 78.83702618568027 78.8677897820912 78.83702618568027 78.83702618568027 78.8677897820912 78.83702618568027 78.83702618568027 78.83702618568027 78.83702618568027 78.8677897820912 78.8677897820912 78.8677897820912 78.8677897820912 78.83702618568027 78.83702618568027 78.8677897820912 78.83702618568027 78.8677897820912 78.83702618568027 78.83702618568027 78.83702618568027 78.83702618568027 78.77549899285845 78.77549899285845 78.74473539644754 78.71397180003662 78.71397180003662 78.71397180003662 78.68320820362571 78.68320820362571 78.68320820362571 78.68320820362571 78.68320820362571 78.68320820362571 78.68320820362571 78.68320820362571 78.68320820362571 78.65244460721479 78.62168101080388 78.62168101080388 78.62168101080388 78.62168101080388 78.62168101080388 78.59091741439296 78.62168101080388 78.62168101080388 78.62168101080388 78.62168101080388 78.62168101080388 78.62168101080388 78.62168101080388 78.62168101080388 78.62168101080388 78.62168101080388 78.62168101080388 78.62168101080388 78.62168101080388 78.62168101080388 78.62168101080388 78.62168101080388 78.62168101080388 78.59091741439296 78.59091741439296 78.56015381798206 78.56015381798206 78.52939022157113 78.49862662516023 78.46786302874932 78.46786302874932 78.4370994323384 78.37557223951657 78.34480864310567 78.31404504669473 78.28328145028382 78.22175425746201 78.19099066105107 78.16022706464017 78.12946346822926 78.09869987181834 78.06793627540742 78.03717267899651 78.0064090825856 77.94488188976378 77.91411829335286 77.88335469694195 77.7910639077092 77.69877311847647 77.60648232924373 77.48342794360008 77.39113715436733 77.23731917231275 77.08350119025819 76.96044680461453 76.77586522614905 76.6528108405054 76.46822926203993 76.16059329793077 76.00677531587621 75.82219373741073 75.57608496612343 75.39150338765793 75.0838674235488 74.8685222486724 74.46859549533052 74.09943233839957 73.85332356711226 73.48416041018129 73.0842336568394 72.80736128914117 72.43819813221022 72.16132576451199 71.7306354147592 71.2999450650064 70.99230910089727 70.4078007690899 69.97711041933712 69.82329243728255 69.39260208752975 69.11572971983153 68.71580296648965 68.31587621314777 67.91594945980589 67.51602270646401 67.14685954953305 66.99304156747849 66.62387841054752 66.3470060428493 65.82402490386376 65.42409815052187 65.02417139718 64.77806262589269 64.34737227613991 64.07049990844168 63.60904596227797 63.27064640175792 62.80919245559421 62.31697491301959 61.947811756088626 61.48635780992492 60.901849478117555 60.686504303241165 60.22505035707745 59.91741439296832 59.579014832448266 59.14832448269547 58.84068851858633 58.25618018677898 57.94854422266984 57.61014466214979 57.210217908807905 56.748763962644205 56.37960080571324 55.70280168467313 55.395165720563995 55.087529756454856 54.77989379234572 54.31843984618202 53.918513092840136 53.64164072514191 53.303241164621866 52.9340780076909 52.68796923640359 52.288042483061716 52.0419337117744 51.54971616919978 51.242080205090645 51.02673503021424 50.74986266251602 50.288408716352315 49.95000915583226 49.642373191723124 49.27321003479216 48.873283281450284 48.59641091375206 48.319538546053835 47.73503021424648 47.27357626808276 46.93517670756272 46.442959164988096 46.104559604468044 45.5508148690716 45.05859732649698 44.6586705731551 44.35103460904596 43.981871452114994 43.73576268082768 43.45889031312946 43.24354513825307 42.966672770554844 42.68980040285662 42.505218824391136 42.22834645669291 41.82841970335103 41.64383812488555 41.36696575718733 41.21314777513276 40.87474821461271 40.690166636147225 40.47482146127083 40.044131111518034 39.70573155099798 39.428859183299764 39.15198681560154 38.93664164072514 38.59824208020509 38.25984251968504 38.04449734480864 37.70609778428859 37.4907526094122 37.12158945248123 36.66013550631752 36.41402673503021 36.07562717451016 35.79875480681194 35.52188243911371 35.27577366782641 35.06042849295001 34.69126533601904 34.41439296832082 34.26057498626625 34.10675700421168 33.983702618568024 33.89141182933528 33.7068302508698 33.614539461637065 33.49148507599341 33.368430690349754 33.27613990111701 33.18384911188427 33.0300311298297 32.99926753341879 32.87621314777513 32.814685954953305 32.72239516572056 32.63010437648782 32.53781358725508 32.414759201611425 32.32246841237868 32.260941219556855 32.19941402673503 32.107123237502286 32.014832448269544 31.922541659036806 31.86101446621498 31.86101446621498 31.830250869804065 31.830250869804065 31.79948727339315 31.768723676982237 31.737960080571323 31.676432887749495 31.614905694927668 31.522614905694926 31.399560520051274 31.338033327229446 31.307269730818533 31.27650613440762 31.21497894158579 31.184215345174877 31.12268815235305 31.030397363120308 30.96887017029848 30.938106573887566 30.845815784654825 30.784288591832997 30.691997802600255 30.599707013367514 30.538179820545686 30.415125434902034 30.322834645669293 30.261307452847465 30.13825306720381 30.07672587438198 30.015198681560154 29.8921442959165 29.861380699505585 29.83061710309467 29.83061710309467 29.83061710309467 29.83061710309467 29.799853506683757 29.769089910272843 29.73832631386193 29.73832631386193 29.707562717451015 29.707562717451015 29.6767991210401 29.6767991210401 29.646035524629188 29.646035524629188 29.615271928218274 29.615271928218274 29.58450833180736 29.553744735396446 29.553744735396446 29.522981138985532 29.49221754257462 29.49221754257462 29.49221754257462 29.49221754257462 29.461453946163708 29.461453946163708 29.430690349752794 29.430690349752794 29.430690349752794 29.430690349752794 29.39992675334188 29.39992675334188 29.39992675334188 29.369163156930966 29.369163156930966 29.369163156930966 29.369163156930966 29.338399560520052 29.30763596410914 29.276872367698225 29.24610877128731 29.24610877128731 29.215345174876397 29.215345174876397 29.215345174876397 29.215345174876397 29.215345174876397 29.184581578465483 29.184581578465483 29.184581578465483 29.184581578465483 29.184581578465483 29.184581578465483 29.184581578465483 29.15381798205457 29.15381798205457 29.15381798205457 29.123054385643655 29.123054385643655 29.123054385643655 29.09229078923274 29.09229078923274 29.09229078923274 29.09229078923274 29.09229078923274 29.061527192821828 29.09229078923274 29.061527192821828 29.061527192821828 29.061527192821828 29.061527192821828 29.061527192821828 29.061527192821828 29.061527192821828 29.061527192821828 29.061527192821828 29.061527192821828 29.061527192821828 29.061527192821828 29.061527192821828 29.061527192821828 29.061527192821828 29.061527192821828 29.061527192821828 29.061527192821828 29.061527192821828 29.061527192821828 29.030763596410914 29.030763596410914 29.030763596410914 29.0 29.0 29.0 28.969236403589086 28.969236403589086 28.969236403589086 28.969236403589086 28.969236403589086 28.969236403589086 28.969236403589086 28.969236403589086 28.969236403589086 28.969236403589086 28.969236403589086 28.969236403589086 28.969236403589086 28.969236403589086 28.969236403589086 28.969236403589086 28.969236403589086 28.969236403589086 28.969236403589086 28.969236403589086 28.969236403589086 28.969236403589086 28.969236403589086 28.969236403589086 28.969236403589086 28.969236403589086 28.969236403589086 28.938472807178172 28.969236403589086 28.969236403589086 28.969236403589086 28.969236403589086 28.938472807178172 28.969236403589086 28.969236403589086 28.969236403589086 28.969236403589086 28.969236403589086 28.969236403589086 28.969236403589086 28.938472807178172 28.969236403589086 28.969236403589086 28.969236403589086 28.969236403589086 28.938472807178172 28.938472807178172 28.969236403589086 28.969236403589086 28.969236403589086 28.969236403589086 28.969236403589086 28.969236403589086 28.969236403589086 28.969236403589086 28.969236403589086 28.969236403589086 28.969236403589086 28.969236403589086 28.969236403589086 28.969236403589086 28.969236403589086 28.969236403589086 28.969236403589086 28.969236403589086 28.938472807178172 28.938472807178172 28.969236403589086 28.969236403589086 28.969236403589086 28.969236403589086 28.969236403589086 28.938472807178172 28.969236403589086 28.938472807178172 28.969236403589086 28.938472807178172 28.969236403589086 28.938472807178172 28.969236403589086 28.969236403589086 28.938472807178172 28.938472807178172 28.969236403589086 28.969236403589086 28.938472807178172 28.938472807178172 28.969236403589086 28.969236403589086 28.938472807178172 28.969236403589086 28.938472807178172 28.969236403589086 28.969236403589086 28.938472807178172 28.938472807178172 28.938472807178172 28.938472807178172 28.938472807178172 28.969236403589086 28.969236403589086 28.969236403589086 28.938472807178172 28.938472807178172 28.938472807178172 28.969236403589086 28.938472807178172 28.969236403589086 28.969236403589086 28.969236403589086 28.969236403589086 28.938472807178172 28.969236403589086 28.938472807178172 28.938472807178172 28.938472807178172 28.969236403589086 28.938472807178172 28.938472807178172 28.969236403589086 28.938472807178172 28.969236403589086 28.938472807178172 28.938472807178172 28.938472807178172 28.938472807178172 28.969236403589086 28.938472807178172 28.938472807178172 28.938472807178172 28.938472807178172 28.938472807178172 28.938472807178172 28.938472807178172 28.938472807178172 28.938472807178172 28.938472807178172 28.938472807178172 28.969236403589086 28.938472807178172 28.969236403589086 28.969236403589086 28.938472807178172 28.938472807178172 28.938472807178172 28.938472807178172 28.938472807178172 28.938472807178172 28.938472807178172 28.969236403589086 28.938472807178172 28.938472807178172 28.938472807178172 28.969236403589086 28.938472807178172 28.938472807178172 28.938472807178172 28.938472807178172 28.938472807178172 28.938472807178172 28.969236403589086 28.938472807178172 28.969236403589086 28.938472807178172 28.938472807178172 28.938472807178172 28.938472807178172 28.938472807178172 28.969236403589086 28.938472807178172 28.938472807178172 28.938472807178172 28.938472807178172 28.938472807178172 28.938472807178172 28.938472807178172 28.90770921076726 28.90770921076726 28.90770921076726 28.90770921076726 28.90770921076726 28.90770921076726 28.90770921076726 28.90770921076726 28.90770921076726 28.90770921076726 28.90770921076726 28.90770921076726 28.90770921076726 28.90770921076726 28.90770921076726 28.90770921076726 28.90770921076726 28.90770921076726 28.90770921076726 28.876945614356345 28.876945614356345 28.876945614356345 28.876945614356345 28.876945614356345 28.876945614356345 28.876945614356345 28.876945614356345 28.876945614356345 28.876945614356345 28.876945614356345 28.876945614356345 28.876945614356345 28.876945614356345 28.876945614356345 28.876945614356345 28.876945614356345 28.876945614356345 28.84618201794543 28.876945614356345 28.84618201794543 28.876945614356345 28.84618201794543 28.876945614356345 28.84618201794543 28.84618201794543 28.876945614356345 28.876945614356345 28.876945614356345 28.876945614356345 28.876945614356345 28.876945614356345 28.84618201794543 28.84618201794543 28.84618201794543 28.876945614356345 28.84618201794543 28.84618201794543 28.876945614356345 28.876945614356345 28.876945614356345 28.84618201794543 28.84618201794543 28.876945614356345 28.84618201794543 28.876945614356345 28.84618201794543 28.876945614356345 28.876945614356345 28.84618201794543 28.876945614356345 28.84618201794543 28.84618201794543 28.84618201794543 28.876945614356345 28.876945614356345 28.876945614356345 28.876945614356345 28.84618201794543 28.876945614356345 28.84618201794543 28.876945614356345 28.84618201794543 28.876945614356345 28.876945614356345 28.876945614356345 28.84618201794543 28.84618201794543 28.84618201794543 28.84618201794543 28.84618201794543 28.84618201794543 28.84618201794543 28.876945614356345 28.84618201794543 28.84618201794543 28.84618201794543 28.84618201794543 28.84618201794543 28.84618201794543 28.84618201794543 28.876945614356345 28.84618201794543 28.876945614356345 28.84618201794543 28.84618201794543 28.84618201794543 28.84618201794543 28.84618201794543 28.84618201794543 28.876945614356345 28.876945614356345 28.84618201794543 28.84618201794543 28.84618201794543 28.84618201794543 28.84618201794543 28.84618201794543 28.84618201794543 28.84618201794543 28.84618201794543 28.84618201794543 28.84618201794543 28.84618201794543 28.84618201794543 28.84618201794543 28.84618201794543 28.84618201794543 28.84618201794543 28.84618201794543 28.84618201794543 28.84618201794543 28.84618201794543 28.84618201794543 28.84618201794543 28.84618201794543 28.84618201794543 28.876945614356345 28.84618201794543 28.84618201794543 28.84618201794543 28.84618201794543 28.84618201794543 28.84618201794543 28.84618201794543 28.876945614356345 28.84618201794543 28.84618201794543 28.84618201794543 28.84618201794543 28.84618201794543 28.84618201794543 28.84618201794543 28.84618201794543 28.84618201794543 28.84618201794543 28.84618201794543 28.84618201794543 28.84618201794543 28.84618201794543 28.84618201794543 28.84618201794543 28.84618201794543 28.84618201794543 28.84618201794543 28.876945614356345 28.84618201794543 28.84618201794543 28.84618201794543 28.84618201794543 28.84618201794543 28.84618201794543 28.84618201794543 28.84618201794543 28.84618201794543 28.84618201794543 28.84618201794543 28.84618201794543 28.84618201794543 28.84618201794543 28.84618201794543 28.84618201794543 28.84618201794543 28.84618201794543 28.84618201794543 28.84618201794543 28.84618201794543 28.84618201794543 28.84618201794543 28.84618201794543 28.84618201794543 28.84618201794543 28.84618201794543 28.84618201794543 28.876945614356345 28.876945614356345 28.84618201794543 28.84618201794543 28.84618201794543 28.84618201794543 28.84618201794543 28.84618201794543 28.84618201794543 28.84618201794543 28.84618201794543 28.84618201794543 28.84618201794543 28.84618201794543 28.84618201794543 28.84618201794543 28.84618201794543 28.84618201794543 28.84618201794543 28.84618201794543 28.876945614356345 28.84618201794543 28.84618201794543 28.84618201794543 28.84618201794543 28.84618201794543 28.84618201794543 28.84618201794543 28.84618201794543 28.84618201794543 28.84618201794543 28.84618201794543 28.84618201794543 28.84618201794543 28.84618201794543 28.84618201794543 28.84618201794543 28.84618201794543 28.84618201794543 28.84618201794543 28.84618201794543 28.876945614356345 28.84618201794543 28.84618201794543 28.84618201794543 28.84618201794543 28.84618201794543 28.84618201794543 28.84618201794543 28.84618201794543 28.876945614356345 28.84618201794543 28.84618201794543 28.84618201794543 28.84618201794543 28.84618201794543 28.84618201794543 28.84618201794543 28.84618201794543 28.876945614356345 28.84618201794543 28.84618201794543 28.876945614356345 28.84618201794543 28.84618201794543 28.84618201794543 28.84618201794543 28.84618201794543 28.84618201794543 28.84618201794543 28.84618201794543 28.84618201794543 28.84618201794543 28.84618201794543 28.84618201794543 28.84618201794543 28.84618201794543 28.84618201794543 28.876945614356345 28.84618201794543 28.84618201794543 28.84618201794543 28.84618201794543 28.84618201794543 28.84618201794543 28.84618201794543 28.84618201794543 28.84618201794543 28.84618201794543 28.84618201794543 28.84618201794543 28.84618201794543 28.84618201794543 28.84618201794543 28.84618201794543 28.84618201794543 28.84618201794543 28.84618201794543 28.84618201794543 28.84618201794543 28.84618201794543 28.815418421534517 28.815418421534517 28.815418421534517 28.815418421534517 28.784654825123603 28.784654825123603 28.784654825123603 28.815418421534517 28.784654825123603 28.784654825123603 28.784654825123603 28.784654825123603 28.784654825123603 28.784654825123603 28.784654825123603 28.784654825123603 28.784654825123603 28.784654825123603 28.784654825123603 28.784654825123603 28.784654825123603 28.784654825123603 28.784654825123603 28.784654825123603 28.784654825123603 28.784654825123603 28.784654825123603 28.784654825123603 28.784654825123603 28.784654825123603 28.784654825123603 28.815418421534517 28.784654825123603 28.784654825123603 28.784654825123603 28.784654825123603 28.784654825123603 28.784654825123603 28.784654825123603 28.784654825123603 28.784654825123603 28.784654825123603 28.784654825123603 28.784654825123603 28.784654825123603 28.784654825123603 28.784654825123603 28.784654825123603 28.784654825123603 28.815418421534517 28.784654825123603 28.784654825123603 28.784654825123603 28.784654825123603 28.784654825123603 28.784654825123603 28.784654825123603 28.784654825123603 28.815418421534517 28.784654825123603 28.784654825123603 28.784654825123603 28.784654825123603 28.784654825123603 28.784654825123603 28.784654825123603 28.784654825123603 28.784654825123603 28.784654825123603 28.784654825123603 28.784654825123603 28.784654825123603 28.784654825123603 28.784654825123603 28.784654825123603 28.784654825123603 28.784654825123603 28.784654825123603 28.784654825123603 28.784654825123603 28.784654825123603 28.784654825123603 28.784654825123603 28.784654825123603 28.784654825123603 28.784654825123603 28.784654825123603 28.784654825123603 28.784654825123603 28.784654825123603 28.784654825123603 28.784654825123603 28.784654825123603 28.784654825123603 28.784654825123603 28.784654825123603 28.784654825123603 28.784654825123603 28.784654825123603 28.784654825123603 28.784654825123603 28.784654825123603 28.784654825123603 28.784654825123603 28.784654825123603 28.784654825123603 28.784654825123603 28.784654825123603 28.784654825123603 28.784654825123603 28.784654825123603 28.784654825123603 28.784654825123603 28.784654825123603 28.784654825123603 28.784654825123603 28.784654825123603 28.784654825123603 28.784654825123603 28.784654825123603 28.784654825123603 28.784654825123603 28.784654825123603 28.784654825123603 28.784654825123603 28.784654825123603 28.784654825123603 28.784654825123603 28.784654825123603 28.784654825123603 28.784654825123603 28.784654825123603 28.784654825123603 28.784654825123603 28.784654825123603 28.784654825123603 28.784654825123603 28.784654825123603 28.784654825123603 28.784654825123603 28.784654825123603 28.784654825123603 28.784654825123603 28.784654825123603 28.784654825123603 28.784654825123603 28.784654825123603 28.784654825123603 28.784654825123603 28.784654825123603 28.784654825123603 28.784654825123603 28.784654825123603 28.784654825123603 28.784654825123603 28.784654825123603 28.784654825123603 28.784654825123603 28.784654825123603 28.784654825123603 28.784654825123603 28.784654825123603 28.784654825123603 28.784654825123603 28.784654825123603 28.784654825123603 28.784654825123603 28.784654825123603 28.784654825123603 28.784654825123603 28.784654825123603 28.784654825123603 28.784654825123603 28.784654825123603 28.784654825123603 28.784654825123603 28.784654825123603 28.784654825123603 28.784654825123603 28.75389122871269 28.75389122871269 28.75389122871269 28.75389122871269 28.75389122871269 28.75389122871269 28.75389122871269 28.75389122871269 28.75389122871269 28.75389122871269 28.75389122871269 28.75389122871269 28.75389122871269 28.75389122871269 28.723127632301775 28.75389122871269 28.75389122871269 28.75389122871269 28.75389122871269 28.75389122871269 28.75389122871269 28.75389122871269 28.75389122871269 28.75389122871269 28.75389122871269 28.723127632301775 28.75389122871269 28.75389122871269 28.75389122871269 28.75389122871269 28.75389122871269 28.75389122871269 28.75389122871269 28.75389122871269 28.75389122871269 28.75389122871269 28.75389122871269 28.75389122871269 28.723127632301775 28.75389122871269 28.75389122871269 28.723127632301775 28.723127632301775 28.75389122871269 28.75389122871269 28.75389122871269 28.75389122871269 28.75389122871269 28.75389122871269 28.75389122871269 28.75389122871269 28.75389122871269 28.75389122871269 28.75389122871269 28.75389122871269 28.75389122871269 28.75389122871269 28.75389122871269 28.75389122871269 28.75389122871269 28.75389122871269 28.75389122871269 28.75389122871269 28.75389122871269 28.75389122871269 28.75389122871269 28.75389122871269 28.75389122871269 28.75389122871269 28.75389122871269 28.75389122871269 28.75389122871269 28.75389122871269 28.784654825123603 28.784654825123603 28.815418421534517 28.84618201794543 28.876945614356345 28.969236403589086 29.0 29.09229078923274 29.15381798205457 29.184581578465483 29.215345174876397 29.276872367698225 29.338399560520052 29.39992675334188 29.49221754257462 29.553744735396446 29.73832631386193 29.799853506683757 29.861380699505585 29.8921442959165 29.953671488738326 30.045962277971068 30.107489470792896 30.23054385643655 30.322834645669293 30.415125434902034 30.47665262772386 30.5689434169566 30.66123420618934 30.784288591832997 30.87657938106574 31.091924555942136 31.153451748763963 31.307269730818533 31.491851309284012 31.614905694927668 31.830250869804065 32.23017762314594 32.47628639443325 32.78392235854239 32.968503937007874 33.27613990111701 33.64530305804798 34.10675700421168 34.56821095037539 34.99890130012818 35.30653726423732 35.82951840322285 36.1679179637429 36.84471708478301 37.21388024171397 37.552279802234025 37.98297015198681 38.475187694561434 38.81358725508149 39.5211499725325 39.921076725874386 40.444057864859914 40.90551181102362 41.3054385643655 41.73612891411829 42.28987364951474 42.93590917414393 43.52041750595129 43.92034425929317 44.50485259110053 44.84325215162058 45.181651712140635 45.85845083318073 46.350668375755355 46.750595129097235 47.18128547885003 47.519685039370074 48.04266617835561 48.50412012451932 48.873283281450284 49.334737227613985 49.85771836659953 50.22688152353049 50.78062625892693 51.18055301226882 51.91887932613075 52.38033327229445 52.74949642922542 53.18018677897821 53.70316791796374 54.0415674784838 54.7183665995239 55.05676616004395 55.51822010620765 55.82585607031679 56.225782823658676 56.62570957700055 56.90258194469877 57.27174510162973 57.61014466214979 57.8562534334371 58.19465299395715 58.50228895806629 58.779161325764505 59.05603369346274 59.27137886833913 59.579014832448266 59.886650796557404 60.1019959714338 60.53268632118659 60.778795092473906 60.994140267350296 61.30177623145944 61.547885002746746 61.97857535249954 62.31697491301959 62.53232008789599 62.870719648416035 63.17835561252517 63.39370078740157 63.70133675151071 63.916681926387106 64.22431789049625 64.5627174510163 64.77806262589269 65.11646218641275 65.45486174693279 65.7009705182201 66.07013367515107 66.31624244643838 66.68540560336935 67.30067753158761 67.63907709210767 68.00824024903864 68.65427577366782 68.8080937557224 69.300311298297 69.82329243728255 70.34627357626809 70.8384911188427 71.17689067936274 71.69987181834829 72.16132576451199 72.37667093938839 72.93041567478483 73.42263321735945 73.63797839223585 74.06866874198865 74.31477751327596 74.77623145943966 75.11463101995972 75.23768540560337 75.5453213697125 75.729902948178 76.06830250869804 76.49899285845083 76.68357443691632 76.96044680461453 77.14502838308002 77.32960996154551 77.57571873283281 77.72953671488739 78.0064090825856 78.16022706464017 78.25251785387292 78.40633583592748 78.49862662516023 78.62168101080388 78.74473539644754 78.80626258926935 78.92931697491301 79.02160776414576 79.1138985533785 79.20618934261125 79.29848013184399 79.39077092107672 79.45229811389855 79.48306171030947 79.54458890313128 79.60611609595313 79.60611609595313 79.63687969236403 79.63687969236403 79.63687969236403 79.63687969236403 79.63687969236403 79.63687969236403 79.63687969236403 79.63687969236403 79.63687969236403 79.63687969236403 79.63687969236403 79.63687969236403 79.63687969236403 79.63687969236403 79.63687969236403 79.63687969236403 79.60611609595313 79.63687969236403 79.63687969236403 79.63687969236403 79.63687969236403 79.63687969236403 79.60611609595313 79.60611609595313 79.60611609595313 79.60611609595313 79.63687969236403 79.60611609595313 79.63687969236403 79.63687969236403 79.66764328877494 79.72917048159677 79.75993407800769 79.7906976744186 79.85222486724042 79.88298846365134 79.91375206006225 79.94451565647316 79.91375206006225 79.94451565647316 79.94451565647316 79.94451565647316 79.94451565647316 79.94451565647316 79.94451565647316 79.94451565647316 79.94451565647316 79.94451565647316 79.94451565647316 79.94451565647316 79.94451565647316 79.94451565647316 79.94451565647316 79.94451565647316 79.94451565647316 79.94451565647316 79.94451565647316 79.94451565647316 79.91375206006225 79.91375206006225 79.91375206006225 79.91375206006225 79.91375206006225 79.91375206006225 79.88298846365134 79.88298846365134 79.88298846365134 79.88298846365134 79.88298846365134 79.85222486724042 79.82146127082952 79.7906976744186 79.75993407800769 79.69840688518586 79.63687969236403 79.5753524995422 79.5753524995422 79.51382530672038 79.51382530672038 79.51382530672038 79.51382530672038 79.48306171030947 79.48306171030947 79.48306171030947 79.48306171030947 79.48306171030947 79.45229811389855 79.45229811389855 79.42153451748763 79.39077092107672 79.3292437282549 79.26771653543307 79.20618934261125 79.17542574620032 79.17542574620032 79.14466214978941 79.14466214978941 79.14466214978941 79.14466214978941 79.14466214978941 79.1138985533785 79.1138985533785 79.05237136055666 79.02160776414576 78.96008057132393 78.92931697491301 78.8985533785021 78.8677897820912 78.83702618568027 78.83702618568027 78.83702618568027 78.83702618568027 78.77549899285845 78.77549899285845 78.74473539644754 78.74473539644754 78.74473539644754 78.74473539644754 78.74473539644754 78.74473539644754 78.71397180003662 78.65244460721479 78.62168101080388 78.59091741439296 78.56015381798206 78.56015381798206 78.56015381798206 78.52939022157113 78.49862662516023 78.46786302874932 78.40633583592748 78.37557223951657 78.34480864310567 78.28328145028382 78.25251785387292 78.19099066105107 78.16022706464017 78.12946346822926 78.09869987181834 78.09869987181834 78.09869987181834 78.09869987181834 78.06793627540742 78.06793627540742 78.09869987181834 78.09869987181834 78.09869987181834 78.09869987181834 78.09869987181834 78.09869987181834 78.09869987181834 78.09869987181834 78.09869987181834 78.09869987181834 78.09869987181834 78.09869987181834 78.09869987181834 78.09869987181834 78.09869987181834 78.09869987181834 78.09869987181834 78.09869987181834 78.06793627540742 78.03717267899651 78.0064090825856 78.0064090825856 78.0064090825856 78.0064090825856 78.0064090825856 78.0064090825856 78.0064090825856 78.0064090825856 78.0064090825856 78.0064090825856 78.0064090825856 78.0064090825856 78.0064090825856 78.0064090825856 78.0064090825856 78.0064090825856 78.0064090825856 78.0064090825856 78.0064090825856 78.0064090825856 78.0064090825856 78.0064090825856 78.0064090825856 78.0064090825856 78.0064090825856 78.0064090825856 78.0064090825856 78.0064090825856 78.0064090825856 78.0064090825856 78.0064090825856 78.0064090825856 78.0064090825856 77.97564548617468 77.97564548617468 77.94488188976378 77.94488188976378 77.91411829335286 77.88335469694195 77.88335469694195 77.88335469694195 77.88335469694195 77.88335469694195 77.85259110053104 77.88335469694195 77.88335469694195 77.88335469694195 77.85259110053104 77.88335469694195 77.88335469694195 77.85259110053104 77.88335469694195 77.88335469694195 77.85259110053104 77.88335469694195 77.88335469694195 77.88335469694195 77.88335469694195 77.85259110053104 77.82182750412012 77.7910639077092 77.7603003112983 77.7603003112983 77.7603003112983 77.72953671488739 77.72953671488739 77.69877311847647 77.69877311847647 77.69877311847647 77.69877311847647 77.69877311847647 77.69877311847647 77.69877311847647 77.69877311847647 77.69877311847647 77.69877311847647 77.66800952206555 77.66800952206555 77.66800952206555 77.63724592565464 77.63724592565464 77.63724592565464 77.63724592565464 77.63724592565464 77.63724592565464 77.63724592565464 77.63724592565464 77.63724592565464 77.63724592565464 77.60648232924373 77.60648232924373 77.63724592565464 77.63724592565464 77.60648232924373 77.63724592565464 77.60648232924373 77.63724592565464 77.60648232924373 77.60648232924373 77.60648232924373 77.60648232924373 77.60648232924373 77.60648232924373 77.60648232924373 77.57571873283281 77.5449551364219 77.5449551364219 77.51419154001098 77.48342794360008 77.48342794360008 77.48342794360008 77.48342794360008 77.51419154001098 77.48342794360008 77.48342794360008 77.51419154001098 77.48342794360008 77.48342794360008 77.48342794360008 77.48342794360008 77.45266434718914 77.45266434718914 77.42190075077824 77.39113715436733 77.39113715436733 77.36037355795642 77.32960996154551 77.32960996154551 77.29884636513458 77.26808276872367 77.26808276872367 77.26808276872367 77.23731917231275 77.26808276872367 77.23731917231275 77.20655557590185 77.20655557590185 77.17579197949092 77.17579197949092 77.14502838308002 77.14502838308002 77.14502838308002 77.14502838308002 77.14502838308002 77.11426478666911 77.14502838308002 77.14502838308002 77.14502838308002 77.14502838308002 77.08350119025819 77.05273759384727 76.96044680461453 76.8989196117927 76.83739241897088 76.68357443691632 76.52975645486174 76.49899285845083 76.34517487639626 76.1913568943417 76.00677531587621 75.82219373741073 75.69913935176706 75.51455777330159 75.3299761948361 75.20692180919245 74.99157663431606 74.8377586522615 74.653177073796 74.43783189891961 74.28401391686504 74.06866874198865 73.85332356711226 73.69950558505768 73.45339681377037 73.36110602453763 73.20728804248306 72.93041567478483 72.71507049990844 72.53048892144295 72.25361655374473 72.03827137886833 71.76139901117011 71.57681743270463 71.17689067936274 70.93078190807545 70.71543673319906 70.46932796191174 70.28474638344625 70.03863761215894 69.73100164804981 69.51565647317341 69.23878410547519 68.90038454495513 68.68503937007873 68.28511261673685 68.13129463468229 67.76213147775132 67.39296832082036 67.11609595312214 66.74693279619117 66.22395165720565 65.94707928950741 65.54715253616553 65.2395165720564 64.87035341512544 64.62424464383813 64.19355429408533 63.824391137154365 63.48599157663431 63.11682841970335 62.83995605200513 62.5630836843069 62.07086614173228 61.82475737044497 61.547885002746746 61.17872184581578 60.80955868888482 60.56344991759751 60.00970518220106 59.732832814502835 59.332906061160955 58.99450650064091 58.7483977293536 58.40999816883354 57.8562534334371 57.54861746932796 57.179454312397 56.87181834828786 56.41036440212415 56.13349203442593 55.79509247390588 55.11829335286578 54.59531221388024 54.13385826771653 53.64164072514191 53.27247756821095 52.74949642922542 52.16498809741805 51.826588536898 51.39589818714521 51.11902581944699 50.688335469694195 50.31917231276323 49.95000915583226 49.580845998901296 49.30397363120308 48.99633766709394 48.65793810657389 48.35030214246475 47.82732100347921 47.48892144295917 47.18128547885003 46.71983153268632 46.41219556857718 45.88921442959165 45.396996887017025 45.02783373008606 44.535616187511444 44.04339864493682 43.67423548800586 43.24354513825307 42.78209119208936 42.505218824391136 42.105292071049256 41.85918329976195 41.459256546420065 41.090093389489105 40.87474821461271 40.413294268449 40.10565830433986 39.982603918696206 39.674967954587075 39.30580479765611 38.93664164072514 38.65976927302692 38.321369712506865 37.98297015198681 37.61380699505585 37.398461820179456 37.02929866324849 36.78318989196118 36.41402673503021 36.07562717451016 35.82951840322285 35.52188243911371 35.15271928218275 34.937374107306354 34.629738143197216 34.383629371909905 34.075993407800766 33.76835744369163 33.55301226881524 33.39919428676067 33.2453763047061 33.15308551547336 32.99926753341879 32.906976744186046 32.87621314777513 32.814685954953305 32.78392235854239 32.72239516572056 32.69163156930965 32.660867972898735 32.59934078007691 32.568577183665994 32.47628639443325 32.38399560520051 32.29170481596777 32.1378868339132 32.04559604468046 31.984068851858634 31.891778062625892 31.86101446621498 31.86101446621498 31.86101446621498 31.86101446621498 31.830250869804065 31.79948727339315 31.768723676982237 31.70719648416041 31.676432887749495 31.522614905694926 31.430324116462188 31.338033327229446 31.27650613440762 31.21497894158579 31.153451748763963 31.091924555942136 31.030397363120308 30.96887017029848 30.87657938106574 30.845815784654825 30.784288591832997 30.691997802600255 30.630470609778428 30.538179820545686 30.507416224134772 30.415125434902034 30.261307452847465 30.199780260025637 30.169016663614723 30.107489470792896 30.045962277971068 30.045962277971068 30.045962277971068 30.015198681560154 30.015198681560154 29.98443508514924 29.953671488738326 29.953671488738326 29.922907892327412 29.8921442959165 29.861380699505585 29.83061710309467 29.799853506683757 29.769089910272843 29.73832631386193 29.707562717451015 29.646035524629188 29.646035524629188 29.615271928218274 29.615271928218274 29.615271928218274 29.58450833180736 29.58450833180736 29.58450833180736 29.58450833180736 29.58450833180736 29.553744735396446 29.553744735396446 29.553744735396446 29.553744735396446 29.553744735396446 29.553744735396446 29.553744735396446 29.522981138985532 29.522981138985532 29.522981138985532 29.522981138985532 29.522981138985532 29.49221754257462 29.522981138985532 29.49221754257462 29.49221754257462 29.49221754257462 29.461453946163708 29.461453946163708 29.461453946163708 29.461453946163708 29.461453946163708 29.461453946163708 29.430690349752794 29.430690349752794 29.430690349752794 29.430690349752794 29.39992675334188 29.39992675334188 29.39992675334188 29.39992675334188 29.39992675334188 29.39992675334188 29.369163156930966 29.338399560520052 29.338399560520052 29.30763596410914 29.30763596410914 29.30763596410914 29.276872367698225 29.276872367698225 29.24610877128731 29.215345174876397 29.215345174876397 29.215345174876397 29.215345174876397 29.215345174876397 29.215345174876397 29.215345174876397 29.215345174876397 29.215345174876397 29.215345174876397 29.184581578465483 29.215345174876397 29.215345174876397 29.215345174876397 29.215345174876397 29.215345174876397 29.184581578465483 29.184581578465483 29.184581578465483 29.184581578465483 29.184581578465483 29.15381798205457 29.15381798205457 29.15381798205457 29.15381798205457 29.15381798205457 29.15381798205457 29.15381798205457 29.123054385643655 29.123054385643655 29.123054385643655 29.123054385643655 29.123054385643655 29.123054385643655 29.09229078923274 29.123054385643655 29.123054385643655 29.09229078923274 29.123054385643655 29.09229078923274 29.09229078923274 29.123054385643655 29.123054385643655 29.123054385643655 29.09229078923274 29.09229078923274 29.09229078923274 29.09229078923274 29.09229078923274 29.123054385643655 29.123054385643655 29.09229078923274 29.09229078923274 29.09229078923274 29.09229078923274 29.09229078923274 29.09229078923274 29.09229078923274 29.09229078923274 29.09229078923274 29.09229078923274 29.09229078923274 29.09229078923274 29.09229078923274 29.123054385643655 29.09229078923274 29.09229078923274 29.09229078923274 29.09229078923274 29.09229078923274 29.09229078923274 29.09229078923274 29.09229078923274 29.09229078923274 29.09229078923274 29.09229078923274 29.09229078923274 29.09229078923274 29.09229078923274 29.09229078923274 29.09229078923274 29.09229078923274 29.09229078923274 29.09229078923274 29.09229078923274 29.09229078923274 29.09229078923274 29.09229078923274 29.09229078923274 29.09229078923274 29.09229078923274 29.09229078923274 29.09229078923274 29.09229078923274 29.09229078923274 29.09229078923274 29.09229078923274 29.09229078923274 29.09229078923274 29.09229078923274 29.09229078923274 29.09229078923274 29.09229078923274 29.09229078923274 29.09229078923274 29.09229078923274 29.09229078923274 29.09229078923274 29.09229078923274 29.09229078923274 29.09229078923274 29.09229078923274 29.09229078923274 29.09229078923274 29.09229078923274 29.09229078923274 29.09229078923274 29.09229078923274 29.09229078923274 29.09229078923274 29.09229078923274 29.09229078923274 29.09229078923274 29.09229078923274 29.09229078923274 29.09229078923274 29.09229078923274 29.09229078923274 29.09229078923274 29.09229078923274 29.09229078923274 29.09229078923274 29.09229078923274 29.09229078923274 29.09229078923274 29.061527192821828 29.061527192821828 29.061527192821828 29.061527192821828 29.061527192821828 29.061527192821828 29.061527192821828 29.061527192821828 29.061527192821828 29.061527192821828 29.061527192821828 29.061527192821828 29.061527192821828 29.061527192821828 29.061527192821828 29.061527192821828 29.061527192821828 29.061527192821828 29.061527192821828 29.061527192821828 29.061527192821828 29.061527192821828 29.061527192821828 29.061527192821828 29.061527192821828 29.061527192821828 29.061527192821828 29.061527192821828 29.061527192821828 29.061527192821828 29.061527192821828 29.061527192821828 29.061527192821828 29.061527192821828 29.061527192821828 29.030763596410914 29.061527192821828 29.061527192821828 29.061527192821828 29.030763596410914 29.061527192821828 29.061527192821828 29.061527192821828 29.061527192821828 29.061527192821828 29.061527192821828 29.061527192821828 29.061527192821828 29.030763596410914 29.061527192821828 29.061527192821828 29.061527192821828 29.030763596410914 29.030763596410914 29.061527192821828 29.061527192821828 29.061527192821828 29.030763596410914 29.030763596410914 29.030763596410914 29.030763596410914 29.061527192821828 29.030763596410914 29.030763596410914 29.030763596410914 29.030763596410914 29.030763596410914 29.030763596410914 29.030763596410914 29.030763596410914 29.030763596410914 29.0 29.0 29.0 29.0 29.0 29.0 29.0 29.0 29.0 29.0 29.0 29.0 29.0 29.0 29.0 29.0 29.0 29.0 29.0 29.0 29.0 29.0 28.969236403589086 28.969236403589086 28.969236403589086 28.969236403589086 28.969236403589086 28.969236403589086 28.969236403589086 28.969236403589086 28.969236403589086 28.969236403589086 28.969236403589086 28.969236403589086 28.969236403589086 28.969236403589086 28.969236403589086 28.969236403589086 28.969236403589086 28.969236403589086 28.969236403589086 28.969236403589086 28.969236403589086 28.969236403589086 28.969236403589086 28.969236403589086 28.969236403589086 28.969236403589086 28.969236403589086 28.969236403589086 28.969236403589086 28.969236403589086 28.969236403589086 28.969236403589086 28.969236403589086 28.969236403589086 28.969236403589086 28.969236403589086 28.969236403589086 28.969236403589086 28.969236403589086 28.969236403589086 28.969236403589086 28.969236403589086 28.969236403589086 28.969236403589086 28.969236403589086 28.969236403589086 28.969236403589086 28.969236403589086 28.969236403589086 28.969236403589086 28.969236403589086 28.969236403589086 28.969236403589086 28.969236403589086 28.969236403589086 28.969236403589086 28.969236403589086 28.969236403589086 28.969236403589086 28.969236403589086 28.969236403589086 28.969236403589086 28.969236403589086 28.969236403589086 28.969236403589086 28.969236403589086 28.969236403589086 28.969236403589086 28.969236403589086 28.969236403589086 28.969236403589086 28.969236403589086 28.969236403589086 28.969236403589086 28.969236403589086 28.969236403589086 28.969236403589086 28.969236403589086 28.969236403589086 28.969236403589086 28.969236403589086 28.969236403589086 28.969236403589086 28.969236403589086 28.969236403589086 28.969236403589086 28.969236403589086 28.969236403589086 28.969236403589086 28.969236403589086 28.969236403589086 28.969236403589086 28.969236403589086 28.969236403589086 28.969236403589086 28.969236403589086 28.969236403589086 28.969236403589086 28.969236403589086 28.969236403589086 28.969236403589086 28.969236403589086 28.969236403589086 28.969236403589086 28.969236403589086 28.969236403589086 28.969236403589086 28.969236403589086 28.969236403589086 28.969236403589086 28.969236403589086 28.969236403589086 28.969236403589086 28.969236403589086 28.969236403589086 28.969236403589086 28.969236403589086 28.969236403589086 28.969236403589086 28.969236403589086 28.969236403589086 28.969236403589086 28.969236403589086 28.969236403589086 28.969236403589086 28.969236403589086 28.969236403589086 28.969236403589086 28.969236403589086 28.969236403589086 28.969236403589086 28.969236403589086 28.969236403589086 28.969236403589086 28.969236403589086 28.969236403589086 28.969236403589086 28.969236403589086 28.969236403589086 28.969236403589086 28.969236403589086 28.969236403589086 28.969236403589086 28.969236403589086 28.969236403589086 28.969236403589086 28.969236403589086 28.969236403589086 28.969236403589086 28.969236403589086 28.938472807178172 28.969236403589086 28.969236403589086 28.969236403589086 28.969236403589086 28.969236403589086 28.969236403589086 28.969236403589086 28.969236403589086 28.969236403589086 28.969236403589086 28.969236403589086 28.969236403589086 28.969236403589086 28.969236403589086 28.969236403589086 28.969236403589086 28.969236403589086 28.969236403589086 28.969236403589086 28.969236403589086 28.969236403589086 28.969236403589086 28.969236403589086 28.969236403589086 28.969236403589086 28.969236403589086 28.969236403589086 28.969236403589086 28.969236403589086 28.969236403589086 28.969236403589086 28.969236403589086 28.969236403589086 28.969236403589086 28.969236403589086 28.969236403589086 28.969236403589086 28.969236403589086 28.969236403589086 28.969236403589086 28.969236403589086 28.969236403589086 28.969236403589086 28.969236403589086 28.969236403589086 28.969236403589086 28.969236403589086 28.969236403589086 28.969236403589086 28.969236403589086 28.969236403589086 28.969236403589086 28.969236403589086 28.969236403589086 28.969236403589086 28.969236403589086 28.969236403589086 28.969236403589086 28.969236403589086 28.969236403589086 28.969236403589086 28.969236403589086 28.969236403589086 28.969236403589086 28.969236403589086 28.969236403589086 28.969236403589086 28.969236403589086 28.969236403589086 28.969236403589086 28.969236403589086 28.969236403589086 28.969236403589086 28.969236403589086 28.969236403589086 28.969236403589086 28.969236403589086 28.969236403589086 28.938472807178172 28.969236403589086 28.969236403589086 28.969236403589086 28.969236403589086 28.969236403589086 28.969236403589086 28.969236403589086 28.969236403589086 28.969236403589086 28.969236403589086 28.969236403589086 28.969236403589086 28.969236403589086 29.0 28.969236403589086 29.0 29.0 29.0 29.0 29.0 29.0 29.030763596410914 29.030763596410914 29.061527192821828 29.09229078923274 29.09229078923274 29.123054385643655 29.15381798205457 29.184581578465483 29.24610877128731 29.276872367698225 29.30763596410914 29.369163156930966 29.39992675334188 29.430690349752794 29.49221754257462 29.522981138985532 29.58450833180736 29.646035524629188 29.799853506683757 29.8921442959165 29.953671488738326 30.015198681560154 30.107489470792896 30.169016663614723 30.261307452847465 30.38436183849112 30.507416224134772 30.630470609778428 30.81505218824391 30.907342977476652 31.091924555942136 31.184215345174877 31.338033327229446 31.430324116462188 31.522614905694926 31.614905694927668 31.64566929133858 31.737960080571323 31.86101446621498 32.04559604468046 32.168650430324114 32.3532320087896 32.59934078007691 32.99926753341879 33.2453763047061 33.55301226881524 33.89141182933528 34.229811389855335 34.537447353964474 35.029664896539096 35.583409631935545 35.952572788866505 36.32173594579747 36.78318989196118 37.152353048892145 37.767624977110415 38.075260941219554 38.38289690532869 38.875114447903314 39.33656839406702 39.674967954587075 40.10565830433986 40.536348654092656 40.936275407434536 41.18238417872185 41.459256546420065 41.88994689617286 42.28987364951474 42.75132759567845 43.18201794543124 43.612708295184035 43.95110785570408 44.28950741622413 44.75096136238784 45.21241530855154 45.70463285112616 46.0122688152353 46.504486357809924 46.84288591832997 47.304339864493684 47.765793810657385 48.104193371177445 48.565647317341146 48.93481047427211 49.334737227613985 49.76542757736678 50.07306354147592 50.62680827687237 50.903680644570585 51.149789415857896 51.54971616919978 51.949642922541656 52.288042483061716 52.62644204358176 52.87255081486907 53.14942318256729 53.364768357443694 53.64164072514191 53.918513092840136 54.13385826771653 54.41073063541476 54.65683940670207 54.90294817798937 55.11829335286578 55.36440212415309 55.57974729902948 55.79509247390588 55.97967405237136 56.195019227247755 56.53341878776781 56.68723676982238 56.87181834828786 57.179454312397 57.36403589086248 57.57938106573887 57.763962644204355 58.010071415491666 58.22541659036806 58.40999816883354 58.62534334370994 58.809924922175426 58.93297930781908 59.117560886284565 59.2098516755173 59.30214246475004 59.363669657571876 59.39443325398278 59.425196850393704 59.425196850393704 59.425196850393704 59.425196850393704 59.425196850393704 59.425196850393704 59.45596044680461 59.45596044680461 59.45596044680461 59.45596044680461 59.45596044680461 59.45596044680461 59.45596044680461 59.45596044680461 59.45596044680461 59.48672404321553 59.45596044680461 59.45596044680461 59.45596044680461 59.45596044680461 59.45596044680461 59.45596044680461 59.45596044680461 59.45596044680461 59.45596044680461 59.48672404321553 59.48672404321553 59.51748763962644 59.51748763962644 59.51748763962644 59.51748763962644 59.51748763962644 59.51748763962644 59.51748763962644 59.51748763962644 59.48672404321553 59.48672404321553 59.48672404321553 59.48672404321553 59.48672404321553 59.48672404321553 59.48672404321553 59.48672404321553 59.48672404321553 59.48672404321553 59.48672404321553 59.48672404321553 59.48672404321553 59.48672404321553 59.45596044680461 59.425196850393704 59.39443325398278 59.363669657571876 59.30214246475004 59.2098516755173 59.117560886284565 59.025270097051816 58.96374290422999 58.84068851858633 58.779161325764505 58.71763413294268 58.62534334370994 58.563816150888115 58.533052554477194 58.47152536165537 58.44076176524446 58.44076176524446 58.40999816883354 58.40999816883354 58.40999816883354 58.40999816883354 58.40999816883354 58.40999816883354 58.40999816883354 58.40999816883354 58.34847097601172 58.317707379600805 58.25618018677898 58.163889397546235 58.010071415491666 57.88701702984801 57.70243545138253 57.4255630836843 57.210217908807905 56.90258194469877 56.53341878776781 56.25654642006958 55.82585607031679 55.36440212415309 55.026002563633035 54.53378502105841 53.980040285661964 53.580113532320084 52.9340780076909 52.503387657938106 51.79582494048709 50.842153451748764 50.19611792711957 49.70390038454495 48.84251968503936 48.59641091375206 47.88884819630104 47.08899468961728 46.41219556857718 45.76616004394799 45.3354696941952 44.6586705731551 44.074162241347736 43.70499908441677 43.15125434902033 42.78209119208936 42.259110053103825 41.705365317707376 41.27467496795458 40.536348654092656 40.01336751510712 39.82878593664164 39.30580479765611 38.93664164072514 38.38289690532869 37.70609778428859 37.2754074345358 36.81395348837209 36.32173594579747 36.13715436733199 35.64493682475737 35.183482878593665 34.72202893242996 34.29133858267716 33.860648232924376 33.522248672404324 33.214612708295185 33.0300311298297 32.84544955136422 32.69163156930965 32.53781358725508 32.3532320087896 32.23017762314594 32.04559604468046 31.891778062625892 31.79948727339315 31.676432887749495 31.584142098516754 31.461087712873102 31.36879692364036 31.21497894158579 31.12268815235305 31.030397363120308 30.907342977476652 30.81505218824391 30.753524995422083 30.630470609778428 30.5689434169566 30.507416224134772 30.445889031312948 30.415125434902034 30.29207104925838 30.199780260025637 30.07672587438198 29.953671488738326 29.799853506683757 29.6767991210401 29.553744735396446 29.461453946163708 29.369163156930966 29.30763596410914 29.276872367698225 29.24610877128731 29.184581578465483 29.184581578465483 29.15381798205457 29.123054385643655 29.123054385643655 29.123054385643655 29.09229078923274 29.09229078923274 29.061527192821828 29.061527192821828 29.061527192821828 29.030763596410914 29.030763596410914 29.030763596410914 29.030763596410914 29.0 29.0 28.969236403589086 28.969236403589086 28.938472807178172 28.938472807178172 28.90770921076726 28.90770921076726 28.90770921076726 28.90770921076726 28.90770921076726 28.876945614356345 28.876945614356345 28.876945614356345 28.876945614356345 28.84618201794543 28.84618201794543 28.84618201794543 28.84618201794543 28.815418421534517 28.815418421534517 28.815418421534517 28.815418421534517 28.784654825123603 28.784654825123603 28.784654825123603 28.784654825123603 28.784654825123603 28.784654825123603 28.784654825123603 28.784654825123603 28.75389122871269 28.75389122871269 28.75389122871269 28.75389122871269 28.75389122871269 28.75389122871269 28.75389122871269 28.75389122871269 28.75389122871269 28.75389122871269 28.723127632301775 28.723127632301775 28.723127632301775 28.723127632301775 28.723127632301775 28.723127632301775 28.69236403589086 28.723127632301775 28.69236403589086 28.69236403589086 28.69236403589086 28.69236403589086 28.69236403589086 28.69236403589086 28.69236403589086 28.69236403589086 28.69236403589086 28.69236403589086 28.69236403589086 28.69236403589086 28.69236403589086 28.69236403589086 28.69236403589086 28.69236403589086 28.69236403589086 28.69236403589086 28.69236403589086 28.69236403589086 28.69236403589086 28.69236403589086 28.69236403589086 28.69236403589086 28.661600439479948 28.69236403589086 28.661600439479948 28.69236403589086 28.661600439479948 28.661600439479948 28.661600439479948 28.661600439479948 28.661600439479948 28.661600439479948 28.661600439479948 28.661600439479948 28.661600439479948 28.661600439479948 28.661600439479948 28.661600439479948 28.630836843069034 28.630836843069034 28.630836843069034 28.630836843069034 28.630836843069034 28.630836843069034 28.630836843069034 28.630836843069034 28.630836843069034 28.630836843069034 28.630836843069034 28.60007324665812 28.60007324665812 28.630836843069034 28.60007324665812 28.630836843069034 28.60007324665812 28.630836843069034 28.60007324665812 28.60007324665812 28.630836843069034 28.60007324665812 28.60007324665812 28.60007324665812 28.630836843069034 28.60007324665812 28.60007324665812 28.60007324665812 28.60007324665812 28.60007324665812 28.60007324665812 28.630836843069034 28.60007324665812 28.60007324665812 28.60007324665812 28.60007324665812 28.60007324665812 28.60007324665812 28.60007324665812 28.60007324665812 28.569309650247206 28.569309650247206 28.569309650247206 28.569309650247206 28.569309650247206 28.569309650247206 28.569309650247206 28.569309650247206 28.569309650247206 28.569309650247206 28.538546053836292 28.569309650247206 28.538546053836292 28.538546053836292 28.538546053836292 28.538546053836292 28.538546053836292 28.538546053836292 28.538546053836292 28.538546053836292 28.538546053836292 28.538546053836292 28.538546053836292 28.538546053836292 28.538546053836292 28.538546053836292 28.538546053836292 28.538546053836292 28.538546053836292 28.538546053836292 28.538546053836292 28.538546053836292 28.538546053836292 28.538546053836292 28.538546053836292 28.538546053836292 28.538546053836292 28.538546053836292 28.538546053836292 28.538546053836292 28.538546053836292 28.538546053836292 28.538546053836292 28.538546053836292 28.538546053836292 28.538546053836292 28.538546053836292 28.538546053836292 28.538546053836292 28.538546053836292 28.538546053836292 28.538546053836292 28.538546053836292 28.538546053836292 28.538546053836292 28.538546053836292 28.538546053836292 28.50778245742538 28.538546053836292 28.538546053836292 28.538546053836292 28.538546053836292 28.538546053836292 28.538546053836292 28.538546053836292 28.538546053836292 28.538546053836292 28.538546053836292 28.538546053836292 28.538546053836292 28.538546053836292 28.538546053836292 28.538546053836292 28.538546053836292 28.538546053836292 28.538546053836292 28.538546053836292 28.538546053836292 28.538546053836292 28.538546053836292 28.538546053836292 28.538546053836292 28.538546053836292 28.538546053836292 28.538546053836292 28.569309650247206 28.630836843069034 28.69236403589086 28.75389122871269 28.784654825123603 28.84618201794543 28.938472807178172 29.0 29.061527192821828 29.123054385643655 29.184581578465483 29.24610877128731 29.369163156930966 29.461453946163708 29.553744735396446 29.646035524629188 29.73832631386193 29.861380699505585 29.953671488738326 30.045962277971068 30.199780260025637 30.29207104925838 30.445889031312948 30.66123420618934 30.784288591832997 30.96887017029848 31.091924555942136 31.245742537996705 31.36879692364036 31.55337850210584 31.768723676982237 31.984068851858634 32.168650430324114 32.44552279802234 32.660867972898735 33.060794726240616 33.2453763047061 33.42995788317158 33.79912104010255 34.29133858267716 34.629738143197216 35.15271928218275 35.67570042116829 36.1679179637429 36.56784471708478 36.93700787401575 37.4907526094122 37.859915766343164 38.53671488738326 39.028932429957884 39.367331990477936 39.85954953305256 40.16718549716169 40.56711225050357 40.997802600256364 41.3054385643655 41.705365317707376 42.16681926387108 42.412928035158394 42.84361838491119 43.24354513825307 43.64347189159494 43.88958066288225 44.19721662699139 44.59714338033327 44.96630653726424 45.36623329060612 45.76616004394799 46.16608679728987 46.442959164988096 46.750595129097235 47.1197582860282 47.42739425013734 47.98113898553378 48.28877494964292 48.719465299395715 49.119392052737595 49.39626442043581 49.79619117377769 50.042299945065004 50.380699505585056 50.74986266251602 50.995971433803334 51.30360739791247 51.61124336202161 51.85735213330892 52.19575169382897 52.44186046511628 52.78026002563632 53.24171397180004 53.42629555026552 53.85698590001831 54.226149056949275 54.5030214246475 54.933711774400294 55.21058414209851 55.67203808826222 56.13349203442593 56.441127998535066 56.90258194469877 57.36403589086248 57.70243545138253 58.163889397546235 58.47152536165537 58.93297930781908 59.39443325398278 59.76359641091375 60.3173411463102 60.47115912836477 60.932613074528476 61.36330342428126 61.701702984801315 62.13239333455411 62.68613806995056 62.99377403405969 63.424464383812484 63.73210034792162 64.19355429408533 64.50119025819447 64.83958981871451 65.2395165720564 65.60867972898737 65.88555209668559 66.25471525361655 66.53158762131477 66.90075077824574 67.2391503387658 67.48525911005311 67.82365867057315 68.22358542391504 68.50045779161326 68.93114814136604 69.14649331624244 69.51565647317341 69.73100164804981 69.97711041933712 70.31550997985717 70.86925471525362 71.20765427577366 71.69987181834829 72.09979857169017 72.6227797106757 73.20728804248306 73.42263321735945 74.16095953122138 74.6224134773851 74.96081303790514 75.42226698406884 75.66837575535615 76.16059329793077 76.34517487639626 76.59128364768358 76.83739241897088 77.11426478666911 77.29884636513458 77.51419154001098 77.72953671488739 77.88335469694195 77.97564548617468 78.16022706464017 78.28328145028382 78.40633583592748 78.52939022157113 78.68320820362571 78.80626258926935 78.92931697491301 79.05237136055666 79.14466214978941 79.26771653543307 79.36000732466582 79.48306171030947 79.63687969236403 79.72917048159677 79.88298846365134 80.006042849295 80.09833363852775 80.19062442776048 80.2213880241714 80.25215162058231 80.25215162058231 80.25215162058231 80.31367881340414 80.31367881340414 80.37520600622597 80.40596960263687 80.4674967954587 80.52902398828053 80.55978758469143 80.59055118110236 80.65207837392418 80.71360556674601 80.77513275956784 80.86742354880059 80.95971433803334 81.05200512726607 81.1442959164988 81.20582310932063 81.26735030214246 81.26735030214246 81.29811389855337 81.26735030214246 81.26735030214246 81.29811389855337 81.26735030214246 81.26735030214246 81.26735030214246 81.26735030214246 81.26735030214246 81.23658670573155 81.23658670573155 81.23658670573155 81.20582310932063 81.20582310932063 81.20582310932063 81.20582310932063 81.20582310932063 81.20582310932063 81.20582310932063 81.20582310932063 81.1442959164988 81.1442959164988 81.1135323200879 81.08276872367698 81.08276872367698 81.05200512726607 81.02124153085515 80.99047793444424 80.95971433803334 80.8981871452115 80.80589635597875 80.77513275956784 80.68284197033509 80.65207837392418 80.62131477751328 80.59055118110236 80.59055118110236 80.55978758469143 80.55978758469143 80.55978758469143 80.52902398828053 80.52902398828053 80.52902398828053 80.49826039186962 80.4674967954587 80.4367331990478 80.40596960263687 80.37520600622597 80.34444240981506 80.31367881340414 80.25215162058231 80.2213880241714 80.12909723493865 80.09833363852775 80.06757004211681 80.06757004211681 80.0368064457059 80.0368064457059 80.006042849295 80.006042849295 79.97527925288409 79.97527925288409 79.94451565647316 79.91375206006225 79.88298846365134 79.82146127082952 79.7906976744186 79.75993407800769 79.75993407800769 79.72917048159677 79.72917048159677 79.72917048159677 79.72917048159677 79.69840688518586 79.66764328877494 79.66764328877494 79.63687969236403 79.60611609595313 79.54458890313128 79.54458890313128 79.51382530672038 79.48306171030947 79.45229811389855 79.42153451748763 79.36000732466582 79.36000732466582 79.29848013184399 79.29848013184399 79.26771653543307 79.26771653543307 79.26771653543307 79.26771653543307 79.26771653543307 79.26771653543307 79.26771653543307 79.26771653543307 79.26771653543307 79.23695293902216 79.20618934261125 79.17542574620032 79.17542574620032 79.17542574620032 79.17542574620032 79.17542574620032 79.17542574620032 79.17542574620032 79.14466214978941 79.0831349569676 79.02160776414576 78.8985533785021 78.80626258926935 78.74473539644754 78.68320820362571 78.56015381798206 78.49862662516023 78.37557223951657 78.31404504669473 78.22175425746201 78.19099066105107 78.16022706464017 78.12946346822926 78.09869987181834 78.09869987181834 78.09869987181834 78.06793627540742 78.06793627540742 78.03717267899651 78.0064090825856 78.0064090825856 77.94488188976378 77.91411829335286 77.88335469694195 77.82182750412012 77.7910639077092 77.7603003112983 77.72953671488739 77.69877311847647 77.66800952206555 77.66800952206555 77.60648232924373 77.60648232924373 77.57571873283281 77.5449551364219 77.51419154001098 77.48342794360008 77.48342794360008 77.48342794360008 77.48342794360008 77.45266434718914 77.42190075077824 77.42190075077824 77.42190075077824 77.39113715436733 77.39113715436733 77.39113715436733 77.36037355795642 77.32960996154551 77.32960996154551 77.32960996154551 77.32960996154551 77.32960996154551 77.32960996154551 77.32960996154551 77.32960996154551 77.32960996154551 77.29884636513458 77.26808276872367 77.23731917231275 77.23731917231275 77.20655557590185 77.20655557590185 77.20655557590185 77.20655557590185 77.20655557590185 77.17579197949092 77.20655557590185 77.17579197949092 77.17579197949092 77.17579197949092 77.14502838308002 77.14502838308002 77.11426478666911 77.08350119025819 77.05273759384727 77.02197399743636 76.99121040102546 76.92968320820361 76.8989196117927 76.8989196117927 76.8681560153818 76.8681560153818 76.8681560153818 76.83739241897088 76.83739241897088 76.77586522614905 76.74510162973814 76.68357443691632 76.62204724409449 76.59128364768358 76.52975645486174 76.46822926203993 76.40670206921808 76.37593847280718 76.31441127998534 76.28364768357443 76.28364768357443 76.25288408716352 76.25288408716352 76.1913568943417 76.16059329793077 76.12982970151987 76.06830250869804 76.03753891228712 75.94524812305438 75.91448452664346 75.88372093023256 75.82219373741073 75.82219373741073 75.79143014099981 75.7606665445889 75.729902948178 75.729902948178 75.729902948178 75.729902948178 75.69913935176706 75.69913935176706 75.69913935176706 75.66837575535615 75.63761215894525 75.60684856253434 75.5453213697125 75.51455777330159 75.42226698406884 75.36073979124703 75.3299761948361 75.26844900201428 75.23768540560337 75.23768540560337 75.23768540560337 75.23768540560337 75.23768540560337 75.23768540560337 75.23768540560337 75.23768540560337 75.23768540560337 75.20692180919245 75.17615821278153 75.11463101995972 75.0838674235488 75.05310382713789 74.99157663431606 74.93004944149423 74.89928584508331 74.8377586522615 74.80699505585056 74.74546786302875 74.68394067020691 74.6224134773851 74.56088628456325 74.53012268815235 74.46859549533052 74.43783189891961 74.40706830250869 74.31477751327596 74.22248672404322 74.16095953122138 74.03790514557772 73.91485075993407 73.85332356711226 73.79179637429041 73.7302691814686 73.66874198864676 73.60721479582494 73.57645119941402 73.5149240065922 73.45339681377037 73.39186962094854 73.33034242812671 73.23805163889398 73.17652444607214 73.0842336568394 72.99194286760667 72.83812488555209 72.71507049990844 72.5920161142648 72.46896172862114 72.25361655374473 72.03827137886833 71.82292620399194 71.66910822193736 71.42299945065005 71.26918146859549 70.99230910089727 70.65390954037721 70.43856436550081 70.28474638344625 70.03863761215894 69.85405603369347 69.57718366599524 69.39260208752975 69.05420252700969 68.90038454495513 68.74656656290057 68.50045779161326 68.1620582310932 67.97747665262773 67.66984068851858 67.45449551364219 67.20838674235489 66.80845998901299 66.5931148141366 66.37776963926021 66.10089727156199 65.88555209668559 65.57791613257645 65.39333455411096 64.99340780076909 64.80882622230361 64.59348104742722 64.28584508331807 63.978209119208934 63.63980955868888 63.33217359457974 63.08606482329243 62.870719648416035 62.53232008789599 62.31697491301959 62.04010254532137 61.701702984801315 61.45559421351401 61.086431056583045 60.80955868888482 60.440395531953854 60.132759567844715 59.76359641091375 59.363669657571876 59.117560886284565 58.7483977293536 58.37923457242263 58.04083501190259 57.67167185497162 57.4255630836843 57.179454312397 56.81029115546603 56.502655191356894 56.16425563083684 55.641274491851306 55.395165720563995 55.11829335286578 54.9644753708112 54.81065738875664 54.56454861746933 54.2876762497711 54.01080388207288 53.70316791796374 53.518586339498256 53.24171397180004 52.96484160410181 52.78026002563632 52.503387657938106 52.288042483061716 51.98040651895257 51.703534151254345 51.42666178355613 51.08826222303607 50.78062625892693 50.596044680461446 50.31917231276323 50.134590734297745 49.888481963010435 49.61160959531221 49.365500824024906 49.119392052737595 48.84251968503936 48.62717451016297 48.38106573887566 48.104193371177445 47.7965574070683 47.45815784654825 47.212049075260936 46.87364951474089 46.56601355063175 46.350668375755355 46.07379600805713 45.88921442959165 45.61234206189343 45.3354696941952 45.12012451931881 44.90477934444241 44.68943416956601 44.474088994689616 44.25874381981322 44.10492583775865 43.88958066288225 43.581944698773114 43.42812671671855 43.12049075260941 42.93590917414393 42.75132759567845 42.47445522798022 42.22834645669291 42.013001281816514 41.82841970335103 41.67460172129647 41.459256546420065 41.336202160776416 41.15162058231093 40.96703900384545 40.81322102179088 40.597875846914484 40.413294268449 40.1979490935726 39.982603918696206 39.82878593664164 39.61344076176525 39.39809558688884 39.275041201245195 39.028932429957884 38.81358725508149 38.75206006225966 38.59824208020509 38.50595129097235 38.38289690532869 38.25984251968504 38.167551730452296 38.013733748397726 37.89067936275407 37.767624977110415 37.61380699505585 37.4907526094122 37.306171030946714 37.12158945248123 36.96777147042666 36.72166269913935 36.506317524262954 36.26020875297564 36.07562717451016 35.89104559604468 35.706464017579194 35.583409631935545 35.46035524629189 35.27577366782641 35.029664896539096 34.937374107306354 34.8143197216627 34.75279252884087 34.66050173960813 34.5989745467863 34.5989745467863 34.56821095037539 34.50668375755356 34.44515656473173 34.32210217908808 34.26057498626625 34.10675700421168 34.04522981138985 34.01446621497894 33.922175425746204 33.89141182933528 33.829884636513455 33.73759384728072 33.67606665445889 33.64530305804798 33.58377586522615 33.522248672404324 33.460721479582496 33.39919428676067 33.27613990111701 33.18384911188427 33.12232191906244 33.060794726240616 32.968503937007874 32.906976744186046 32.814685954953305 32.78392235854239 32.69163156930965 32.63010437648782 32.53781358725508 32.47628639443325 32.38399560520051 32.32246841237868 32.260941219556855 32.19941402673503 32.107123237502286 32.07635964109137 32.07635964109137 32.04559604468046 32.014832448269544 32.014832448269544 31.984068851858634 31.922541659036806 31.86101446621498 31.768723676982237 31.70719648416041 31.614905694927668 31.55337850210584 31.491851309284012 31.430324116462188 31.338033327229446 31.307269730818533 31.245742537996705 31.153451748763963 31.091924555942136 30.999633766709394 30.938106573887566 30.845815784654825 30.784288591832997 30.691997802600255 30.47665262772386 30.415125434902034 30.322834645669293 30.23054385643655 30.199780260025637 30.07672587438198 30.045962277971068 30.015198681560154 30.015198681560154 29.98443508514924 29.953671488738326 29.922907892327412 29.861380699505585 29.83061710309467 29.799853506683757 29.769089910272843 29.769089910272843 29.73832631386193 29.73832631386193 29.73832631386193 29.73832631386193 29.707562717451015 29.707562717451015 29.707562717451015 29.6767991210401 29.6767991210401 29.6767991210401 29.6767991210401 29.6767991210401 29.646035524629188 29.646035524629188 29.615271928218274 29.58450833180736 29.58450833180736 29.553744735396446 29.522981138985532 29.461453946163708 29.461453946163708 29.430690349752794 29.39992675334188 29.39992675334188 29.369163156930966 29.369163156930966 29.338399560520052 29.338399560520052 29.338399560520052 29.30763596410914 29.30763596410914 29.30763596410914 29.30763596410914 29.30763596410914 29.30763596410914 29.30763596410914 29.30763596410914 29.30763596410914 29.30763596410914 29.30763596410914 29.276872367698225 29.276872367698225 29.276872367698225 29.276872367698225 29.276872367698225 29.276872367698225 29.276872367698225 29.276872367698225 29.276872367698225 29.276872367698225 29.276872367698225 29.276872367698225 29.276872367698225 29.276872367698225 29.276872367698225 29.276872367698225 29.276872367698225 29.276872367698225 29.24610877128731 29.276872367698225 29.276872367698225 29.24610877128731 29.24610877128731 29.24610877128731 29.24610877128731 29.24610877128731 29.24610877128731 29.24610877128731 29.24610877128731 29.24610877128731 29.24610877128731 29.24610877128731 29.24610877128731 29.24610877128731 29.24610877128731 29.215345174876397 29.24610877128731 29.24610877128731 29.24610877128731 29.24610877128731 29.215345174876397 29.24610877128731 29.24610877128731 29.24610877128731 29.24610877128731 29.24610877128731 29.215345174876397 29.215345174876397 29.215345174876397 29.215345174876397 29.215345174876397 29.215345174876397 29.215345174876397 29.215345174876397 29.215345174876397 29.24610877128731 29.215345174876397 29.24610877128731 29.215345174876397 29.215345174876397 29.215345174876397 29.215345174876397 29.215345174876397 29.215345174876397 29.215345174876397 29.215345174876397 29.215345174876397 29.24610877128731 29.215345174876397 29.215345174876397 29.215345174876397 29.215345174876397 29.215345174876397 29.215345174876397 29.215345174876397 29.24610877128731 29.215345174876397 29.215345174876397 29.215345174876397 29.215345174876397 29.215345174876397 29.215345174876397 29.215345174876397 29.215345174876397 29.215345174876397 29.215345174876397 29.215345174876397 29.215345174876397 29.215345174876397 29.215345174876397 29.215345174876397 29.215345174876397 29.215345174876397 29.215345174876397 29.215345174876397 29.215345174876397 29.215345174876397 29.215345174876397 29.215345174876397 29.215345174876397 29.215345174876397 29.215345174876397 29.215345174876397 29.215345174876397 29.215345174876397 29.215345174876397 29.215345174876397 29.215345174876397 29.215345174876397 29.215345174876397 29.215345174876397 29.215345174876397 29.215345174876397 29.215345174876397 29.215345174876397 29.215345174876397 29.215345174876397 29.215345174876397 29.215345174876397 29.215345174876397 29.215345174876397 29.215345174876397 29.215345174876397 29.215345174876397 29.215345174876397 29.215345174876397 29.215345174876397 29.215345174876397 29.215345174876397 29.215345174876397 29.215345174876397 29.215345174876397 29.215345174876397 29.215345174876397 29.215345174876397 29.215345174876397 29.215345174876397 29.215345174876397 29.215345174876397 29.215345174876397 29.215345174876397 29.215345174876397 29.215345174876397 29.215345174876397 29.215345174876397 29.215345174876397 29.215345174876397 29.215345174876397 29.215345174876397 29.215345174876397 29.215345174876397 29.215345174876397 29.215345174876397 29.215345174876397 29.215345174876397 29.215345174876397 29.215345174876397 29.215345174876397 29.215345174876397 29.215345174876397 29.215345174876397 29.215345174876397 29.215345174876397 29.215345174876397 29.215345174876397 29.215345174876397 29.215345174876397 29.215345174876397 29.215345174876397 29.215345174876397 29.215345174876397 29.215345174876397 29.215345174876397 29.215345174876397 29.215345174876397 29.215345174876397 29.215345174876397 29.215345174876397 29.215345174876397 29.215345174876397 29.215345174876397 29.215345174876397 29.215345174876397 29.215345174876397 29.215345174876397 29.215345174876397 29.215345174876397 29.215345174876397 29.215345174876397 29.215345174876397 29.215345174876397 29.215345174876397 29.215345174876397 29.215345174876397 29.215345174876397 29.215345174876397 29.215345174876397 29.215345174876397 29.215345174876397 29.215345174876397 29.215345174876397 29.215345174876397 29.215345174876397 29.215345174876397 29.215345174876397 29.215345174876397 29.215345174876397 29.215345174876397 29.215345174876397 29.215345174876397 29.215345174876397 29.215345174876397 29.215345174876397 29.215345174876397 29.215345174876397 29.215345174876397 29.215345174876397 29.215345174876397 29.215345174876397 29.215345174876397 29.215345174876397 29.215345174876397 29.215345174876397 29.215345174876397 29.215345174876397 29.215345174876397 29.215345174876397 29.215345174876397 29.215345174876397 29.215345174876397 29.215345174876397 29.184581578465483 29.215345174876397 29.215345174876397 29.215345174876397 29.215345174876397 29.215345174876397 29.184581578465483 29.184581578465483 29.15381798205457 29.15381798205457 29.123054385643655 29.123054385643655 29.123054385643655 29.123054385643655 29.123054385643655 29.123054385643655 29.123054385643655 29.123054385643655 29.123054385643655 29.123054385643655 29.123054385643655 29.123054385643655 29.123054385643655 29.123054385643655 29.123054385643655 29.123054385643655 29.123054385643655 29.123054385643655 29.123054385643655 29.123054385643655 29.123054385643655 29.123054385643655 29.123054385643655 29.123054385643655 29.123054385643655 29.123054385643655 29.123054385643655 29.123054385643655 29.123054385643655 29.123054385643655 29.123054385643655 29.123054385643655 29.123054385643655 29.123054385643655 29.123054385643655 29.123054385643655 29.123054385643655 29.123054385643655 29.123054385643655 29.123054385643655 29.123054385643655 29.123054385643655 29.123054385643655 29.123054385643655 29.123054385643655 29.123054385643655 29.123054385643655 29.123054385643655 29.123054385643655 29.123054385643655 29.123054385643655 29.123054385643655 29.123054385643655 29.123054385643655 29.123054385643655 29.123054385643655 29.123054385643655 29.123054385643655 29.123054385643655 29.123054385643655 29.123054385643655 29.123054385643655 29.123054385643655 29.123054385643655 29.123054385643655 29.123054385643655 29.123054385643655 29.123054385643655 29.123054385643655 29.123054385643655 29.123054385643655 29.123054385643655 29.123054385643655 29.123054385643655 29.123054385643655 29.123054385643655 29.123054385643655 29.123054385643655 29.123054385643655 29.123054385643655 29.123054385643655 29.123054385643655 29.123054385643655 29.123054385643655 29.123054385643655 29.123054385643655 29.123054385643655 29.123054385643655 29.123054385643655 29.123054385643655 29.123054385643655 29.123054385643655 29.123054385643655 29.123054385643655 29.123054385643655 29.123054385643655 29.123054385643655 29.123054385643655 29.123054385643655 29.123054385643655 29.123054385643655 29.123054385643655 29.123054385643655 29.123054385643655 29.123054385643655 29.123054385643655 29.123054385643655 29.123054385643655 29.123054385643655 29.123054385643655 29.123054385643655 29.123054385643655 29.09229078923274 29.09229078923274 29.123054385643655 29.123054385643655 29.123054385643655 29.123054385643655 29.123054385643655 29.123054385643655 29.123054385643655 29.123054385643655 29.123054385643655 29.123054385643655 29.123054385643655 29.123054385643655 29.123054385643655 29.123054385643655 29.123054385643655 29.123054385643655 29.09229078923274 29.123054385643655 29.123054385643655 29.09229078923274 29.123054385643655 29.123054385643655 29.123054385643655 29.09229078923274 29.123054385643655 29.123054385643655 29.123054385643655 29.123054385643655 29.123054385643655 29.123054385643655 29.123054385643655 29.123054385643655 29.123054385643655 29.123054385643655 29.123054385643655 29.123054385643655 29.123054385643655 29.123054385643655 29.123054385643655 29.123054385643655 29.123054385643655 29.123054385643655 29.123054385643655 29.09229078923274 29.123054385643655 29.09229078923274 29.123054385643655 29.123054385643655 29.123054385643655 29.123054385643655 29.123054385643655 29.123054385643655 29.123054385643655 29.123054385643655 29.123054385643655 29.123054385643655 29.09229078923274 29.123054385643655 29.123054385643655 29.123054385643655 29.123054385643655 29.123054385643655 29.123054385643655 29.09229078923274 29.123054385643655 29.123054385643655 29.123054385643655 29.123054385643655 29.123054385643655 29.123054385643655 29.09229078923274 29.123054385643655 29.123054385643655 29.09229078923274 29.123054385643655 29.123054385643655 29.09229078923274 29.123054385643655 29.09229078923274 29.123054385643655 29.123054385643655 29.123054385643655 29.09229078923274 29.09229078923274 29.123054385643655 29.123054385643655 29.123054385643655 29.123054385643655 29.123054385643655 29.09229078923274 29.09229078923274 29.123054385643655 29.123054385643655 29.123054385643655 29.123054385643655 29.09229078923274 29.123054385643655 29.09229078923274 29.09229078923274 29.123054385643655 29.09229078923274 29.123054385643655 29.123054385643655 29.123054385643655 29.123054385643655 29.09229078923274 29.09229078923274 29.123054385643655 29.123054385643655 29.123054385643655 29.09229078923274 29.09229078923274 29.09229078923274 29.123054385643655 29.123054385643655 29.123054385643655 29.123054385643655 29.09229078923274 29.123054385643655 29.123054385643655 29.123054385643655 29.123054385643655 29.123054385643655 29.123054385643655 29.09229078923274 29.123054385643655 29.123054385643655 29.123054385643655 29.123054385643655 29.123054385643655 29.123054385643655 29.123054385643655 29.123054385643655 29.09229078923274 29.123054385643655 29.123054385643655 29.123054385643655 29.09229078923274 29.123054385643655 29.123054385643655 29.09229078923274 29.09229078923274 29.09229078923274 29.123054385643655 29.09229078923274 29.123054385643655 29.123054385643655 29.09229078923274 29.09229078923274 29.123054385643655 29.09229078923274 29.09229078923274 29.09229078923274 29.123054385643655 29.09229078923274 29.09229078923274 29.09229078923274 29.09229078923274 29.09229078923274 29.09229078923274 29.09229078923274 29.09229078923274 29.09229078923274 29.09229078923274 29.09229078923274 29.123054385643655 29.09229078923274 29.09229078923274 29.09229078923274 29.09229078923274 29.09229078923274 29.09229078923274 29.09229078923274 29.09229078923274 29.09229078923274 29.09229078923274 29.09229078923274 29.09229078923274 29.09229078923274 29.09229078923274 29.09229078923274 29.09229078923274 29.09229078923274 29.09229078923274 29.09229078923274 29.09229078923274 29.09229078923274 29.09229078923274 29.09229078923274 29.09229078923274 29.09229078923274 29.09229078923274 29.09229078923274 29.09229078923274 29.09229078923274 29.09229078923274 29.09229078923274 29.09229078923274 29.09229078923274 29.09229078923274 29.09229078923274 29.09229078923274 29.09229078923274 29.09229078923274 29.09229078923274 29.09229078923274 29.09229078923274 29.09229078923274 29.09229078923274 29.09229078923274 29.09229078923274 29.09229078923274 29.09229078923274 29.09229078923274 29.09229078923274 29.09229078923274 29.09229078923274 29.09229078923274 29.09229078923274 29.09229078923274 29.09229078923274 29.09229078923274 29.09229078923274 29.09229078923274 29.09229078923274 29.09229078923274 29.09229078923274 29.09229078923274 29.09229078923274 29.09229078923274 29.09229078923274 29.09229078923274 29.09229078923274 29.09229078923274 29.09229078923274 29.09229078923274 29.09229078923274 29.09229078923274 29.09229078923274 29.09229078923274 29.09229078923274 29.09229078923274 29.09229078923274 29.09229078923274 29.09229078923274 29.09229078923274 29.09229078923274 29.09229078923274 29.09229078923274 29.09229078923274 29.09229078923274 29.09229078923274 29.09229078923274 29.09229078923274 29.09229078923274 29.09229078923274 29.09229078923274 29.09229078923274 29.09229078923274 29.09229078923274 29.09229078923274 29.09229078923274 29.09229078923274 29.09229078923274 29.061527192821828 29.09229078923274 29.09229078923274 29.09229078923274 29.061527192821828 29.09229078923274 29.09229078923274 29.09229078923274 29.09229078923274 29.061527192821828 29.09229078923274 29.09229078923274 29.09229078923274 29.09229078923274 29.09229078923274 29.061527192821828 29.09229078923274 29.09229078923274 29.09229078923274 29.09229078923274 29.09229078923274 29.061527192821828 29.09229078923274 29.061527192821828 29.09229078923274 29.061527192821828 29.061527192821828 29.061527192821828 29.061527192821828 29.061527192821828 29.061527192821828 29.061527192821828 29.061527192821828 29.061527192821828 29.061527192821828 29.061527192821828 29.061527192821828 29.061527192821828 29.030763596410914 29.030763596410914 29.030763596410914 29.030763596410914 29.030763596410914 29.030763596410914 29.030763596410914 29.030763596410914 29.030763596410914 29.030763596410914 29.0 29.0 29.0 29.0 29.0 29.0 29.0 29.0 29.0 29.0 29.0 29.0 29.0 29.0 29.0 29.0 29.0 29.0 29.0 29.0 29.0 29.0 29.030763596410914 29.030763596410914 29.030763596410914 29.0 29.0 29.030763596410914 29.030763596410914 29.030763596410914 29.030763596410914 29.030763596410914 29.030763596410914 29.030763596410914 29.030763596410914 29.030763596410914 29.030763596410914 29.061527192821828 29.061527192821828 29.061527192821828 29.061527192821828 29.061527192821828 29.061527192821828 29.09229078923274 29.09229078923274 29.09229078923274 29.061527192821828 29.09229078923274 29.09229078923274 29.09229078923274 29.09229078923274 29.09229078923274 29.09229078923274 29.061527192821828 29.09229078923274 29.09229078923274 29.09229078923274 29.09229078923274 29.09229078923274 29.09229078923274 29.09229078923274 29.123054385643655 29.184581578465483 29.24610877128731 29.369163156930966 29.430690349752794 29.522981138985532 29.58450833180736 29.73832631386193 29.8921442959165 29.98443508514924 30.07672587438198 30.13825306720381 30.199780260025637 30.261307452847465 30.29207104925838 30.353598242080206 30.415125434902034 30.47665262772386 30.5689434169566 30.691997802600255 30.784288591832997 30.87657938106574 30.938106573887566 31.030397363120308 31.153451748763963 31.245742537996705 31.36879692364036 31.461087712873102 31.584142098516754 31.737960080571323 31.95330525544772 32.04559604468046 32.260941219556855 32.414759201611425 32.660867972898735 32.87621314777513 33.15308551547336 33.58377586522615 33.76835744369163 33.922175425746204 34.44515656473173 34.75279252884087 35.09119208936092 35.39882805347006 35.79875480681194 36.26020875297564 36.56784471708478 37.02929866324849 37.459989013001284 37.767624977110415 38.167551730452296 38.475187694561434 38.93664164072514 39.33656839406702 39.79802234023072 40.25947628639443 40.56711225050357 40.843984618201794 41.3054385643655 41.67460172129647 42.28987364951474 42.75132759567845 43.0897271561985 43.581944698773114 44.074162241347736 44.474088994689616 44.81248855520967 45.24317890496246 45.735396447537084 46.2276139901117 46.596777147042665 47.02746749679545 47.550448635780995 47.91961179271196 48.35030214246475 48.6887017029848 49.1501556491485 49.61160959531221 49.980772752243176 50.534517487639626 50.842153451748764 51.211316608679724 51.61124336202161 51.949642922541656 52.38033327229445 52.99560520051273 53.33400476103277 53.85698590001831 54.19538546053836 54.74913019593481 55.149056949276684 55.641274491851306 56.195019227247755 56.748763962644205 57.14869071598608 57.67167185497162 58.04083501190259 58.59457974729903 59.086797289873644 59.45596044680461 59.94817798937923 60.40963193554294 60.80955868888482 61.240249038637614 61.73246658121223 62.16315693096502 62.47079289507416 62.77842885918329 63.39370078740157 63.76286394433254 64.1012635048526 64.62424464383813 64.93188060794725 65.42409815052187 65.9163156930965 66.25471525361655 66.71616919978025 67.2391503387658 67.57754989928584 68.03900384544954 68.3466398095587 68.8388573521333 69.2695477018861 69.57718366599524 70.00787401574803 70.4078007690899 70.8384911188427 71.11536348654093 71.39223585423915 71.97674418604652 72.25361655374473 72.53048892144295 73.02270646401757 73.39186962094854 73.63797839223585 73.97637795275591 74.25325032045413 74.59164988097417 74.89928584508331 75.11463101995972 75.42226698406884 75.60684856253434 75.88372093023256 76.16059329793077 76.37593847280718 76.56052005127265 76.77586522614905 76.92968320820361 77.11426478666911 77.26808276872367 77.45266434718914 77.66800952206555 77.7910639077092 77.97564548617468 78.09869987181834 78.19099066105107 78.34480864310567 78.46786302874932 78.59091741439296 78.74473539644754 78.83702618568027 78.99084416773485 79.17542574620032 79.26771653543307 79.39077092107672 79.51382530672038 79.60611609595313 79.72917048159677 79.82146127082952 80.006042849295 80.12909723493865 80.19062442776048 80.31367881340414 80.40596960263687 80.52902398828053 80.74436916315693 80.86742354880059 80.99047793444424 81.08276872367698 81.1135323200879 81.20582310932063 81.26735030214246 81.26735030214246 81.26735030214246 81.26735030214246 81.26735030214246 81.26735030214246 81.26735030214246 81.26735030214246 81.26735030214246 81.26735030214246 81.26735030214246 81.26735030214246 81.26735030214246 81.26735030214246 81.26735030214246 81.32887749496429 81.35964109137521 81.42116828419702 81.45193188060794 81.48269547701886 81.51345907342977 81.51345907342977 81.51345907342977 81.51345907342977 81.51345907342977 81.51345907342977 81.51345907342977 81.48269547701886 81.51345907342977 81.48269547701886 81.48269547701886 81.48269547701886 81.48269547701886 81.45193188060794 81.45193188060794 81.42116828419702 81.39040468778612 81.29811389855337 81.23658670573155 81.1442959164988 81.1135323200879 81.02124153085515 80.95971433803334 80.9289507416224 80.8981871452115 80.8981871452115 80.86742354880059 80.86742354880059 80.83665995238968 80.83665995238968 80.83665995238968 80.83665995238968 80.83665995238968 80.83665995238968 80.83665995238968 80.80589635597875 80.83665995238968 80.83665995238968 80.83665995238968 80.83665995238968 80.80589635597875 80.80589635597875 80.77513275956784 80.77513275956784 80.74436916315693 80.74436916315693 80.71360556674601 80.68284197033509 80.62131477751328 80.59055118110236 80.55978758469143 80.49826039186962 80.4674967954587 80.4674967954587 80.4367331990478 80.40596960263687 80.40596960263687 80.40596960263687 80.37520600622597 80.34444240981506 80.34444240981506 80.34444240981506 80.34444240981506 80.34444240981506 80.34444240981506 80.34444240981506 80.34444240981506 80.31367881340414 80.34444240981506 80.34444240981506 80.31367881340414 80.34444240981506 80.31367881340414 80.31367881340414 80.31367881340414 80.34444240981506 80.34444240981506 80.31367881340414 80.28291521699322 80.28291521699322 80.28291521699322 80.25215162058231 80.2213880241714 80.19062442776048 80.19062442776048 80.15986083134956 80.15986083134956 80.15986083134956 80.09833363852775 80.06757004211681 80.0368064457059 79.97527925288409 79.97527925288409 79.91375206006225 79.88298846365134 79.85222486724042 79.7906976744186 79.7906976744186 79.75993407800769 79.75993407800769 79.75993407800769 79.72917048159677 79.72917048159677 79.69840688518586 79.63687969236403 79.60611609595313 79.5753524995422 79.5753524995422 79.5753524995422 79.54458890313128 79.51382530672038 79.45229811389855 79.42153451748763 79.39077092107672 79.3292437282549 79.29848013184399 79.26771653543307 79.26771653543307 79.26771653543307 79.23695293902216 79.23695293902216 79.20618934261125 79.20618934261125 79.17542574620032 79.17542574620032 79.17542574620032 79.17542574620032 79.17542574620032 79.17542574620032 79.14466214978941 79.14466214978941 79.17542574620032 79.17542574620032 79.17542574620032 79.17542574620032 79.17542574620032 79.14466214978941 79.14466214978941 79.14466214978941 79.14466214978941 79.14466214978941 79.17542574620032 79.1138985533785 79.1138985533785 79.0831349569676 79.05237136055666 79.02160776414576 78.99084416773485 78.96008057132393 78.96008057132393 78.92931697491301 78.92931697491301 78.92931697491301 78.92931697491301 78.92931697491301 78.92931697491301 78.92931697491301 78.92931697491301 78.92931697491301 78.92931697491301 78.92931697491301 78.92931697491301 78.92931697491301 78.92931697491301 78.8985533785021 78.8985533785021 78.8985533785021 78.8985533785021 78.8985533785021 78.8677897820912 78.8985533785021 78.8985533785021 78.8985533785021 78.8677897820912 78.8985533785021 78.8985533785021 78.8985533785021 78.8985533785021 78.8985533785021 78.8677897820912 78.8677897820912 78.83702618568027 78.83702618568027 78.80626258926935 78.74473539644754 78.71397180003662 78.65244460721479 78.62168101080388 78.59091741439296 78.56015381798206 78.52939022157113 78.49862662516023 78.49862662516023 78.46786302874932 78.46786302874932 78.4370994323384 78.4370994323384 78.4370994323384 78.40633583592748 78.40633583592748 78.40633583592748 78.40633583592748 78.40633583592748 78.37557223951657 78.37557223951657 78.34480864310567 78.34480864310567 78.34480864310567 78.34480864310567 78.31404504669473 78.31404504669473 78.31404504669473 78.28328145028382 78.25251785387292 78.22175425746201 78.19099066105107 78.19099066105107 78.19099066105107 78.19099066105107 78.16022706464017 78.16022706464017 78.16022706464017 78.16022706464017 78.16022706464017 78.12946346822926 78.09869987181834 78.09869987181834 78.06793627540742 78.03717267899651 78.03717267899651 78.0064090825856 78.0064090825856 78.03717267899651 78.03717267899651 78.0064090825856 78.0064090825856 78.0064090825856 77.97564548617468 77.97564548617468 77.97564548617468 77.97564548617468 77.97564548617468 77.97564548617468 77.94488188976378 77.94488188976378 77.91411829335286 77.91411829335286 77.88335469694195 77.88335469694195 77.88335469694195 77.85259110053104 77.85259110053104 77.85259110053104 77.85259110053104 77.82182750412012 77.82182750412012 77.7910639077092 77.7910639077092 77.7910639077092 77.7603003112983 77.7603003112983 77.7603003112983 77.7603003112983 77.7603003112983 77.7603003112983 77.7603003112983 77.7603003112983 77.7603003112983 77.72953671488739 77.72953671488739 77.69877311847647 77.69877311847647 77.69877311847647 77.69877311847647 77.66800952206555 77.63724592565464 77.60648232924373 77.60648232924373 77.5449551364219 77.51419154001098 77.45266434718914 77.42190075077824 77.39113715436733 77.36037355795642 77.36037355795642 77.32960996154551 77.26808276872367 77.23731917231275 77.17579197949092 77.11426478666911 77.05273759384727 77.02197399743636 76.8989196117927 76.80662882255997 76.71433803332724 76.6528108405054 76.56052005127265 76.46822926203993 76.37593847280718 76.28364768357443 76.1913568943417 76.09906610510895 76.03753891228712 75.9760117194653 75.91448452664346 75.85295733382165 75.85295733382165 75.82219373741073 75.7606665445889 75.66837575535615 75.60684856253434 75.45303058047976 75.36073979124703 75.14539461637062 74.99157663431606 74.74546786302875 74.49935909174144 74.28401391686504 73.85332356711226 73.63797839223585 73.42263321735945 73.0842336568394 72.68430690349753 72.34590734297747 72.00750778245742 71.79216260758102 71.5152902398828 71.20765427577366 71.02307269730818 70.77696392602087 70.6231459439663 70.377037172679 70.13092840139169 69.9463468229262 69.76176524446072 69.4848928767625 69.33107489470792 69.17725691265336 69.05420252700969 68.74656656290057 68.56198498443507 68.43893059879143 68.19282182750412 68.00824024903864 67.82365867057315 67.60831349569676 67.48525911005311 67.30067753158761 67.11609595312214 66.99304156747849 66.80845998901299 66.62387841054752 66.43929683208202 66.25471525361655 66.07013367515107 65.82402490386376 65.57791613257645 65.27028016846731 65.02417139718 64.87035341512544 64.74729902948178 64.53195385460538 64.34737227613991 64.00897271561985 63.76286394433254 63.60904596227797 63.36293719099066 63.17835561252517 62.99377403405969 62.68613806995056 62.50155649148507 62.255447720197765 62.009338948910454 61.82475737044497 61.547885002746746 61.30177623145944 61.055667460172124 60.932613074528476 60.778795092473906 60.53268632118659 60.34810474272111 60.16352316425563 59.886650796557404 59.70206921809192 59.54825123603735 59.39443325398278 59.27137886833913 59.05603369346274 58.7483977293536 58.59457974729903 58.317707379600805 58.13312580113532 57.917780626258924 57.67167185497162 57.517853872917044 57.27174510162973 57.02563633034242 56.841054751876946 56.59494598058963 56.37960080571324 56.041201245193186 55.85661966672771 55.67203808826222 55.425929316974916 55.21058414209851 55.05676616004395 54.841420985167545 54.59531221388024 54.34920344259293 54.13385826771653 53.94927668925105 53.70316791796374 53.42629555026552 53.118659586156376 52.84178721845816 52.62644204358176 52.38033327229445 52.103460904596226 51.91887932613075 51.64200695843252 51.3651345907343 51.211316608679724 50.934444240981506 50.78062625892693 50.534517487639626 50.288408716352315 50.134590734297745 49.888481963010435 49.73466398095587 49.427028016846734 49.27321003479216 48.99633766709394 48.719465299395715 48.53488372093023 48.35030214246475 48.011902581944696 47.82732100347921 47.550448635780995 47.24281267167186 47.05823109320637 46.71983153268632 46.504486357809924 46.196850393700785 45.91997802600257 45.70463285112616 45.45852407983885 45.181651712140635 44.90477934444241 44.75096136238784 44.50485259110053 44.32027101263505 44.074162241347736 43.88958066288225 43.581944698773114 43.39736312030763 43.24354513825307 43.058963559787585 42.8743819813221 42.84361838491119 42.59750961362388 42.47445522798022 42.32063724592565 42.16681926387108 42.04376487822743 41.92071049258377 41.7668925105292 41.64383812488555 41.459256546420065 41.27467496795458 41.05932979307819 40.81322102179088 40.6286394433254 40.25947628639443 39.982603918696206 39.76725874381981 39.61344076176525 39.428859183299764 39.21351400842337 39.0596960263688 38.93664164072514 38.81358725508149 38.65976927302692 38.59824208020509 38.38289690532869 38.25984251968504 38.075260941219554 37.89067936275407 37.73686138069951 37.61380699505585 37.4907526094122 37.33693462735763 37.21388024171397 37.12158945248123 36.96777147042666 36.81395348837209 36.72166269913935 36.47555392785204 36.352499542208385 36.13715436733199 35.952572788866505 35.79875480681194 35.55264603552463 35.21424647500458 35.029664896539096 34.783556125251785 34.5989745467863 34.26057498626625 34.075993407800766 34.01446621497894 33.829884636513455 33.76835744369163 33.67606665445889 33.55301226881524 33.49148507599341 33.42995788317158 33.368430690349754 33.30690349752793 33.27613990111701 33.18384911188427 33.15308551547336 33.12232191906244 33.060794726240616 32.99926753341879 32.968503937007874 32.906976744186046 32.84544955136422 32.814685954953305 32.78392235854239 32.69163156930965 32.63010437648782 32.507049990844166 32.44552279802234 32.3532320087896 32.23017762314594 32.107123237502286 32.07635964109137 32.014832448269544 31.984068851858634 31.891778062625892 31.830250869804065 31.768723676982237 31.70719648416041 31.64566929133858 31.55337850210584 31.491851309284012 31.461087712873102 31.399560520051274 31.399560520051274 31.36879692364036 31.307269730818533 31.27650613440762 31.21497894158579 31.12268815235305 31.06116095953122 30.96887017029848 30.907342977476652 30.845815784654825 30.784288591832997 30.72276139901117 30.66123420618934 30.5689434169566 30.507416224134772 30.38436183849112 30.29207104925838 30.199780260025637 30.07672587438198 30.015198681560154 29.98443508514924 29.98443508514924 29.98443508514924 29.953671488738326 29.922907892327412 29.8921442959165 29.861380699505585 29.861380699505585 29.861380699505585 29.83061710309467 29.83061710309467 29.83061710309467 29.83061710309467 29.83061710309467 29.799853506683757 29.799853506683757 29.799853506683757 29.799853506683757 29.799853506683757 29.769089910272843 29.769089910272843 29.73832631386193 29.73832631386193 29.707562717451015 29.707562717451015 29.707562717451015 29.6767991210401 29.6767991210401 29.6767991210401 29.6767991210401 29.6767991210401 29.646035524629188 29.646035524629188 29.646035524629188 29.646035524629188 29.646035524629188 29.646035524629188 29.646035524629188 29.646035524629188 29.615271928218274 29.615271928218274 29.615271928218274 29.615271928218274 29.615271928218274 29.615271928218274 29.615271928218274 29.615271928218274 29.58450833180736 29.615271928218274 29.58450833180736 29.58450833180736 29.58450833180736 29.58450833180736 29.58450833180736 29.58450833180736 29.553744735396446 29.553744735396446 29.553744735396446 29.522981138985532 29.522981138985532 29.522981138985532 29.522981138985532 29.49221754257462 29.49221754257462 29.49221754257462 29.49221754257462 29.49221754257462 29.49221754257462 29.49221754257462 29.49221754257462 29.49221754257462 29.49221754257462 29.461453946163708 29.461453946163708 29.461453946163708 29.461453946163708 29.430690349752794 29.430690349752794 29.430690349752794 29.430690349752794 29.430690349752794 29.430690349752794 29.430690349752794 29.430690349752794 29.39992675334188 29.430690349752794 29.430690349752794 29.39992675334188 29.39992675334188 29.430690349752794 29.39992675334188 29.39992675334188 29.39992675334188 29.39992675334188 29.39992675334188 29.39992675334188 29.39992675334188 29.430690349752794 29.39992675334188 29.39992675334188 29.39992675334188 29.39992675334188 29.39992675334188 29.39992675334188 29.39992675334188 29.39992675334188 29.39992675334188 29.39992675334188 29.39992675334188 29.39992675334188 29.39992675334188 29.39992675334188 29.39992675334188 29.39992675334188 29.39992675334188 29.39992675334188 29.39992675334188 29.369163156930966 29.39992675334188 29.369163156930966 29.369163156930966 29.369163156930966 29.39992675334188 29.369163156930966 29.369163156930966 29.369163156930966 29.369163156930966 29.369163156930966 29.369163156930966 29.369163156930966 29.369163156930966 29.369163156930966 29.369163156930966 29.369163156930966 29.338399560520052 29.338399560520052 29.338399560520052 29.338399560520052 29.338399560520052 29.369163156930966 29.338399560520052 29.338399560520052 29.338399560520052 29.338399560520052 29.338399560520052 29.338399560520052 29.338399560520052 29.338399560520052 29.338399560520052 29.338399560520052 29.338399560520052 29.338399560520052 29.338399560520052 29.338399560520052 29.338399560520052 29.338399560520052 29.338399560520052 29.338399560520052 29.338399560520052 29.338399560520052 29.338399560520052 29.338399560520052 29.338399560520052 29.338399560520052 29.338399560520052 29.338399560520052 29.338399560520052 29.338399560520052 29.338399560520052 29.338399560520052 29.338399560520052 29.338399560520052 29.338399560520052 29.338399560520052 29.338399560520052 29.338399560520052 29.338399560520052 29.338399560520052 29.30763596410914 29.30763596410914 29.30763596410914 29.30763596410914 29.30763596410914 29.30763596410914 29.276872367698225 29.276872367698225 29.276872367698225 29.276872367698225 29.276872367698225 29.276872367698225 29.276872367698225 29.276872367698225 29.24610877128731 29.24610877128731 29.24610877128731 29.24610877128731 29.24610877128731 29.24610877128731 29.24610877128731 29.24610877128731 29.24610877128731 29.24610877128731 29.24610877128731 29.24610877128731 29.24610877128731 29.24610877128731 29.24610877128731 29.24610877128731 29.24610877128731 29.24610877128731 29.24610877128731 29.24610877128731 29.24610877128731 29.24610877128731 29.24610877128731 29.24610877128731 29.24610877128731 29.24610877128731 29.24610877128731 29.24610877128731 29.215345174876397 29.215345174876397 29.215345174876397 29.215345174876397 29.215345174876397 29.215345174876397 29.215345174876397 29.215345174876397 29.215345174876397 29.215345174876397 29.215345174876397 29.215345174876397 29.215345174876397 29.215345174876397 29.215345174876397 29.215345174876397 29.215345174876397 29.215345174876397 29.215345174876397 29.215345174876397 29.215345174876397 29.215345174876397 29.215345174876397 29.215345174876397 29.215345174876397 29.215345174876397 29.215345174876397 29.215345174876397 29.215345174876397 29.215345174876397 29.215345174876397 29.184581578465483 29.215345174876397 29.215345174876397 29.215345174876397 29.215345174876397 29.215345174876397 29.184581578465483 29.215345174876397 29.215345174876397 29.215345174876397 29.215345174876397 29.215345174876397 29.215345174876397 29.215345174876397 29.215345174876397 29.215345174876397 29.215345174876397 29.215345174876397 29.215345174876397 29.184581578465483 29.184581578465483 29.184581578465483 29.15381798205457 29.15381798205457 29.15381798205457 29.15381798205457 29.123054385643655 29.15381798205457 29.123054385643655 29.15381798205457 29.15381798205457 29.123054385643655 29.123054385643655 29.123054385643655 29.15381798205457 29.123054385643655 29.15381798205457 29.123054385643655 29.123054385643655 29.123054385643655 29.123054385643655 29.123054385643655 29.09229078923274 29.09229078923274 29.09229078923274 29.09229078923274 29.09229078923274 29.09229078923274 29.09229078923274 29.09229078923274 29.09229078923274 29.09229078923274 29.09229078923274 29.09229078923274 29.09229078923274 29.09229078923274 29.09229078923274 29.09229078923274 29.09229078923274 29.09229078923274 29.09229078923274 29.09229078923274 29.09229078923274 29.09229078923274 29.09229078923274 29.09229078923274 29.09229078923274 29.09229078923274 29.09229078923274 29.09229078923274 29.09229078923274 29.09229078923274 29.09229078923274 29.09229078923274 29.061527192821828 29.09229078923274 29.061527192821828 29.09229078923274 29.09229078923274 29.09229078923274 29.09229078923274 29.09229078923274 29.09229078923274 29.09229078923274 29.09229078923274 29.09229078923274 29.09229078923274 29.09229078923274 29.09229078923274 29.09229078923274 29.09229078923274 29.09229078923274 29.09229078923274 29.09229078923274 29.09229078923274 29.061527192821828 29.09229078923274 29.09229078923274 29.061527192821828 29.09229078923274 29.09229078923274 29.09229078923274 29.09229078923274 29.09229078923274 29.09229078923274 29.09229078923274 29.09229078923274 29.09229078923274 29.09229078923274 29.09229078923274 29.09229078923274 29.09229078923274 29.09229078923274 29.09229078923274 29.09229078923274 29.09229078923274 29.09229078923274 29.09229078923274 29.09229078923274 29.09229078923274 29.09229078923274 29.09229078923274 29.09229078923274 29.09229078923274 29.09229078923274 29.09229078923274 29.061527192821828 29.09229078923274 29.09229078923274 29.09229078923274 29.09229078923274 29.09229078923274 29.09229078923274 29.061527192821828 29.09229078923274 29.09229078923274 29.09229078923274 29.09229078923274 29.09229078923274 29.09229078923274 29.09229078923274 29.09229078923274 29.09229078923274 29.09229078923274 29.09229078923274 29.09229078923274 29.09229078923274 29.061527192821828 29.09229078923274 29.09229078923274 29.09229078923274 29.09229078923274 29.09229078923274 29.09229078923274 29.09229078923274 29.061527192821828 29.061527192821828 29.09229078923274 29.09229078923274 29.09229078923274 29.09229078923274 29.09229078923274 29.09229078923274 29.09229078923274 29.09229078923274 29.09229078923274 29.061527192821828 29.09229078923274 29.09229078923274 29.09229078923274 29.09229078923274 29.09229078923274 29.061527192821828 29.09229078923274 29.09229078923274 29.09229078923274 29.061527192821828 29.061527192821828 29.061527192821828 29.09229078923274 29.09229078923274 29.09229078923274 29.09229078923274 29.09229078923274 29.09229078923274 29.09229078923274 29.061527192821828 29.09229078923274 29.09229078923274 29.09229078923274 29.09229078923274 29.09229078923274 29.09229078923274 29.09229078923274 29.09229078923274 29.09229078923274 29.09229078923274 29.061527192821828 29.09229078923274 29.09229078923274 29.09229078923274 29.09229078923274 29.09229078923274 29.061527192821828 29.09229078923274 29.061527192821828 29.061527192821828 29.09229078923274 29.09229078923274 29.09229078923274 29.09229078923274 29.061527192821828 29.09229078923274 29.09229078923274 29.09229078923274 29.09229078923274 29.061527192821828 29.09229078923274 29.061527192821828 29.09229078923274 29.09229078923274 29.09229078923274 29.09229078923274 29.09229078923274 29.09229078923274 29.09229078923274 29.09229078923274 29.09229078923274 29.09229078923274 29.061527192821828 29.09229078923274 29.09229078923274 29.09229078923274 29.09229078923274 29.09229078923274 29.09229078923274 29.061527192821828 29.09229078923274 29.09229078923274 29.09229078923274 29.09229078923274 29.09229078923274 29.09229078923274 29.09229078923274 29.09229078923274 29.09229078923274 29.09229078923274 29.09229078923274 29.09229078923274 29.09229078923274 29.09229078923274 29.061527192821828 29.09229078923274 29.061527192821828 29.09229078923274 29.09229078923274 29.09229078923274 29.09229078923274 29.09229078923274 29.09229078923274 29.09229078923274 29.09229078923274 29.061527192821828 29.061527192821828 29.09229078923274 29.09229078923274 29.09229078923274 29.09229078923274 29.09229078923274 29.09229078923274 29.09229078923274 29.09229078923274 29.09229078923274 29.09229078923274 29.09229078923274 29.061527192821828 29.09229078923274 29.09229078923274 29.09229078923274 29.09229078923274 29.09229078923274 29.09229078923274 29.09229078923274 29.09229078923274 29.09229078923274 29.09229078923274 29.09229078923274 29.09229078923274 29.061527192821828 29.061527192821828 29.09229078923274 29.09229078923274 29.061527192821828 29.09229078923274 29.09229078923274 29.09229078923274 29.09229078923274 29.09229078923274 29.09229078923274 29.09229078923274 29.061527192821828 29.09229078923274 29.09229078923274 29.09229078923274 29.09229078923274 29.09229078923274 29.09229078923274 29.09229078923274 29.09229078923274 29.061527192821828 29.09229078923274 29.09229078923274 29.061527192821828 29.061527192821828 29.061527192821828 29.09229078923274 29.061527192821828 29.09229078923274 29.09229078923274 29.09229078923274 29.061527192821828 29.09229078923274 29.09229078923274 29.09229078923274 29.09229078923274 29.09229078923274 29.09229078923274 29.09229078923274 29.061527192821828 29.09229078923274 29.09229078923274 29.09229078923274 29.09229078923274 29.09229078923274 29.09229078923274 29.09229078923274 29.09229078923274 29.061527192821828 29.09229078923274 29.09229078923274 29.09229078923274 29.09229078923274 29.061527192821828 29.09229078923274 29.061527192821828 29.09229078923274 29.09229078923274 29.09229078923274 29.09229078923274 29.061527192821828 29.09229078923274 29.09229078923274 29.09229078923274 29.09229078923274 29.061527192821828 29.061527192821828 29.09229078923274 29.09229078923274 29.09229078923274 29.09229078923274 29.09229078923274 29.061527192821828 29.09229078923274 29.09229078923274 29.061527192821828 29.09229078923274 29.09229078923274 29.09229078923274 29.09229078923274 29.061527192821828 29.09229078923274 29.061527192821828 29.09229078923274 29.061527192821828 29.09229078923274 29.09229078923274 29.061527192821828 29.09229078923274 29.09229078923274 29.09229078923274 29.061527192821828 29.09229078923274 29.061527192821828 29.09229078923274 29.09229078923274 29.09229078923274 29.061527192821828 29.09229078923274 29.09229078923274 29.09229078923274 29.09229078923274 29.09229078923274 29.061527192821828 29.09229078923274 29.09229078923274 29.061527192821828 29.09229078923274 29.09229078923274 29.09229078923274 29.09229078923274 29.09229078923274 29.09229078923274 29.09229078923274 29.09229078923274 29.061527192821828 29.09229078923274 29.09229078923274 29.09229078923274 29.09229078923274 29.061527192821828 29.09229078923274 29.09229078923274 29.061527192821828 29.061527192821828 29.09229078923274 29.061527192821828 29.09229078923274 29.09229078923274 29.061527192821828 29.09229078923274 29.061527192821828 29.09229078923274 29.09229078923274 29.061527192821828 29.09229078923274 29.09229078923274 29.061527192821828 29.09229078923274 29.09229078923274 29.09229078923274 29.061527192821828 29.061527192821828 29.061527192821828 29.061527192821828 29.061527192821828 29.061527192821828 29.061527192821828 29.061527192821828 29.061527192821828 29.061527192821828 29.061527192821828 29.061527192821828 29.061527192821828 29.061527192821828 29.061527192821828 29.061527192821828 29.061527192821828 29.061527192821828 29.061527192821828 29.061527192821828 29.061527192821828 29.061527192821828 29.061527192821828 29.061527192821828 29.061527192821828 29.061527192821828 29.061527192821828 