25.0 25.021973997436366 25.0 25.021973997436366 25.021973997436366 25.0 25.0 25.021973997436366 25.021973997436366 25.021973997436366 25.021973997436366 25.021973997436366 25.021973997436366 25.021973997436366 25.021973997436366 25.021973997436366 25.021973997436366 25.021973997436366 25.021973997436366 25.021973997436366 25.021973997436366 25.021973997436366 25.021973997436366 25.021973997436366 25.021973997436366 25.0 25.0 25.021973997436366 25.021973997436366 25.0 25.021973997436366 25.021973997436366 25.021973997436366 25.021973997436366 25.0 25.021973997436366 25.021973997436366 25.021973997436366 25.0 25.021973997436366 25.021973997436366 25.021973997436366 25.021973997436366 25.021973997436366 25.021973997436366 25.021973997436366 25.021973997436366 25.021973997436366 25.0 25.0 25.021973997436366 25.021973997436366 25.021973997436366 25.021973997436366 25.0 25.021973997436366 25.021973997436366 25.021973997436366 25.021973997436366 25.021973997436366 25.021973997436366 25.021973997436366 25.021973997436366 25.021973997436366 25.021973997436366 25.021973997436366 25.021973997436366 25.0 25.021973997436366 25.021973997436366 25.021973997436366 25.021973997436366 25.021973997436366 25.021973997436366 25.021973997436366 25.021973997436366 25.0 25.021973997436366 25.021973997436366 25.021973997436366 25.0 25.021973997436366 25.021973997436366 25.0 25.021973997436366 25.021973997436366 25.021973997436366 25.021973997436366 25.021973997436366 25.021973997436366 25.021973997436366 25.021973997436366 25.021973997436366 25.021973997436366 25.021973997436366 25.021973997436366 25.021973997436366 25.021973997436366 25.021973997436366 25.0 25.0 25.021973997436366 25.021973997436366 25.0 25.021973997436366 25.0 25.021973997436366 25.0 25.021973997436366 25.021973997436366 25.021973997436366 25.021973997436366 25.0 25.021973997436366 25.021973997436366 25.021973997436366 25.021973997436366 25.021973997436366 25.021973997436366 25.021973997436366 25.021973997436366 25.021973997436366 25.021973997436366 25.021973997436366 25.021973997436366 25.0 25.021973997436366 25.0 25.021973997436366 25.021973997436366 25.021973997436366 25.0 25.021973997436366 25.021973997436366 25.021973997436366 25.0 25.021973997436366 25.021973997436366 25.021973997436366 25.021973997436366 25.021973997436366 25.021973997436366 25.021973997436366 25.021973997436366 25.0 25.021973997436366 25.021973997436366 25.021973997436366 25.0 25.021973997436366 25.021973997436366 25.021973997436366 25.0 25.021973997436366 25.021973997436366 25.0 25.021973997436366 25.021973997436366 25.021973997436366 25.021973997436366 25.021973997436366 25.021973997436366 25.021973997436366 25.0 25.021973997436366 25.0 25.021973997436366 25.021973997436366 25.021973997436366 25.021973997436366 25.0 25.021973997436366 25.021973997436366 25.0 25.0 25.021973997436366 25.021973997436366 25.021973997436366 25.021973997436366 25.021973997436366 25.021973997436366 25.021973997436366 25.021973997436366 25.021973997436366 25.021973997436366 25.021973997436366 25.021973997436366 25.021973997436366 25.021973997436366 25.021973997436366 25.021973997436366 25.021973997436366 25.021973997436366 25.021973997436366 25.021973997436366 25.0 25.021973997436366 25.021973997436366 25.0 25.021973997436366 25.021973997436366 25.021973997436366 25.021973997436366 25.0 25.021973997436366 25.021973997436366 25.021973997436366 25.021973997436366 25.021973997436366 25.021973997436366 25.021973997436366 25.021973997436366 25.021973997436366 25.0 25.0 25.021973997436366 25.0 25.021973997436366 25.0 25.021973997436366 25.021973997436366 25.0 25.021973997436366 25.021973997436366 25.0 25.021973997436366 25.021973997436366 25.0 25.021973997436366 25.0 25.021973997436366 25.0 25.0 25.021973997436366 25.021973997436366 25.0 25.021973997436366 25.021973997436366 25.021973997436366 25.0 25.021973997436366 25.021973997436366 25.0 25.021973997436366 25.021973997436366 25.0 25.021973997436366 25.021973997436366 25.021973997436366 25.021973997436366 25.021973997436366 25.021973997436366 25.021973997436366 25.021973997436366 25.021973997436366 25.021973997436366 25.021973997436366 25.0 25.0 25.021973997436366 25.0 25.021973997436366 25.021973997436366 25.021973997436366 25.021973997436366 25.021973997436366 25.021973997436366 25.021973997436366 25.0 25.021973997436366 25.021973997436366 25.0 25.021973997436366 25.021973997436366 25.021973997436366 25.021973997436366 25.0 25.021973997436366 25.0 25.021973997436366 25.021973997436366 25.021973997436366 25.021973997436366 25.021973997436366 25.021973997436366 25.021973997436366 25.0 25.021973997436366 25.0 25.021973997436366 25.021973997436366 25.021973997436366 25.021973997436366 25.0 25.021973997436366 25.021973997436366 25.0 25.021973997436366 25.021973997436366 25.021973997436366 25.021973997436366 25.021973997436366 25.021973997436366 25.021973997436366 25.0 25.021973997436366 25.021973997436366 25.021973997436366 25.021973997436366 25.021973997436366 25.021973997436366 25.0 25.0 25.0 25.021973997436366 25.021973997436366 25.021973997436366 25.021973997436366 25.021973997436366 25.021973997436366 25.0 25.021973997436366 25.0 25.0 25.021973997436366 25.021973997436366 25.021973997436366 25.021973997436366 25.0 25.0 25.021973997436366 25.021973997436366 25.021973997436366 25.0 25.0 25.021973997436366 25.021973997436366 25.0 25.021973997436366 25.021973997436366 25.021973997436366 25.0 25.021973997436366 25.021973997436366 25.0 25.021973997436366 25.021973997436366 25.021973997436366 25.021973997436366 25.0 25.021973997436366 25.021973997436366 25.0 25.0 25.021973997436366 25.021973997436366 25.0 25.021973997436366 25.021973997436366 25.021973997436366 25.0 25.021973997436366 25.021973997436366 25.021973997436366 25.021973997436366 25.0 25.021973997436366 25.0 25.021973997436366 25.021973997436366 25.0 25.0 25.0 25.0 25.021973997436366 25.021973997436366 25.0 25.021973997436366 25.021973997436366 25.021973997436366 25.021973997436366 25.021973997436366 25.021973997436366 25.021973997436366 25.021973997436366 25.021973997436366 25.021973997436366 25.021973997436366 25.021973997436366 25.021973997436366 25.021973997436366 25.021973997436366 25.021973997436366 25.021973997436366 25.0 25.021973997436366 25.021973997436366 25.0 25.021973997436366 25.021973997436366 25.0 25.021973997436366 25.021973997436366 25.021973997436366 25.021973997436366 25.021973997436366 25.021973997436366 25.021973997436366 25.021973997436366 25.021973997436366 25.021973997436366 25.0 25.021973997436366 25.021973997436366 25.021973997436366 25.021973997436366 25.0 25.021973997436366 25.021973997436366 25.021973997436366 25.021973997436366 25.021973997436366 25.021973997436366 25.021973997436366 25.021973997436366 25.021973997436366 25.021973997436366 25.021973997436366 25.021973997436366 25.021973997436366 25.021973997436366 25.021973997436366 25.0 25.021973997436366 25.0 25.0 25.021973997436366 25.021973997436366 25.021973997436366 25.0 25.021973997436366 25.021973997436366 25.021973997436366 25.021973997436366 25.0 25.021973997436366 25.0 25.021973997436366 25.0 25.021973997436366 25.021973997436366 25.021973997436366 25.0 25.021973997436366 25.021973997436366 25.021973997436366 25.021973997436366 25.021973997436366 25.021973997436366 25.021973997436366 25.0 25.021973997436366 25.021973997436366 25.0 25.0 25.021973997436366 25.021973997436366 25.021973997436366 25.021973997436366 25.021973997436366 25.0 25.021973997436366 25.021973997436366 25.0 25.0 25.021973997436366 25.021973997436366 25.021973997436366 25.021973997436366 25.021973997436366 25.021973997436366 25.0 25.021973997436366 25.021973997436366 25.021973997436366 25.021973997436366 25.0 25.021973997436366 25.021973997436366 25.021973997436366 25.021973997436366 25.021973997436366 25.021973997436366 25.0 25.021973997436366 25.0 25.021973997436366 25.0 25.021973997436366 25.0 25.021973997436366 25.021973997436366 25.0 25.021973997436366 25.021973997436366 25.021973997436366 25.021973997436366 25.021973997436366 25.021973997436366 25.021973997436366 25.021973997436366 25.021973997436366 25.021973997436366 25.021973997436366 25.021973997436366 25.0 25.021973997436366 25.0 25.021973997436366 25.021973997436366 25.021973997436366 25.021973997436366 25.021973997436366 25.0 25.021973997436366 25.0 25.0 25.021973997436366 25.0 25.021973997436366 25.021973997436366 25.021973997436366 25.021973997436366 25.0 25.021973997436366 25.021973997436366 25.0 25.0 25.021973997436366 25.0 25.021973997436366 25.0 25.021973997436366 25.021973997436366 25.0 25.021973997436366 25.021973997436366 25.021973997436366 25.0 25.021973997436366 25.021973997436366 25.021973997436366 25.021973997436366 25.021973997436366 25.021973997436366 25.021973997436366 25.0 25.0 25.021973997436366 25.021973997436366 25.021973997436366 25.021973997436366 25.021973997436366 25.021973997436366 25.021973997436366 25.021973997436366 25.0 25.021973997436366 25.021973997436366 25.021973997436366 25.021973997436366 25.021973997436366 25.021973997436366 25.021973997436366 25.0 25.021973997436366 25.021973997436366 25.021973997436366 25.021973997436366 25.0 25.0 25.021973997436366 25.0 25.021973997436366 25.021973997436366 25.021973997436366 25.0 25.021973997436366 25.021973997436366 25.021973997436366 25.021973997436366 25.021973997436366 25.021973997436366 25.021973997436366 25.021973997436366 25.021973997436366 25.021973997436366 25.021973997436366 25.0 25.0 25.0 25.0 25.021973997436366 25.021973997436366 25.0 25.0 25.0 25.021973997436366 25.0 25.021973997436366 25.021973997436366 25.021973997436366 25.021973997436366 25.021973997436366 25.021973997436366 25.021973997436366 25.021973997436366 25.021973997436366 25.021973997436366 25.0 25.0 25.021973997436366 25.021973997436366 25.0 25.021973997436366 25.021973997436366 25.0 25.021973997436366 25.021973997436366 25.021973997436366 25.021973997436366 25.0 25.021973997436366 25.021973997436366 25.021973997436366 25.021973997436366 25.0 25.021973997436366 25.021973997436366 25.021973997436366 25.0 25.0 25.0 25.021973997436366 25.021973997436366 25.021973997436366 25.021973997436366 25.021973997436366 25.021973997436366 25.021973997436366 25.021973997436366 25.021973997436366 25.021973997436366 25.021973997436366 25.0 25.0 25.021973997436366 25.0 25.021973997436366 25.0 25.021973997436366 25.0 25.021973997436366 25.021973997436366 25.0 25.021973997436366 25.021973997436366 25.0 25.021973997436366 25.021973997436366 25.021973997436366 25.0 25.021973997436366 25.021973997436366 25.021973997436366 25.021973997436366 25.021973997436366 25.0 25.021973997436366 25.021973997436366 25.021973997436366 25.021973997436366 25.021973997436366 25.021973997436366 25.0 25.021973997436366 25.021973997436366 25.0 25.021973997436366 25.021973997436366 25.021973997436366 25.021973997436366 25.021973997436366 25.021973997436366 25.021973997436366 25.0 25.021973997436366 25.021973997436366 25.0 25.021973997436366 25.0 25.021973997436366 25.0 25.0 25.0 25.021973997436366 25.021973997436366 25.021973997436366 25.0 25.021973997436366 25.021973997436366 25.021973997436366 25.021973997436366 25.021973997436366 25.021973997436366 25.021973997436366 25.021973997436366 25.0 25.021973997436366 25.021973997436366 25.021973997436366 25.0 25.0 25.021973997436366 25.0 25.0 25.021973997436366 25.021973997436366 25.021973997436366 25.021973997436366 25.0 25.0 25.021973997436366 25.021973997436366 25.0 25.021973997436366 25.021973997436366 25.021973997436366 25.021973997436366 25.021973997436366 25.021973997436366 25.021973997436366 25.021973997436366 25.021973997436366 25.021973997436366 25.021973997436366 25.021973997436366 25.0 25.0 25.021973997436366 25.021973997436366 25.021973997436366 25.021973997436366 25.0 25.021973997436366 25.021973997436366 25.021973997436366 25.021973997436366 25.0 25.0 25.021973997436366 25.021973997436366 25.0 25.021973997436366 25.021973997436366 25.021973997436366 25.021973997436366 25.021973997436366 25.021973997436366 25.0 25.0 25.021973997436366 25.021973997436366 25.021973997436366 25.021973997436366 25.0 25.021973997436366 25.021973997436366 25.021973997436366 25.021973997436366 25.021973997436366 25.021973997436366 25.0 25.021973997436366 25.021973997436366 25.021973997436366 25.0 25.021973997436366 25.0 25.0 25.021973997436366 25.021973997436366 25.021973997436366 25.021973997436366 25.0 25.021973997436366 25.0 25.021973997436366 25.021973997436366 25.0 25.021973997436366 25.021973997436366 25.021973997436366 25.021973997436366 25.021973997436366 25.021973997436366 25.021973997436366 25.043947994872735 25.0659219923091 25.0659219923091 25.08789598974547 25.08789598974547 25.08789598974547 25.08789598974547 25.08789598974547 25.08789598974547 25.08789598974547 25.08789598974547 25.109869987181835 25.109869987181835 25.109869987181835 25.109869987181835 25.109869987181835 25.109869987181835 25.109869987181835 25.1318439846182 25.15381798205457 25.15381798205457 25.15381798205457 25.175791979490935 25.197765976927304 25.197765976927304 25.21973997436367 25.241713971800035 25.263687969236404 25.28566196667277 25.30763596410914 25.329609961545504 25.35158395898187 25.37355795641824 25.417505951290973 25.461453946163708 25.527375938472808 25.571323933345543 25.637245925654643 25.72514191540011 25.769089910272843 25.835011902581943 25.900933894891047 25.988829884636512 26.098699871818347 26.14264786669108 26.186595861563816 26.252517853872916 26.38436183849112 26.51620582310932 26.626075810291155 26.845815784654825 27.10950375389123 27.395165720564 27.81267167185497 28.25215162058231 29.021241530855153 29.8562534334371 30.405603369346274 31.21864127449185 32.185497161692 32.778795092473906 33.701702984801315 34.38289690532869 35.43764878227431 36.470426661783556 37.48123054385644 38.55795641823842 39.7006042849295 40.49166819263871 41.72221204907526 42.13971800036623 43.85368980040286 45.17212964658488 46.09503753891229 47.50137337483977 48.79783922358543 49.76469511078557 51.03918696209485 51.8082768723677 52.994872733931516 54.22541659036806 54.92858450833181 56.00531038271379 57.389672221204904 58.07086614173228 59.3893059879143 60.026551913568944 60.75169382896905 61.41091375206006 62.37776963926021 63.366599523896724 64.3774034059696 65.05859732649698 66.09137520600623 66.5088811572972 67.51968503937007 68.94799487273393 69.6291887932613 70.63999267533418 71.6288225599707 72.2880424830617 73.18897637795277 74.04596227797106 74.59531221388025 75.40835011902581 75.93572605749863 76.70481596777148 77.23219190624428 78.24299578831716 78.96813770371728 79.45156564731734 79.89104559604468 80.50631752426295 80.9457974729903 81.42922541659037 81.84673136788135 82.22028932429959 82.54989928584509 82.74766526277239 83.01135323200879 83.25306720380883 83.42885918329976 83.67057315509979 83.82439113715438 84.04413111151804 84.15400109869987 84.24189708844534 84.3297930781908 84.3957150704999 84.46163706280902 84.5275590551181 84.59348104742722 84.61545504486358 84.65940303973632 84.65940303973632 84.65940303973632 84.65940303973632 84.65940303973632 84.63742904229994 84.61545504486358 84.59348104742722 84.57150704999086 84.54953305255447 84.54953305255447 84.54953305255447 84.54953305255447 84.54953305255447 84.54953305255447 84.54953305255447 84.54953305255447 84.54953305255447 84.57150704999086 84.54953305255447 84.54953305255447 84.54953305255447 84.54953305255447 84.54953305255447 84.54953305255447 84.54953305255447 84.54953305255447 84.54953305255447 84.54953305255447 84.54953305255447 84.54953305255447 84.54953305255447 84.57150704999086 84.59348104742722 84.59348104742722 84.59348104742722 84.59348104742722 84.59348104742722 84.59348104742722 84.59348104742722 84.59348104742722 84.59348104742722 84.57150704999086 84.57150704999086 84.54953305255447 84.5275590551181 84.50558505768174 84.50558505768174 84.50558505768174 84.50558505768174 84.48361106024538 84.46163706280902 84.43966306537266 84.43966306537266 84.41768906793627 84.3957150704999 84.3957150704999 84.3957150704999 84.3957150704999 84.3957150704999 84.3957150704999 84.3957150704999 84.3957150704999 84.3957150704999 84.3957150704999 84.3957150704999 84.3957150704999 84.3957150704999 84.3957150704999 84.3957150704999 84.3957150704999 84.3957150704999 84.3957150704999 84.3957150704999 84.3957150704999 84.3957150704999 84.3957150704999 84.3957150704999 84.3957150704999 84.3957150704999 84.3957150704999 84.3957150704999 84.3957150704999 84.3957150704999 84.3957150704999 84.3957150704999 84.3957150704999 84.3957150704999 84.3957150704999 84.3957150704999 84.3957150704999 84.3957150704999 84.3957150704999 84.37374107306354 84.37374107306354 84.37374107306354 84.35176707562718 84.35176707562718 84.35176707562718 84.35176707562718 84.35176707562718 84.35176707562718 84.35176707562718 84.35176707562718 84.35176707562718 84.35176707562718 84.35176707562718 84.35176707562718 84.35176707562718 84.35176707562718 84.35176707562718 84.35176707562718 84.35176707562718 84.35176707562718 84.3297930781908 84.3297930781908 84.3297930781908 84.3297930781908 84.3297930781908 84.3297930781908 84.3297930781908 84.3297930781908 84.3297930781908 84.3297930781908 84.3297930781908 84.3297930781908 84.3297930781908 84.3297930781908 84.3297930781908 84.3297930781908 84.3297930781908 84.3297930781908 84.3297930781908 84.3297930781908 84.3297930781908 84.30781908075444 84.30781908075444 84.28584508331807 84.28584508331807 84.28584508331807 84.2638710858817 84.2638710858817 84.2638710858817 84.24189708844534 84.2638710858817 84.2638710858817 84.2638710858817 84.2638710858817 84.2638710858817 84.2638710858817 84.2638710858817 84.2638710858817 84.2638710858817 84.2638710858817 84.2638710858817 84.24189708844534 84.2638710858817 84.2638710858817 84.24189708844534 84.24189708844534 84.24189708844534 84.24189708844534 84.24189708844534 84.24189708844534 84.24189708844534 84.24189708844534 84.24189708844534 84.21992309100898 84.21992309100898 84.1979490935726 84.1979490935726 84.1979490935726 84.15400109869987 84.15400109869987 84.1320271012635 84.1320271012635 84.1320271012635 84.11005310382714 84.08807910639078 84.08807910639078 84.0661051089544 84.0661051089544 84.0661051089544 84.0661051089544 84.0661051089544 84.04413111151804 84.02215711408166 84.0001831166453 83.95623512177258 83.95623512177258 83.89031312946346 83.8683391320271 83.82439113715438 83.802417139718 83.75846914484526 83.7364951474089 83.71452114997254 83.71452114997254 83.71452114997254 83.69254715253618 83.69254715253618 83.69254715253618 83.69254715253618 83.67057315509979 83.64859915766343 83.6046511627907 83.6046511627907 83.56070316791798 83.51675517304523 83.49478117560886 83.4728071781725 83.45083318073613 83.45083318073613 83.42885918329976 83.40688518586339 83.36293719099066 83.31898919611793 83.25306720380883 83.23109320637246 83.16517121406336 83.12122321919063 83.0772752243179 83.05530122688153 83.03332722944516 83.03332722944516 83.01135323200879 83.01135323200879 83.01135323200879 83.01135323200879 83.01135323200879 83.01135323200879 83.01135323200879 83.01135323200879 83.03332722944516 83.01135323200879 82.96740523713606 82.92345724226331 82.87950924739059 82.83556125251786 82.74766526277239 82.68174327046329 82.54989928584509 82.46200329609962 82.35213330891779 82.19831532686322 82.11041933711775 82.00054934993591 81.95660135506317 81.89067936275407 81.82475737044497 81.73686138069951 81.64896539095403 81.56106940120857 81.49514740889947 81.42922541659037 81.34132942684491 81.18751144479035 81.09961545504487 80.98974546786303 80.83592748580847 80.61618751144479 80.46236952939023 80.15473356528108 79.84709760117195 79.62735762680828 79.25379967039004 78.96813770371728 78.59457974729904 78.11115180369896 77.89141182933528 77.64969785753524 77.34206189342612 77.10034792162608 76.77073796008057 76.52902398828054 76.00164804980773 75.65006409082585 75.38637612158945 75.14466214978941 74.88097418055301 74.59531221388025 74.06793627540745 73.7603003112983 73.25489837026186 72.70554843435269 72.31001648049809 71.71671854971618 71.2992125984252 70.70591466764328 70.06866874198866 69.58524079838858 68.9699688701703 68.31074894707929 67.87126899835195 66.99230910089727 66.75059512909723 66.1133492034426 65.49807727522432 65.10254532136972 64.2455594213514 63.586339498260394 63.124885552096686 62.50961362387841 62.20197765976927 61.38893975462369 60.75169382896905 60.290239882805345 59.63101995971434 59.01574803149606 58.59824208020509 57.96099615455045 57.54349020325947 56.906244277604834 56.26899835195019 55.82951840322285 55.25819446987731 54.6648965390954 54.24739058780443 53.324482695477016 52.928950741622415 52.53341878776781 52.18183482878594 51.72038088262223 51.23695293902216 50.88536898004028 50.445889031312944 49.962461087712875 49.742721113349205 49.14942318256729 48.64402124153085 48.29243728254899 47.76506134407617 47.23768540560337 46.86412744918513 46.314777513275956 45.94121955685772 45.36989562351218 44.820545687603 44.4250137337484 43.91961179271196 43.370261856802784 42.82091192089361 42.46932796191174 41.91997802600257 41.59036806445706 41.084966123420614 40.579564182384175 40.096136238784105 39.7665262772386 39.239150338765796 38.71177440029299 38.36019044131112 37.8328145028383 37.327412561801864 36.997802600256364 36.492400659219925 36.14081670023805 35.63541475920161 34.93224684123787 34.62461087712873 34.29500091558323 33.81157297198315 33.48196301043765 33.04248306171031 32.60300311298297 32.185497161692 31.767991210401025 31.482329243728255 31.24061527192822 30.845083318073613 30.44955136421901 30.054019410364404 29.76835744369163 29.328877494964292 28.91137154367332 28.62570957700055 28.208203625709576 27.856619666727706 27.790697674418606 27.614905694927668 27.483061710309467 27.329243728254898 27.17542574620033 27.04358176158213 26.95568577183666 26.845815784654825 26.779893792345725 26.67002380516389 26.626075810291155 26.51620582310932 26.42830983336385 26.36238784105475 26.29646584874565 26.208569859000182 26.120673869254716 26.098699871818347 26.07672587438198 26.01080388207288 25.966855887200147 25.922907892327412 25.856985900018312 25.791063907709212 25.72514191540011 25.637245925654643 25.593297930781908 25.527375938472808 25.43947994872734 25.417505951290973 25.30763596410914 25.28566196667277 25.263687969236404 25.263687969236404 25.241713971800035 25.21973997436367 25.197765976927304 25.197765976927304 25.197765976927304 25.175791979490935 25.175791979490935 25.175791979490935 25.15381798205457 25.15381798205457 25.15381798205457 25.1318439846182 25.1318439846182 25.1318439846182 25.1318439846182 25.109869987181835 25.109869987181835 25.109869987181835 25.109869987181835 25.109869987181835 25.109869987181835 25.109869987181835 25.08789598974547 25.08789598974547 25.08789598974547 25.109869987181835 25.08789598974547 25.08789598974547 25.08789598974547 25.08789598974547 25.08789598974547 25.08789598974547 25.08789598974547 25.08789598974547 25.08789598974547 25.0659219923091 25.08789598974547 25.0659219923091 25.0659219923091 25.0659219923091 25.0659219923091 25.0659219923091 25.0659219923091 25.0659219923091 25.0659219923091 25.0659219923091 25.0659219923091 25.0659219923091 25.0659219923091 25.043947994872735 25.043947994872735 25.043947994872735 25.043947994872735 25.043947994872735 25.043947994872735 25.0659219923091 25.043947994872735 25.0659219923091 25.043947994872735 25.0659219923091 25.043947994872735 25.043947994872735 25.043947994872735 25.043947994872735 25.043947994872735 25.0659219923091 25.043947994872735 25.043947994872735 25.043947994872735 25.043947994872735 25.043947994872735 25.043947994872735 25.043947994872735 25.043947994872735 25.043947994872735 25.043947994872735 25.043947994872735 25.043947994872735 25.043947994872735 25.043947994872735 25.043947994872735 25.043947994872735 25.043947994872735 25.043947994872735 25.043947994872735 25.043947994872735 25.043947994872735 25.043947994872735 25.043947994872735 25.043947994872735 25.043947994872735 25.043947994872735 25.043947994872735 25.043947994872735 25.043947994872735 25.043947994872735 25.043947994872735 25.043947994872735 25.043947994872735 25.043947994872735 25.043947994872735 25.043947994872735 25.043947994872735 25.043947994872735 25.021973997436366 25.021973997436366 25.021973997436366 25.021973997436366 25.043947994872735 25.021973997436366 25.043947994872735 25.021973997436366 25.021973997436366 25.043947994872735 25.021973997436366 25.043947994872735 25.021973997436366 25.021973997436366 25.021973997436366 25.021973997436366 25.021973997436366 25.021973997436366 25.021973997436366 25.021973997436366 25.021973997436366 25.021973997436366 25.021973997436366 25.021973997436366 25.021973997436366 25.021973997436366 25.021973997436366 25.021973997436366 25.021973997436366 25.021973997436366 25.021973997436366 25.021973997436366 25.021973997436366 25.021973997436366 25.021973997436366 25.021973997436366 25.021973997436366 25.021973997436366 25.021973997436366 25.021973997436366 25.021973997436366 25.021973997436366 25.021973997436366 25.021973997436366 25.021973997436366 25.021973997436366 25.021973997436366 25.021973997436366 25.021973997436366 25.021973997436366 25.021973997436366 25.021973997436366 25.021973997436366 25.021973997436366 25.021973997436366 25.021973997436366 25.021973997436366 25.021973997436366 25.021973997436366 25.021973997436366 25.021973997436366 25.021973997436366 25.021973997436366 25.021973997436366 25.021973997436366 25.021973997436366 25.021973997436366 25.021973997436366 25.021973997436366 25.021973997436366 25.021973997436366 25.021973997436366 25.021973997436366 25.021973997436366 25.021973997436366 25.021973997436366 25.021973997436366 25.021973997436366 25.021973997436366 25.021973997436366 25.021973997436366 25.021973997436366 25.021973997436366 25.021973997436366 25.021973997436366 25.021973997436366 25.021973997436366 25.021973997436366 25.021973997436366 25.043947994872735 25.021973997436366 25.021973997436366 25.021973997436366 25.021973997436366 25.021973997436366 25.021973997436366 25.021973997436366 25.021973997436366 25.021973997436366 25.021973997436366 25.021973997436366 25.021973997436366 25.021973997436366 25.021973997436366 25.021973997436366 25.021973997436366 25.021973997436366 25.021973997436366 25.021973997436366 25.021973997436366 25.043947994872735 25.021973997436366 25.021973997436366 25.021973997436366 25.021973997436366 25.021973997436366 25.043947994872735 25.021973997436366 25.021973997436366 25.043947994872735 25.021973997436366 25.021973997436366 25.021973997436366 25.043947994872735 25.021973997436366 25.043947994872735 25.021973997436366 25.021973997436366 25.021973997436366 25.021973997436366 25.021973997436366 25.021973997436366 25.021973997436366 25.021973997436366 25.021973997436366 25.021973997436366 25.043947994872735 25.021973997436366 25.021973997436366 25.043947994872735 25.021973997436366 25.043947994872735 25.043947994872735 25.043947994872735 25.043947994872735 25.043947994872735 25.0659219923091 25.08789598974547 25.109869987181835 25.1318439846182 25.175791979490935 25.197765976927304 25.241713971800035 25.263687969236404 25.263687969236404 25.30763596410914 25.329609961545504 25.37355795641824 25.461453946163708 25.527375938472808 25.703167917963743 25.791063907709212 25.944881889763778 26.14264786669108 26.274491851309286 26.494231825672955 26.845815784654825 27.04358176158213 27.461087712873102 27.68082768723677 28.25215162058231 28.933345541109688 29.41677348470976 30.29573338216444 30.911005310382713 31.46035524629189 32.16352316425563 32.581029115546606 33.48196301043765 34.27302691814686 34.86632484892877 35.72331074894708 36.492400659219925 37.063724592565464 37.87676249771104 38.71177440029299 39.28309833363853 40.162058231093205 40.75535616187511 41.65629005676616 42.27156198498443 43.568027833730085 44.60080571323933 45.34792162607581 46.07306354147592 47.215711408167 48.86376121589453 49.2812671671855 50.533785021058414 51.76432887749496 52.994872733931516 53.785936641640724 55.03845449551364 56.247024354513826 57.08203625709577 58.35652810840505 59.21351400842337 60.94945980589635 61.80644570591467 62.66343160593298 63.89397546236953 65.12451931880608 66.00347921626076 67.34389305987915 68.02508698040651 68.66233290606115 69.51931880607947 70.35433070866142 70.85973264969786 71.58487456509798 72.33199047793445 73.03515839589818 73.4966123420619 74.19978026002565 74.90294817798939 75.34242812671673 76.04559604468047 76.72678996520784 77.21021790880792 77.93535982420804 78.39681377037172 79.12195568577184 79.91301959348105 80.35249954220839 81.05566746017213 81.69291338582677 82.13239333455411 82.59384728071782 83.05530122688153 83.40688518586339 83.71452114997254 83.82439113715438 84.08807910639078 84.35176707562718 84.68137703717268 85.01098699871818 85.27467496795458 85.6702069218092 86.06573887566381 86.37337483977294 86.81285478850029 87.07654275773669 87.42812671671855 87.77971067570043 87.97747665262773 88.24116462186413 88.54880058597325 88.68064457059147 88.83446255264604 88.94433253982787 89.0542025270097 89.16407251419155 89.29591649880975 89.38381248855521 89.47170847830067 89.53763047060978 89.60355246291888 89.64750045779161 89.71342245010072 89.80131843984618 89.84526643471892 89.88921442959166 89.91118842702802 89.91118842702802 89.91118842702802 89.91118842702802 89.91118842702802 89.91118842702802 89.91118842702802 89.91118842702802 89.91118842702802 89.91118842702802 89.91118842702802 89.91118842702802 89.91118842702802 89.91118842702802 89.91118842702802 89.91118842702802 89.91118842702802 89.91118842702802 89.91118842702802 89.91118842702802 89.91118842702802 89.91118842702802 89.91118842702802 89.91118842702802 89.91118842702802 89.91118842702802 89.91118842702802 89.91118842702802 89.91118842702802 89.91118842702802 89.91118842702802 89.91118842702802 89.91118842702802 89.91118842702802 89.91118842702802 89.91118842702802 89.91118842702802 89.91118842702802 89.88921442959166 89.86724043215528 89.86724043215528 89.86724043215528 89.86724043215528 89.86724043215528 89.86724043215528 89.86724043215528 89.86724043215528 89.84526643471892 89.86724043215528 89.86724043215528 89.86724043215528 89.84526643471892 89.86724043215528 89.86724043215528 89.86724043215528 89.86724043215528 89.84526643471892 89.86724043215528 89.86724043215528 89.86724043215528 89.86724043215528 89.86724043215528 89.86724043215528 89.86724043215528 89.86724043215528 89.86724043215528 89.86724043215528 89.86724043215528 89.84526643471892 89.86724043215528 89.86724043215528 89.84526643471892 89.82329243728255 89.82329243728255 89.80131843984618 89.77934444240981 89.77934444240981 89.75737044497345 89.75737044497345 89.73539644753708 89.75737044497345 89.73539644753708 89.73539644753708 89.73539644753708 89.73539644753708 89.73539644753708 89.73539644753708 89.73539644753708 89.75737044497345 89.73539644753708 89.71342245010072 89.69144845266435 89.66947445522798 89.62552646035525 89.62552646035525 89.58157846548252 89.58157846548252 89.58157846548252 89.58157846548252 89.58157846548252 89.58157846548252 89.58157846548252 89.55960446804615 89.58157846548252 89.55960446804615 89.58157846548252 89.58157846548252 89.58157846548252 89.58157846548252 89.58157846548252 89.58157846548252 89.58157846548252 89.58157846548252 89.58157846548252 89.58157846548252 89.55960446804615 89.51565647317341 89.47170847830067 89.42776048342795 89.38381248855521 89.36183849111885 89.33986449368247 89.29591649880975 89.27394250137338 89.25196850393701 89.22999450650065 89.18604651162791 89.16407251419155 89.14209851675518 89.14209851675518 89.09815052188245 89.07617652444607 89.0542025270097 89.0542025270097 89.01025453213697 89.01025453213697 89.01025453213697 88.9882805347006 89.01025453213697 89.01025453213697 88.9882805347006 88.9882805347006 89.01025453213697 88.9882805347006 89.01025453213697 88.9882805347006 88.9882805347006 88.9882805347006 88.9882805347006 89.01025453213697 88.9882805347006 88.96630653726424 88.94433253982787 88.9223585423915 88.8564365500824 88.83446255264604 88.7905145577733 88.74656656290057 88.70261856802784 88.63669657571873 88.61472257828237 88.57077458340964 88.57077458340964 88.54880058597325 88.54880058597325 88.54880058597325 88.54880058597325 88.54880058597325 88.54880058597325 88.54880058597325 88.54880058597325 88.54880058597325 88.54880058597325 88.54880058597325 88.54880058597325 88.54880058597325 88.54880058597325 88.54880058597325 88.54880058597325 88.54880058597325 88.54880058597325 88.54880058597325 88.52682658853689 88.48287859366417 88.4609045962278 88.41695660135505 88.39498260391869 88.37300860648233 88.35103460904597 88.32906061160959 88.32906061160959 88.32906061160959 88.30708661417323 88.30708661417323 88.28511261673685 88.26313861930049 88.26313861930049 88.26313861930049 88.24116462186413 88.24116462186413 88.24116462186413 88.24116462186413 88.24116462186413 88.24116462186413 88.24116462186413 88.21919062442777 88.24116462186413 88.24116462186413 88.21919062442777 88.21919062442777 88.21919062442777 88.21919062442777 88.21919062442777 88.19721662699139 88.17524262955503 88.13129463468229 88.10932063724593 88.08734663980957 88.06537264237319 88.02142464750045 87.99945065006409 87.99945065006409 87.99945065006409 87.97747665262773 87.97747665262773 87.95550265519137 87.95550265519137 87.93352865775499 87.91155466031863 87.88958066288225 87.84563266800953 87.80168467313679 87.75773667826405 87.71378868339133 87.71378868339133 87.69181468595497 87.66984068851858 87.64786669108221 87.62589269364585 87.62589269364585 87.60391869620949 87.62589269364585 87.62589269364585 87.60391869620949 87.60391869620949 87.60391869620949 87.60391869620949 87.60391869620949 87.58194469877311 87.58194469877311 87.58194469877311 87.55997070133675 87.53799670390038 87.53799670390038 87.53799670390038 87.53799670390038 87.51602270646401 87.51602270646401 87.51602270646401 87.51602270646401 87.51602270646401 87.51602270646401 87.51602270646401 87.49404870902765 87.49404870902765 87.49404870902765 87.49404870902765 87.49404870902765 87.47207471159129 87.47207471159129 87.42812671671855 87.40615271928218 87.34023072697309 87.23036073979125 87.16443874748215 87.05456876030031 86.90075077824574 86.7908807910639 86.54916681926387 86.43929683208204 86.21955685771837 85.95586888848196 85.78007690899102 85.49441494231826 85.2087529756455 84.90111701153634 84.59348104742722 84.37374107306354 84.17597509613624 83.84636513459074 83.49478117560886 83.16517121406336 82.96740523713606 82.63779527559055 82.30818531404505 82.06647134224502 81.69291338582677 81.31935542940855 81.03369346273576 80.61618751144479 80.30855154733565 79.84709760117195 79.18787767808094 78.85826771653544 78.52865775498992 78.04522981138985 77.71561984984436 77.276139901117 76.99047793444424 76.39718000366233 75.97967405237137 75.62809009338949 75.29848013184399 74.74913019593481 74.30965024720747 73.51858633949826 73.05713239333456 72.35396447537082 71.65079655740706 71.14539461637062 70.37630470609778 69.65116279069767 69.07983885735213 68.35469694195203 67.80534700604285 67.03625709577 66.22321919062443 65.43215528291522 64.81688335469694 64.06976744186046 63.498443508514924 62.68540560336935 62.15802966489654 61.38893975462369 60.356161875114445 59.850759934078006 59.27943600073247 58.31258011353232 57.78520417505951 56.972166269913934 56.51071232375023 55.74162241347739 54.97253250320454 54.4671305621681 53.632118659586155 53.126716718549716 52.31367881340414 51.43471891594946 50.97326496978575 50.314045046694744 49.676799121040105 49.237319172312766 48.60007324665812 48.20454129280351 47.58926936458524 46.973997436366965 46.33675151071232 45.74345357993042 45.28199963376671 44.66672770554844 44.09540377220289 43.87566379783922 43.01867789782091 42.38143197216627 41.94195202343893 41.26075810291155 40.579564182384175 40.140084233656836 39.48086431056583 39.04138436183849 38.38216443874748 37.7668925105292 37.34938655923823 36.536348654092656 35.94305072331075 35.52554477201978 35.13001281816517 34.69053286943783 34.075260941219554 33.459989013001284 32.800769089910276 32.22944515656473 31.636147225782825 31.28456326680095 30.757187328328143 30.537447353964474 29.878227430873466 29.41677348470976 29.109137520600623 28.69163156930965 28.25215162058231 28.076359641091376 27.90056766160044 27.790697674418606 27.68082768723677 27.483061710309467 27.417139718000367 27.263321735945798 27.065555759018494 26.97765976927303 26.867789782091194 26.80186778978209 26.757919794909355 26.67002380516389 26.626075810291155 26.51620582310932 26.472257828236586 26.406335835927486 26.340413843618386 26.318439846182017 26.252517853872916 26.208569859000182 26.23054385643655 26.23054385643655 26.208569859000182 26.186595861563816 26.164621864127447 26.164621864127447 26.14264786669108 26.14264786669108 26.120673869254716 26.098699871818347 26.07672587438198 26.032777879509247 26.01080388207288 25.988829884636512 25.966855887200147 25.944881889763778 25.900933894891047 25.856985900018312 25.835011902581943 25.791063907709212 25.747115912836477 25.703167917963743 25.65921992309101 25.637245925654643 25.615271928218274 25.571323933345543 25.549349935909174 25.527375938472808 25.50540194103644 25.50540194103644 25.483427943600073 25.483427943600073 25.461453946163708 25.461453946163708 25.461453946163708 25.461453946163708 25.43947994872734 25.43947994872734 25.43947994872734 25.417505951290973 25.417505951290973 25.417505951290973 25.417505951290973 25.395531953854604 25.395531953854604 25.395531953854604 25.395531953854604 25.37355795641824 25.37355795641824 25.37355795641824 25.37355795641824 25.37355795641824 25.37355795641824 25.37355795641824 25.37355795641824 25.37355795641824 25.37355795641824 25.37355795641824 25.37355795641824 25.37355795641824 25.37355795641824 25.35158395898187 25.35158395898187 25.35158395898187 25.35158395898187 25.35158395898187 25.35158395898187 25.35158395898187 25.35158395898187 25.35158395898187 25.35158395898187 25.35158395898187 25.35158395898187 25.35158395898187 25.35158395898187 25.35158395898187 25.35158395898187 25.35158395898187 25.35158395898187 25.35158395898187 25.35158395898187 25.329609961545504 25.35158395898187 25.35158395898187 25.35158395898187 25.35158395898187 25.35158395898187 25.35158395898187 25.35158395898187 25.35158395898187 25.35158395898187 25.35158395898187 25.35158395898187 25.35158395898187 25.35158395898187 25.329609961545504 25.329609961545504 25.329609961545504 25.35158395898187 25.329609961545504 25.35158395898187 25.35158395898187 25.35158395898187 25.35158395898187 25.35158395898187 25.329609961545504 25.329609961545504 25.35158395898187 25.329609961545504 25.329609961545504 25.35158395898187 25.35158395898187 25.35158395898187 25.35158395898187 25.35158395898187 25.35158395898187 25.35158395898187 25.329609961545504 25.35158395898187 25.35158395898187 25.35158395898187 25.35158395898187 25.35158395898187 25.35158395898187 25.35158395898187 25.35158395898187 25.35158395898187 25.35158395898187 25.35158395898187 25.35158395898187 25.35158395898187 25.35158395898187 25.35158395898187 25.35158395898187 25.35158395898187 25.35158395898187 25.35158395898187 25.35158395898187 25.35158395898187 25.37355795641824 25.37355795641824 25.37355795641824 25.37355795641824 25.37355795641824 25.37355795641824 25.37355795641824 25.395531953854604 25.395531953854604 25.395531953854604 25.417505951290973 25.43947994872734 25.483427943600073 25.527375938472808 25.593297930781908 25.637245925654643 25.703167917963743 25.769089910272843 25.878959897454678 26.01080388207288 26.098699871818347 26.208569859000182 26.340413843618386 26.42830983336385 26.58212781541842 26.67002380516389 26.867789782091194 27.02160776414576 27.065555759018494 27.263321735945798 27.548983702618568 27.81267167185497 28.31807361289141 28.97729353598242 29.658487456509796 30.42757736678264 30.976927302691813 31.57022523347372 32.0536531770738 33.130379051455776 33.92144295916499 34.44881889763779 35.21790880791064 35.94305072331075 36.44845266434719 37.28346456692913 37.85478850027467 38.51400842336568 39.34902032594763 39.920344259293174 40.75535616187511 41.91997802600257 42.53524995422084 43.45815784654825 44.02948177989379 44.6887017029848 45.63358359274858 46.27082951840322 47.47939937740341 48.40230726973082 48.99560520051273 49.874565097967405 50.511811023622045 51.36879692364036 52.24775682109504 52.841054751876946 53.74198864676799 54.5989745467863 55.17029848013185 56.33492034425929 56.752426295550265 57.78520417505951 58.26863211865959 58.79600805713239 59.54312396996887 60.312213880241714 61.03735579564182 61.74052371360557 62.15802966489654 62.66343160593298 63.322651529023986 63.828053470060425 64.66306537264236 65.34425929316976 65.80571323933346 66.55282915216993 66.99230910089727 67.69547701886101 68.39864493682475 68.90404687786119 69.65116279069767 70.37630470609778 70.85973264969786 71.56290056766161 72.04632851126168 72.70554843435269 73.40871635231643 73.8262223036074 74.66123420618933 74.92492217542575 75.45229811389855 76.17744002929867 76.50704999084417 76.8146859549533 77.276139901117 77.75956784471708 78.2210217908808 78.5506317524263 79.01208569859 79.47353964475371 79.80314960629921 80.24262955502655 80.66013550631753 80.9457974729903 81.34132942684491 81.60501739608131 81.95660135506317 82.28621131660869 82.46200329609962 82.63779527559055 82.74766526277239 83.03332722944516 83.36293719099066 83.58267716535434 83.9342611243362 84.17597509613624 84.5275590551181 84.74729902948178 85.05493499359092 85.36257095770006 85.62625892693646 85.8020509064274 85.9998168833547 86.15363486540927 86.21955685771837 86.28547885002747 86.32942684490021 86.35140084233657 86.32942684490021 86.32942684490021 86.35140084233657 86.35140084233657 86.35140084233657 86.35140084233657 86.35140084233657 86.35140084233657 86.35140084233657 86.35140084233657 86.35140084233657 86.35140084233657 86.32942684490021 86.35140084233657 86.35140084233657 86.32942684490021 86.30745284746384 86.2635048525911 86.24153085515474 86.21955685771837 86.19758286028201 86.19758286028201 86.17560886284564 86.17560886284564 86.15363486540927 86.15363486540927 86.19758286028201 86.15363486540927 86.17560886284564 86.17560886284564 86.17560886284564 86.15363486540927 86.15363486540927 86.15363486540927 86.15363486540927 86.15363486540927 86.15363486540927 86.1316608679729 86.10968687053654 86.10968687053654 86.08771287310017 86.06573887566381 86.06573887566381 86.06573887566381 86.02179088079106 86.02179088079106 85.97784288591834 85.95586888848196 85.9338948910456 85.9338948910456 85.9338948910456 85.9338948910456 85.9338948910456 85.9338948910456 85.9338948910456 85.9338948910456 85.9338948910456 85.9338948910456 85.9338948910456 85.9338948910456 85.9338948910456 85.88994689617286 85.8679728987365 85.8020509064274 85.78007690899102 85.75810291155466 85.7361289141183 85.69218091924556 85.6702069218092 85.6042849295001 85.56033693462736 85.51638893975462 85.49441494231826 85.4724409448819 85.45046694744553 85.45046694744553 85.45046694744553 85.4065189525728 85.36257095770006 85.3405969602637 85.31862296282733 85.29664896539094 85.25270097051822 85.18677897820913 85.14283098333638 85.09888298846366 85.05493499359092 84.96703900384546 84.92309100897272 84.87914301409998 84.85716901666362 84.83519501922726 84.81322102179088 84.79124702435452 84.79124702435452 84.79124702435452 84.79124702435452 84.79124702435452 84.76927302691814 84.76927302691814 84.74729902948178 84.72532503204542 84.72532503204542 84.68137703717268 84.63742904229994 84.61545504486358 84.59348104742722 84.57150704999086 84.54953305255447 84.54953305255447 84.5275590551181 84.48361106024538 84.43966306537266 84.43966306537266 84.3957150704999 84.3957150704999 84.35176707562718 84.35176707562718 84.35176707562718 84.35176707562718 84.3297930781908 84.30781908075444 84.28584508331807 84.30781908075444 84.28584508331807 84.28584508331807 84.2638710858817 84.2638710858817 84.24189708844534 84.24189708844534 84.21992309100898 84.21992309100898 84.21992309100898 84.21992309100898 84.1979490935726 84.21992309100898 84.17597509613624 84.1979490935726 84.17597509613624 84.15400109869987 84.1320271012635 84.15400109869987 84.1320271012635 84.1320271012635 84.1320271012635 84.1320271012635 84.1320271012635 84.1320271012635 84.11005310382714 84.08807910639078 84.08807910639078 84.0661051089544 84.04413111151804 84.02215711408166 84.02215711408166 84.0001831166453 83.97820911920894 83.95623512177258 83.9342611243362 83.9342611243362 83.91228712689984 83.91228712689984 83.89031312946346 83.89031312946346 83.8683391320271 83.82439113715438 83.82439113715438 83.82439113715438 83.82439113715438 83.82439113715438 83.82439113715438 83.82439113715438 83.78044314228164 83.75846914484526 83.75846914484526 83.7364951474089 83.7364951474089 83.69254715253618 83.69254715253618 83.64859915766343 83.64859915766343 83.64859915766343 83.62662516022706 83.62662516022706 83.6046511627907 83.6046511627907 83.6046511627907 83.6046511627907 83.56070316791798 83.56070316791798 83.56070316791798 83.53872917048159 83.53872917048159 83.51675517304523 83.49478117560886 83.45083318073613 83.40688518586339 83.38491118842703 83.3409631935543 83.29701519868156 83.29701519868156 83.25306720380883 83.23109320637246 83.2091192089361 83.16517121406336 83.09924922175426 83.03332722944516 82.96740523713606 82.98937923457243 82.98937923457243 82.9454312396997 82.90148324482695 82.79161325764511 82.61582127815419 82.41805530122689 82.19831532686322 82.02252334737227 81.84673136788135 81.56106940120857 81.25343343709943 80.9457974729903 80.72605749862663 80.37447353964475 80.00091558322652 79.75920161142648 79.36366965757188 78.96813770371728 78.70444973448086 78.2869437831899 77.97930781908076 77.51785387291704 76.90258194469877 76.57297198315328 76.28731001648049 75.78190807544406 75.45229811389855 74.99084416773485 74.66123420618933 73.98004028566197 73.4306903497528 73.07910639077092 72.70554843435269 71.95843252151622 71.54092657022522 70.9696026368797 70.55209668558872 69.91485075993407 69.27760483427943 68.8381248855521 68.17890496246109 67.54165903680644 67.08020509064274 66.15729719831532 65.89360922907892 65.19044131111518 64.46529939571508 63.95989745467863 63.16883354696942 62.42171763413294 61.80644570591467 61.08130379051456 60.004577916132575 59.521149972532506 58.68613806995056 58.31258011353232 57.87310016480498 57.36769822376854 56.51071232375023 55.63175242629555 55.08240249038637 53.961728621131655 52.81908075444058 52.1378868339132 51.30287493133126 50.86339498260392 50.248123054385644 49.89653909540377 49.676799121040105 48.88573521333089 48.42428126716719 47.87493133125801 46.754257462003295 46.22688152353049 45.72147958249405 45.0183116645303 44.271195751693824 43.655923823475554 42.97472990294818 42.51327595678447 41.83208203625709 41.59036806445706 40.667460172129644 40.030214246475005 39.5687603003113 38.90954037722029 38.25032045412928 37.81084050540194 37.129646584874564 36.668192638710856 35.96502472074712 35.23988280534701 34.80040285661967 34.009338948910454 33.416041018128546 32.97656106940121 32.33931514374657 31.921809192455594 31.46035524629189 30.911005310382713 30.29573338216444 29.438747482146127 29.021241530855153 28.581761582127815 28.142281633400476 28.05438564365501 27.856619666727706 27.68082768723677 27.570957700054933 27.417139718000367 27.285295733382164 27.17542574620033 26.999633766709394 26.933711774400294 26.867789782091194 26.80186778978209 26.779893792345725 26.73594579747299 26.73594579747299 26.713971800036624 26.691997802600255 26.67002380516389 26.648049807727524 26.60410181285479 26.560153817982055 26.494231825672955 26.45028383080022 26.406335835927486 26.38436183849112 26.36238784105475 26.36238784105475 26.340413843618386 26.318439846182017 26.29646584874565 26.274491851309286 26.23054385643655 26.208569859000182 26.164621864127447 26.14264786669108 26.14264786669108 26.14264786669108 26.120673869254716 26.120673869254716 26.098699871818347 26.054751876945616 26.054751876945616 26.032777879509247 25.988829884636512 25.988829884636512 25.966855887200147 25.944881889763778 25.944881889763778 25.944881889763778 25.944881889763778 25.944881889763778 25.944881889763778 25.944881889763778 25.944881889763778 25.944881889763778 25.944881889763778 25.944881889763778 25.944881889763778 25.922907892327412 25.922907892327412 25.944881889763778 25.922907892327412 25.944881889763778 25.922907892327412 25.922907892327412 25.922907892327412 25.922907892327412 25.922907892327412 25.922907892327412 25.922907892327412 25.922907892327412 25.922907892327412 25.900933894891047 25.900933894891047 25.900933894891047 25.900933894891047 25.900933894891047 25.900933894891047 25.900933894891047 25.900933894891047 25.900933894891047 25.900933894891047 25.900933894891047 25.900933894891047 25.900933894891047 25.900933894891047 25.900933894891047 25.922907892327412 25.900933894891047 25.900933894891047 25.900933894891047 25.900933894891047 25.900933894891047 25.900933894891047 25.922907892327412 25.900933894891047 25.900933894891047 25.900933894891047 25.922907892327412 25.900933894891047 25.900933894891047 25.900933894891047 25.900933894891047 25.900933894891047 25.900933894891047 25.900933894891047 25.900933894891047 25.900933894891047 25.900933894891047 25.900933894891047 25.878959897454678 25.878959897454678 25.878959897454678 25.878959897454678 25.878959897454678 25.856985900018312 25.856985900018312 25.856985900018312 25.856985900018312 25.856985900018312 25.856985900018312 25.856985900018312 25.856985900018312 25.856985900018312 25.878959897454678 25.856985900018312 25.856985900018312 25.856985900018312 25.856985900018312 25.835011902581943 25.835011902581943 25.835011902581943 25.835011902581943 25.835011902581943 25.835011902581943 25.835011902581943 25.835011902581943 25.835011902581943 25.835011902581943 25.835011902581943 25.835011902581943 25.835011902581943 25.813037905145578 25.835011902581943 25.835011902581943 25.835011902581943 25.835011902581943 25.835011902581943 25.835011902581943 25.813037905145578 25.813037905145578 25.813037905145578 25.813037905145578 25.813037905145578 25.813037905145578 25.813037905145578 25.813037905145578 25.813037905145578 25.813037905145578 25.813037905145578 25.813037905145578 25.791063907709212 25.791063907709212 25.791063907709212 25.769089910272843 25.769089910272843 25.769089910272843 25.769089910272843 25.769089910272843 25.791063907709212 25.769089910272843 25.769089910272843 25.769089910272843 25.769089910272843 25.769089910272843 25.769089910272843 25.769089910272843 25.769089910272843 25.769089910272843 25.791063907709212 25.769089910272843 25.769089910272843 25.769089910272843 25.769089910272843 25.769089910272843 25.791063907709212 25.791063907709212 25.769089910272843 25.791063907709212 25.769089910272843 25.769089910272843 25.769089910272843 25.769089910272843 25.791063907709212 25.769089910272843 25.769089910272843 25.791063907709212 25.791063907709212 25.791063907709212 25.791063907709212 25.769089910272843 25.791063907709212 25.791063907709212 25.813037905145578 25.813037905145578 25.813037905145578 25.835011902581943 25.856985900018312 25.856985900018312 25.900933894891047 25.922907892327412 25.944881889763778 25.988829884636512 26.01080388207288 26.054751876945616 26.098699871818347 26.14264786669108 26.208569859000182 26.318439846182017 26.38436183849112 26.494231825672955 26.560153817982055 26.67002380516389 26.80186778978209 26.88976377952756 27.087529756454863 27.263321735945798 27.373191723127633 27.592931697491302 27.790697674418606 28.05438564365501 28.40596960263688 28.69163156930965 29.175059512909723 29.724409448818896 30.119941402673504 30.691265336019043 31.130745284746382 31.702069218091925 32.36128914118294 32.84471708478301 33.591832997619484 34.36092290789233 35.17396081303791 35.986998718183486 36.426478666910825 37.129646584874564 38.29426844900202 38.90954037722029 39.524812305438566 40.601538179820544 41.17286211316609 42.0298480131844 42.57919794909357 43.414209851675515 44.24922175425746 44.820545687603 45.65555759018495 46.22688152353049 47.083867423548796 47.94085332356711 48.57809924922175 49.4131111518037 50.270097051822006 50.86339498260392 51.96209485442226 52.51144479033144 53.060794726240616 54.137520600622594 54.6648965390954 55.17029848013185 55.93938839040469 56.70847830067753 57.45559421351401 57.98297015198681 58.73008606482329 59.521149972532506 60.092473905878045 60.90551181102362 61.43288774949643 61.7844717084783 62.37776963926021 62.72935359824208 63.278703534151255 63.89397546236953 64.42135140084233 65.12451931880608 65.93755722395166 66.4429591649881 67.47573704449735 67.95916498809743 68.75022889580663 69.4973448086431 69.87090276506135 70.53012268815235 71.25526460355246 71.98040651895258 72.66160043947995 73.1010803882073 73.6943783189892 74.33162424464385 74.92492217542575 75.21058414209853 75.89177806262589 76.28731001648049 76.79271195751694 77.1442959164988 77.67167185497162 78.37483977293536 78.72642373191724 79.1439296832082 79.69327961911739 80.06683757553562 80.61618751144479 81.09961545504487 81.53909540377221 81.86870536531771 82.19831532686322 82.59384728071782 82.90148324482695 83.58267716535434 84.11005310382714 84.43966306537266 84.92309100897272 85.42849295000916 85.95586888848196 86.48324482695477 86.83482878593665 87.16443874748215 87.66984068851858 87.73576268082769 88.02142464750045 88.28511261673685 88.39498260391869 88.52682658853689 88.57077458340964 88.63669657571873 88.7245925654642 88.76854056033693 88.81248855520967 88.83446255264604 88.8564365500824 88.87841054751877 88.87841054751877 88.90038454495513 88.87841054751877 88.90038454495513 88.87841054751877 88.87841054751877 88.87841054751877 88.87841054751877 88.87841054751877 88.83446255264604 88.81248855520967 88.81248855520967 88.7905145577733 88.7905145577733 88.7905145577733 88.7905145577733 88.7905145577733 88.7905145577733 88.7905145577733 88.7905145577733 88.7905145577733 88.7905145577733 88.7905145577733 88.7905145577733 88.7905145577733 88.76854056033693 88.74656656290057 88.74656656290057 88.74656656290057 88.74656656290057 88.74656656290057 88.74656656290057 88.74656656290057 88.74656656290057 88.74656656290057 88.7245925654642 88.70261856802784 88.6586705731551 88.61472257828237 88.57077458340964 88.48287859366417 88.43893059879144 88.32906061160959 88.30708661417323 88.26313861930049 88.21919062442777 88.21919062442777 88.19721662699139 88.19721662699139 88.19721662699139 88.19721662699139 88.21919062442777 88.19721662699139 88.19721662699139 88.17524262955503 88.15326863211865 88.13129463468229 88.08734663980957 88.04339864493683 87.99945065006409 87.91155466031863 87.91155466031863 87.86760666544589 87.86760666544589 87.86760666544589 87.86760666544589 87.84563266800953 87.82365867057317 87.82365867057317 87.80168467313679 87.77971067570043 87.71378868339133 87.69181468595497 87.64786669108221 87.62589269364585 87.60391869620949 87.58194469877311 87.55997070133675 87.55997070133675 87.51602270646401 87.51602270646401 87.51602270646401 87.51602270646401 87.49404870902765 87.51602270646401 87.49404870902765 87.47207471159129 87.42812671671855 87.38417872184581 87.34023072697309 87.29628273210035 87.20838674235489 87.18641274491851 87.16443874748215 87.12049075260941 87.09851675517305 87.09851675517305 87.07654275773669 87.07654275773669 87.07654275773669 87.07654275773669 87.05456876030031 87.03259476286395 86.98864676799121 86.96667277055485 86.94469877311849 86.94469877311849 86.90075077824574 86.85680278337301 86.81285478850029 86.76890679362754 86.76890679362754 86.76890679362754 86.72495879875481 86.72495879875481 86.72495879875481 86.70298480131844 86.70298480131844 86.68101080388207 86.63706280900934 86.63706280900934 86.61508881157297 86.57114081670024 86.50521882439114 86.43929683208204 86.41732283464567 86.32942684490021 86.30745284746384 86.2635048525911 86.21955685771837 86.21955685771837 86.19758286028201 86.19758286028201 86.17560886284564 86.15363486540927 86.1316608679729 86.10968687053654 86.10968687053654 86.10968687053654 86.08771287310017 86.08771287310017 86.06573887566381 86.02179088079106 85.9998168833547 85.97784288591834 85.95586888848196 85.9338948910456 85.88994689617286 85.88994689617286 85.8679728987365 85.84599890130013 85.82402490386376 85.8020509064274 85.8020509064274 85.75810291155466 85.7361289141183 85.6702069218092 85.62625892693646 85.58231093206373 85.56033693462736 85.49441494231826 85.45046694744553 85.42849295000916 85.36257095770006 85.27467496795458 85.2087529756455 85.12085698590002 85.05493499359092 84.90111701153634 84.76927302691814 84.70335103460906 84.59348104742722 84.46163706280902 84.3297930781908 84.21992309100898 84.11005310382714 83.89031312946346 83.58267716535434 83.36293719099066 83.09924922175426 82.68174327046329 82.26423731917231 81.82475737044497 81.51712140633583 81.05566746017213 80.57223951657207 80.26460355246292 79.80314960629921 79.34169566013551 79.03405969602638 78.5506317524263 78.19904779344444 77.69364585240798 77.18824391137156 76.66086797289874 76.33125801135323 75.84783006775316 75.51822010620765 75.10071415491669 74.79307819080753 74.13385826771653 73.58450833180737 73.18897637795277 72.79344442409815 72.24409448818898 71.6288225599707 71.0355246291888 70.61801867789782 70.02472074711591 69.431422816334 69.05786485991577 68.48654092657023 67.89324299578831 67.49771104193371 66.9044131111518 66.5088811572972 65.93755722395166 65.36623329060612 64.7729353598242 64.33345541109688 63.93792345724226 63.322651529023986 62.39974363669658 61.9163156930965 61.41091375206006 60.356161875114445 59.76286394433254 58.90587804431423 58.24665812122322 57.47756821095037 56.620582310932065 56.049258377586526 55.23622047244095 54.401208569859 53.91778062625893 53.236586705731554 52.797106757004215 52.1378868339132 51.45669291338582 51.01721296465848 50.379967039003844 49.479033144112805 49.237319172312766 48.51217725691265 47.98480131843985 47.23768540560337 46.292803515839594 45.78740157480315 45.06225965940304 44.4250137337484 44.05145577733016 43.61197582860282 43.304339864493684 42.864859915766345 42.40340596960264 42.07379600805713 41.61234206189343 41.10694012085699 40.601538179820544 40.206006225965936 39.898370261856805 39.34902032594763 38.82164438747482 38.47006042849295 37.72294451565647 37.1735945797473 36.80003662332906 36.272660684856255 35.94305072331075 35.56949276689251 35.06409082585607 34.58066288225599 34.141182933528654 33.701702984801315 33.416041018128546 33.020509064273945 32.734847097601175 32.3832631386193 32.03167917963743 31.74601721296466 31.30653726423732 30.998901300128182 30.537447353964474 29.834279436000735 29.460721479582496 29.065189525727888 28.53781358725508 28.16425563083684 27.944515656473172 27.724775682109502 27.548983702618568 27.417139718000367 27.329243728254898 27.241347738509432 27.153451748763963 27.087529756454863 27.02160776414576 26.999633766709394 26.95568577183666 26.933711774400294 26.933711774400294 26.88976377952756 26.845815784654825 26.80186778978209 26.73594579747299 26.713971800036624 26.626075810291155 26.58212781541842 26.51620582310932 26.472257828236586 26.406335835927486 26.36238784105475 26.318439846182017 26.274491851309286 26.23054385643655 26.23054385643655 26.23054385643655 26.23054385643655 26.23054385643655 26.23054385643655 26.23054385643655 26.23054385643655 26.23054385643655 26.23054385643655 26.23054385643655 26.208569859000182 26.23054385643655 26.208569859000182 26.208569859000182 26.208569859000182 26.208569859000182 26.208569859000182 26.186595861563816 26.186595861563816 26.164621864127447 26.14264786669108 26.120673869254716 26.098699871818347 26.054751876945616 25.988829884636512 25.944881889763778 25.900933894891047 25.878959897454678 25.813037905145578 25.769089910272843 25.72514191540011 25.703167917963743 25.65921992309101 25.637245925654643 25.615271928218274 25.593297930781908 25.571323933345543 25.571323933345543 25.571323933345543 25.549349935909174 25.527375938472808 25.50540194103644 25.50540194103644 25.50540194103644 25.483427943600073 25.461453946163708 25.461453946163708 25.461453946163708 25.461453946163708 25.43947994872734 25.43947994872734 25.43947994872734 25.417505951290973 25.395531953854604 25.395531953854604 25.395531953854604 25.395531953854604 25.37355795641824 25.37355795641824 25.37355795641824 25.37355795641824 25.37355795641824 25.37355795641824 25.37355795641824 25.37355795641824 25.37355795641824 25.37355795641824 25.37355795641824 25.37355795641824 25.35158395898187 25.37355795641824 25.35158395898187 25.35158395898187 25.35158395898187 25.37355795641824 25.37355795641824 25.37355795641824 25.37355795641824 25.37355795641824 25.37355795641824 25.37355795641824 25.37355795641824 25.37355795641824 25.37355795641824 25.37355795641824 25.37355795641824 25.37355795641824 25.37355795641824 25.37355795641824 25.37355795641824 25.37355795641824 25.37355795641824 25.35158395898187 25.37355795641824 25.35158395898187 25.37355795641824 25.35158395898187 25.35158395898187 25.35158395898187 25.37355795641824 25.35158395898187 25.35158395898187 25.35158395898187 25.37355795641824 25.37355795641824 25.37355795641824 25.37355795641824 25.37355795641824 25.37355795641824 25.37355795641824 25.37355795641824 25.35158395898187 25.35158395898187 25.35158395898187 25.35158395898187 25.37355795641824 25.35158395898187 25.35158395898187 25.37355795641824 25.37355795641824 25.37355795641824 25.37355795641824 25.37355795641824 25.37355795641824 25.37355795641824 25.37355795641824 25.37355795641824 25.37355795641824 25.37355795641824 25.37355795641824 25.37355795641824 25.37355795641824 25.37355795641824 25.37355795641824 25.37355795641824 25.395531953854604 25.37355795641824 25.37355795641824 25.395531953854604 25.37355795641824 25.395531953854604 25.395531953854604 25.395531953854604 25.395531953854604 25.395531953854604 25.395531953854604 25.395531953854604 25.395531953854604 25.395531953854604 25.395531953854604 25.395531953854604 25.395531953854604 25.395531953854604 25.395531953854604 25.395531953854604 25.395531953854604 25.395531953854604 25.395531953854604 25.395531953854604 25.417505951290973 25.43947994872734 25.43947994872734 25.43947994872734 25.43947994872734 25.43947994872734 25.43947994872734 25.43947994872734 25.43947994872734 25.43947994872734 25.43947994872734 25.43947994872734 25.43947994872734 25.43947994872734 25.43947994872734 25.43947994872734 25.43947994872734 25.43947994872734 25.43947994872734 25.43947994872734 25.43947994872734 25.43947994872734 25.43947994872734 25.43947994872734 25.43947994872734 25.43947994872734 25.43947994872734 25.461453946163708 25.461453946163708 25.461453946163708 25.461453946163708 25.483427943600073 25.50540194103644 25.50540194103644 25.549349935909174 25.593297930781908 25.615271928218274 25.65921992309101 25.72514191540011 25.813037905145578 25.900933894891047 26.01080388207288 26.14264786669108 26.29646584874565 26.45028383080022 26.60410181285479 26.713971800036624 26.845815784654825 27.065555759018494 27.241347738509432 27.548983702618568 27.81267167185497 28.230177623145945 28.75755356161875 29.153085515473357 29.746383446255265 30.36165537447354 30.801135323200878 31.41640725141915 31.87786119758286 32.55905511811024 33.262223036073976 33.789598974546784 34.62461087712873 35.45962277971068 36.052920710492586 37.2395165720564 37.8328145028383 38.51400842336568 39.34902032594763 40.227980223402305 40.82127815418421 42.00787401574803 42.62314594396631 43.54605383629372 44.18329976194836 45.12818165171214 46.117011536348656 46.79820545687603 47.76506134407617 48.73191723127633 49.39113715436733 50.314045046694744 50.95129097234938 51.83025086980406 52.95092473905878 53.214612708295185 54.04962461087713 54.88463651345907 55.47793444424098 56.664530305804796 57.257828236586704 58.18073612891412 59.08167002380517 59.674967954587075 60.312213880241714 61.12525178538729 62.0481596777147 62.839223585423916 63.344625526460355 64.1137154367332 64.86083134956968 65.5859732649698 66.1133492034426 66.75059512909723 67.19007507782457 67.82732100347921 68.24482695477019 68.88207288042483 69.71708478300678 70.15656473173412 70.61801867789782 71.01355063175242 71.67277055484342 72.35396447537082 73.05713239333456 73.78227430873466 74.81505218824393 75.40835011902581 76.00164804980773 76.5509979857169 77.23219190624428 78.04522981138985 78.57260574986266 79.29774766526278 80.00091558322652 80.46236952939023 81.20948544222671 81.56106940120857 81.91265336019043 82.39608130379051 82.70371726789965 83.12122321919063 83.49478117560886 83.8683391320271 84.21992309100898 84.46163706280902 84.68137703717268 84.98901300128182 85.07690899102728 85.27467496795458 85.4065189525728 85.49441494231826 85.6042849295001 85.6702069218092 85.84599890130013 85.97784288591834 86.04376487822742 86.06573887566381 86.19758286028201 86.28547885002747 86.41732283464567 86.50521882439114 86.61508881157297 86.72495879875481 86.7908807910639 86.90075077824574 86.96667277055485 86.98864676799121 87.03259476286395 87.03259476286395 87.03259476286395 87.03259476286395 87.03259476286395 87.03259476286395 87.03259476286395 87.03259476286395 87.01062076542757 86.98864676799121 86.96667277055485 86.90075077824574 86.87877678080937 86.85680278337301 86.85680278337301 86.85680278337301 86.85680278337301 86.85680278337301 86.85680278337301 86.85680278337301 86.85680278337301 86.81285478850029 86.7908807910639 86.7908807910639 86.74693279619117 86.72495879875481 86.70298480131844 86.68101080388207 86.68101080388207 86.6590368064457 86.6590368064457 86.63706280900934 86.63706280900934 86.61508881157297 86.59311481413661 86.57114081670024 86.57114081670024 86.57114081670024 86.57114081670024 86.57114081670024 86.57114081670024 86.57114081670024 86.54916681926387 86.54916681926387 86.54916681926387 86.54916681926387 86.54916681926387 86.54916681926387 86.50521882439114 86.48324482695477 86.48324482695477 86.46127082951841 86.43929683208204 86.41732283464567 86.37337483977294 86.32942684490021 86.28547885002747 86.21955685771837 86.19758286028201 86.19758286028201 86.19758286028201 86.19758286028201 86.19758286028201 86.19758286028201 86.17560886284564 86.15363486540927 86.15363486540927 86.17560886284564 86.17560886284564 86.19758286028201 86.19758286028201 86.19758286028201 86.17560886284564 86.15363486540927 86.15363486540927 86.17560886284564 86.15363486540927 86.19758286028201 86.15363486540927 86.1316608679729 86.10968687053654 86.08771287310017 86.04376487822742 86.02179088079106 86.02179088079106 85.9998168833547 86.02179088079106 86.02179088079106 85.9998168833547 86.02179088079106 85.9998168833547 85.9998168833547 86.02179088079106 86.02179088079106 85.9998168833547 86.02179088079106 85.9998168833547 85.97784288591834 85.95586888848196 85.95586888848196 85.91192089360922 85.88994689617286 85.88994689617286 85.8679728987365 85.8679728987365 85.8679728987365 85.84599890130013 85.84599890130013 85.84599890130013 85.84599890130013 85.84599890130013 85.84599890130013 85.82402490386376 85.82402490386376 85.82402490386376 85.82402490386376 85.84599890130013 85.82402490386376 85.82402490386376 85.8020509064274 85.75810291155466 85.7361289141183 85.71415491668193 85.71415491668193 85.6702069218092 85.6702069218092 85.64823292437282 85.62625892693646 85.62625892693646 85.58231093206373 85.6042849295001 85.58231093206373 85.58231093206373 85.56033693462736 85.56033693462736 85.538362937191 85.538362937191 85.538362937191 85.538362937191 85.51638893975462 85.51638893975462 85.51638893975462 85.49441494231826 85.49441494231826 85.49441494231826 85.49441494231826 85.49441494231826 85.49441494231826 85.49441494231826 85.49441494231826 85.49441494231826 85.49441494231826 85.49441494231826 85.49441494231826 85.4724409448819 85.49441494231826 85.49441494231826 85.49441494231826 85.49441494231826 85.4724409448819 85.4724409448819 85.45046694744553 85.45046694744553 85.45046694744553 85.45046694744553 85.45046694744553 85.42849295000916 85.38454495513642 85.36257095770006 85.31862296282733 85.31862296282733 85.31862296282733 85.31862296282733 85.29664896539094 85.31862296282733 85.29664896539094 85.29664896539094 85.27467496795458 85.27467496795458 85.27467496795458 85.27467496795458 85.25270097051822 85.23072697308186 85.18677897820913 85.16480498077274 85.12085698590002 85.05493499359092 85.03296099615454 85.01098699871818 84.94506500640908 84.92309100897272 84.87914301409998 84.87914301409998 84.85716901666362 84.85716901666362 84.83519501922726 84.85716901666362 84.85716901666362 84.85716901666362 84.83519501922726 84.83519501922726 84.83519501922726 84.83519501922726 84.85716901666362 84.83519501922726 84.83519501922726 84.83519501922726 84.85716901666362 84.85716901666362 84.83519501922726 84.83519501922726 84.83519501922726 84.83519501922726 84.83519501922726 84.83519501922726 84.83519501922726 84.81322102179088 84.79124702435452 84.74729902948178 84.72532503204542 84.65940303973632 84.59348104742722 84.5275590551181 84.50558505768174 84.50558505768174 84.3957150704999 84.2638710858817 84.1979490935726 84.0001831166453 83.82439113715438 83.53872917048159 83.16517121406336 82.9454312396997 82.65976927302691 82.24226332173595 82.08844533968139 81.86870536531771 81.67093938839041 81.36330342428127 81.05566746017213 80.83592748580847 80.52829152169933 80.15473356528108 79.75920161142648 79.38564365500824 79.20985167551731 78.81431972166271 78.37483977293536 78.06720380882624 77.42995788317158 76.9465299395715 76.59494598058964 76.15546603186229 75.8258560703168 75.47427211133493 74.94689617286213 74.41952023438931 73.8921442959165 73.51858633949826 72.92528840871636 72.33199047793445 71.93645852407984 71.2992125984252 70.63999267533418 70.17853872917048 69.4973448086431 69.01391686504303 68.31074894707929 67.40981505218824 66.97033510346091 66.55282915216993 65.9815052188244 65.60794726240616 65.0366233290606 64.46529939571508 63.850027467496794 63.212781541842155 62.773301593114816 62.33382164438748 61.63065372642373 60.90551181102362 60.158395898187145 59.718915949459806 59.03772202893243 58.29060611609595 57.78520417505951 57.016114264786665 56.15912836476836 55.52188243911371 54.37923457242263 53.74198864676799 52.59934078007691 51.9401208569859 51.21497894158579 50.77549899285845 50.094305072331075 49.588903131294636 48.46822926203992 48.11664530305805 47.1497894158579 45.72147958249405 45.0183116645303 44.46896172862113 43.85368980040286 43.502105841420985 42.90880791063908 42.46932796191174 41.78813404138436 41.10694012085699 40.71140816700238 40.096136238784105 39.39296832082036 38.82164438747482 38.22834645669291 38.00860648232924 37.415308551547334 37.08569859000183 36.646218641274494 35.78923274125618 35.30580479765611 34.60263687969236 33.855520966855885 33.39406702069218 32.88866507965574 32.55905511811024 32.27339315143747 31.833913202710125 31.68009522065556 30.932979307819082 30.22981138985534 29.54861746932796 28.27412561801868 27.505035707745833 26.757919794909355 26.36238784105475 26.252517853872916 25.791063907709212 25.0 24.91210401025453 23.659586156381614 23.220106207654275 22.802600256363302 22.385094305072332 22.165354330708663 22.25325032045413 21.65995238967222 21.572056399926755 21.418238417872185 21.74784837941769 21.65995238967222 21.65995238967222 21.74784837941769 21.87969236403589 21.989562351217725 22.25325032045413 22.516938289690533 22.95641823841787 23.088262223036075 23.088262223036075 23.04431422816334 23.17615821278154 23.220106207654275 23.000366233290606 22.868522248672406 22.780626258926937 22.82457425379967 23.132210217908806 23.220106207654275 23.17615821278154 23.132210217908806 23.132210217908806 23.17615821278154 23.220106207654275 23.26405420252701 23.48379417689068 24.011170115363488 24.736312030763596 25.109869987181835 25.527375938472808 25.72514191540011 25.769089910272843 25.791063907709212 25.813037905145578 25.813037905145578 25.791063907709212 25.769089910272843 25.769089910272843 25.747115912836477 25.72514191540011 25.681193920527377 25.65921992309101 25.65921992309101 25.65921992309101 25.615271928218274 25.615271928218274 25.593297930781908 25.593297930781908 25.571323933345543 25.549349935909174 25.549349935909174 25.549349935909174 25.527375938472808 25.50540194103644 25.50540194103644 25.483427943600073 25.483427943600073 25.461453946163708 25.483427943600073 25.461453946163708 25.461453946163708 25.461453946163708 25.461453946163708 25.461453946163708 25.461453946163708 25.461453946163708 25.461453946163708 25.461453946163708 25.461453946163708 25.461453946163708 25.43947994872734 25.43947994872734 25.461453946163708 25.43947994872734 25.43947994872734 25.461453946163708 25.43947994872734 25.461453946163708 25.43947994872734 25.461453946163708 25.43947994872734 25.43947994872734 25.43947994872734 25.43947994872734 25.43947994872734 25.43947994872734 25.43947994872734 25.43947994872734 25.43947994872734 25.43947994872734 25.43947994872734 25.43947994872734 25.43947994872734 25.43947994872734 25.43947994872734 25.417505951290973 25.43947994872734 25.417505951290973 25.43947994872734 25.43947994872734 25.417505951290973 25.417505951290973 25.43947994872734 25.43947994872734 25.43947994872734 25.417505951290973 25.43947994872734 25.417505951290973 25.43947994872734 25.417505951290973 25.43947994872734 25.417505951290973 25.43947994872734 25.417505951290973 25.43947994872734 25.417505951290973 25.417505951290973 25.43947994872734 25.417505951290973 25.417505951290973 25.417505951290973 25.417505951290973 25.417505951290973 25.417505951290973 25.417505951290973 25.417505951290973 25.417505951290973 25.417505951290973 25.417505951290973 25.417505951290973 25.395531953854604 25.395531953854604 25.395531953854604 25.395531953854604 25.395531953854604 25.395531953854604 25.395531953854604 25.37355795641824 25.37355795641824 25.37355795641824 25.37355795641824 25.37355795641824 25.37355795641824 25.37355795641824 25.37355795641824 25.37355795641824 25.37355795641824 25.37355795641824 25.37355795641824 25.35158395898187 25.37355795641824 25.35158395898187 25.35158395898187 25.35158395898187 25.35158395898187 25.35158395898187 25.37355795641824 25.35158395898187 25.35158395898187 25.35158395898187 25.35158395898187 25.35158395898187 25.35158395898187 25.35158395898187 25.35158395898187 25.329609961545504 25.329609961545504 25.329609961545504 25.329609961545504 25.329609961545504 25.329609961545504 25.30763596410914 25.30763596410914 25.30763596410914 25.30763596410914 25.30763596410914 25.30763596410914 25.30763596410914 25.30763596410914 25.30763596410914 25.30763596410914 25.30763596410914 25.30763596410914 25.30763596410914 25.30763596410914 25.30763596410914 25.30763596410914 25.30763596410914 25.30763596410914 25.30763596410914 25.30763596410914 25.30763596410914 25.30763596410914 25.30763596410914 25.30763596410914 25.30763596410914 25.30763596410914 25.30763596410914 25.329609961545504 25.329609961545504 25.329609961545504 25.329609961545504 25.329609961545504 25.329609961545504 25.329609961545504 25.329609961545504 25.329609961545504 25.329609961545504 25.329609961545504 25.329609961545504 25.329609961545504 25.329609961545504 25.329609961545504 25.329609961545504 25.329609961545504 25.329609961545504 25.329609961545504 25.329609961545504 25.329609961545504 25.329609961545504 25.329609961545504 25.329609961545504 25.329609961545504 25.329609961545504 25.329609961545504 25.329609961545504 25.329609961545504 25.329609961545504 25.329609961545504 25.329609961545504 25.329609961545504 25.329609961545504 25.329609961545504 25.329609961545504 25.329609961545504 25.329609961545504 25.329609961545504 25.329609961545504 25.329609961545504 25.329609961545504 25.329609961545504 25.329609961545504 25.329609961545504 25.329609961545504 25.329609961545504 25.329609961545504 25.329609961545504 25.329609961545504 25.329609961545504 25.35158395898187 25.329609961545504 25.35158395898187 25.329609961545504 25.35158395898187 25.35158395898187 25.35158395898187 25.35158395898187 25.35158395898187 25.35158395898187 25.35158395898187 25.35158395898187 25.37355795641824 25.35158395898187 25.37355795641824 25.37355795641824 25.37355795641824 25.395531953854604 25.37355795641824 25.395531953854604 25.395531953854604 25.395531953854604 25.395531953854604 25.395531953854604 25.417505951290973 25.417505951290973 25.417505951290973 25.417505951290973 25.417505951290973 25.43947994872734 25.43947994872734 25.43947994872734 25.461453946163708 25.483427943600073 25.50540194103644 25.571323933345543 25.615271928218274 25.681193920527377 25.72514191540011 25.835011902581943 25.900933894891047 26.032777879509247 26.120673869254716 26.252517853872916 26.38436183849112 26.45028383080022 26.406335835927486 24.055118110236222 22.97839223585424 22.670756271745102 22.802600256363302 22.97839223585424 23.54971616919978 24.49459805896356 25.021973997436366 25.966855887200147 26.494231825672955 27.087529756454863 27.614905694927668 28.933345541109688 30.22981138985534 30.911005310382713 31.482329243728255 32.22944515656473 32.778795092473906 33.855520966855885 34.36092290789233 34.99816883354697 35.72331074894708 36.316608679728986 37.019776597692726 38.20637245925654 38.97546236952939 39.722578282365866 40.184032228529574 41.21681010803882 43.370261856802784 44.271195751693824 45.61160959531222 46.842153451748764 47.69913935176707 48.95165720563999 49.808643105658305 51.083134956967584 52.64328877494964 53.390404687786116 54.203442592931694 54.79674052371361 55.78557040835012 56.796374290423 57.47756821095037 58.77403405969603 59.740889946896175 61.45486174693279 61.7185497161692 62.39974363669658 63.10291155466032 64.06976744186046 64.79490935726056 65.73979124702436 66.75059512909723 67.43178904962461 68.39864493682475 69.03589086247939 69.98077275224318 70.88170664713422 71.4969785753525 72.39791247024354 73.25489837026186 73.91411829335286 74.92492217542575 75.21058414209853 75.97967405237137 77.03442592931697 77.49587987548068 78.26496978575352 78.94616370628091 79.4076176524446 80.08881157297199 80.35249954220839 81.16553744735396 81.75883537813587 82.15436733199049 82.72569126533602 83.27504120124519 83.64859915766343 84.15400109869987 84.48361106024538 84.96703900384546 85.4065189525728 85.71415491668193 86.24153085515474 86.63706280900934 86.7908807910639 87.20838674235489 87.31825672953671 87.53799670390038 87.73576268082769 87.82365867057317 87.91155466031863 87.91155466031863 87.93352865775499 87.93352865775499 87.93352865775499 87.95550265519137 87.95550265519137 87.95550265519137 87.95550265519137 87.97747665262773 87.97747665262773 87.97747665262773 87.97747665262773 87.95550265519137 87.93352865775499 87.91155466031863 87.82365867057317 87.77971067570043 87.73576268082769 87.69181468595497 87.69181468595497 87.69181468595497 87.64786669108221 87.62589269364585 87.55997070133675 87.51602270646401 87.42812671671855 87.34023072697309 87.31825672953671 87.25233473722761 87.18641274491851 87.14246475004578 87.09851675517305 87.07654275773669 87.07654275773669 87.07654275773669 87.07654275773669 87.05456876030031 87.03259476286395 86.96667277055485 86.90075077824574 86.81285478850029 86.76890679362754 86.72495879875481 86.70298480131844 86.70298480131844 86.68101080388207 86.68101080388207 86.68101080388207 86.70298480131844 86.70298480131844 86.72495879875481 86.72495879875481 86.72495879875481 86.72495879875481 86.72495879875481 86.72495879875481 86.72495879875481 86.76890679362754 86.76890679362754 86.76890679362754 86.72495879875481 86.63706280900934 86.59311481413661 86.48324482695477 86.48324482695477 86.46127082951841 86.46127082951841 86.46127082951841 86.46127082951841 86.46127082951841 86.46127082951841 86.46127082951841 86.46127082951841 86.41732283464567 86.37337483977294 86.35140084233657 86.30745284746384 86.28547885002747 86.28547885002747 86.2635048525911 86.2635048525911 86.24153085515474 86.19758286028201 86.15363486540927 86.10968687053654 86.10968687053654 86.08771287310017 86.08771287310017 86.10968687053654 86.10968687053654 86.10968687053654 86.10968687053654 86.1316608679729 86.1316608679729 86.10968687053654 86.10968687053654 86.10968687053654 86.10968687053654 86.1316608679729 86.15363486540927 86.1316608679729 86.10968687053654 86.08771287310017 86.02179088079106 85.97784288591834 85.95586888848196 85.9338948910456 85.91192089360922 85.91192089360922 85.88994689617286 85.84599890130013 85.8020509064274 85.75810291155466 85.7361289141183 85.71415491668193 85.71415491668193 85.6702069218092 85.64823292437282 85.62625892693646 85.58231093206373 85.56033693462736 85.538362937191 85.538362937191 85.49441494231826 85.4724409448819 85.45046694744553 85.42849295000916 85.4065189525728 85.36257095770006 85.31862296282733 85.29664896539094 85.27467496795458 85.25270097051822 85.23072697308186 85.23072697308186 85.23072697308186 85.2087529756455 85.2087529756455 85.18677897820913 85.18677897820913 85.2087529756455 85.18677897820913 85.2087529756455 85.2087529756455 85.2087529756455 85.18677897820913 85.18677897820913 85.16480498077274 85.14283098333638 85.14283098333638 85.12085698590002 85.12085698590002 85.12085698590002 85.09888298846366 85.12085698590002 85.12085698590002 85.12085698590002 85.12085698590002 85.12085698590002 85.09888298846366 85.07690899102728 85.05493499359092 85.01098699871818 84.98901300128182 84.96703900384546 84.94506500640908 84.92309100897272 84.92309100897272 84.92309100897272 84.92309100897272 84.92309100897272 84.92309100897272 84.92309100897272 84.92309100897272 84.92309100897272 84.92309100897272 84.92309100897272 84.90111701153634 84.87914301409998 84.87914301409998 84.83519501922726 84.83519501922726 84.83519501922726 84.81322102179088 84.81322102179088 84.81322102179088 84.81322102179088 84.81322102179088 84.83519501922726 84.81322102179088 84.81322102179088 84.81322102179088 84.81322102179088 84.81322102179088 84.79124702435452 84.79124702435452 84.76927302691814 84.76927302691814 84.76927302691814 84.76927302691814 84.74729902948178 84.74729902948178 84.72532503204542 84.72532503204542 84.70335103460906 84.72532503204542 84.72532503204542 84.72532503204542 84.72532503204542 84.70335103460906 84.70335103460906 84.70335103460906 84.70335103460906 84.70335103460906 84.70335103460906 84.70335103460906 84.70335103460906 84.70335103460906 84.70335103460906 84.70335103460906 84.70335103460906 84.70335103460906 84.68137703717268 84.65940303973632 84.65940303973632 84.63742904229994 84.63742904229994 84.61545504486358 84.59348104742722 84.57150704999086 84.5275590551181 84.50558505768174 84.46163706280902 84.41768906793627 84.37374107306354 84.35176707562718 84.35176707562718 84.35176707562718 84.35176707562718 84.3297930781908 84.30781908075444 84.24189708844534 84.17597509613624 84.02215711408166 83.75846914484526 83.6046511627907 83.36293719099066 83.18714521149973 83.01135323200879 82.74766526277239 82.44002929866325 82.08844533968139 81.86870536531771 81.51712140633583 81.09961545504487 80.79197949093573 80.37447353964475 79.89104559604468 79.56143563449919 79.01208569859 78.59457974729904 78.02325581395348 77.42995788317158 76.79271195751694 76.19941402673503 75.34242812671673 74.90294817798939 74.22175425746201 73.80424830617103 73.05713239333456 72.46383446255265 72.00238051638894 71.54092657022522 70.70591466764328 70.28840871635232 69.65116279069767 69.2336568394067 68.64035890862479 68.06903497527925 67.67350302142464 67.1681010803882 66.53085515473356 66.09137520600623 65.45412928035158 64.94872733931514 64.22358542391504 63.52041750595129 63.036989562351216 62.35579564182384 61.67460172129647 61.16919978026002 60.04852591100531 59.499175975096136 58.57626808276872 57.69730818531404 57.08203625709577 56.466764328877495 55.47793444424098 54.90661051089544 54.02765061344076 53.412378685222485 52.48947079289508 51.50064090825856 50.665629005676614 49.984435085149244 48.90770921076726 48.44625526460355 47.74308734663981 47.10584142098517 45.78740157480315 44.73264969785754 44.16132576451199 43.348287859366415 42.95275590551181 42.38143197216627 41.48049807727523 40.86522614905695 40.008240249038636 39.34902032594763 38.84361838491119 38.20637245925654 37.96465848745651 37.5032045412928 37.129646584874564 36.778062625892694 35.94305072331075 34.88829884636513 34.33894891045596 33.92144295916499 33.767624977110415 33.196301043764876 32.75682109503754 32.5151071232375 32.16352316425563 31.833913202710125 31.548251236037355 31.020875297564547 30.823109320637247 30.713239333455412 30.032045412928035 29.504669474455227 28.27412561801868 27.658853689800402 27.351217725691264 26.691997802600255 26.274491851309286 25.922907892327412 25.197765976927304 24.516572056399927 23.901300128181653 22.582860281999633 22.143380333272294 23.154184215345175 22.407068302508698 22.165354330708663 21.72587438198132 21.637978392235855 21.52810840505402 21.65995238967222 21.72587438198132 21.572056399926755 21.65995238967222 22.12140633583593 22.538912287126898 22.516938289690533 22.82457425379967 23.439846182017945 23.747482146127084 23.747482146127084 23.747482146127084 23.659586156381614 23.57169016663615 23.659586156381614 23.70353415125435 23.747482146127084 23.901300128181653 24.62644204358176 25.197765976927304 25.681193920527377 25.900933894891047 25.922907892327412 25.900933894891047 25.856985900018312 25.813037905145578 25.747115912836477 25.703167917963743 25.681193920527377 25.615271928218274 25.571323933345543 25.549349935909174 25.527375938472808 25.50540194103644 25.50540194103644 25.483427943600073 25.483427943600073 25.483427943600073 25.461453946163708 25.461453946163708 25.461453946163708 25.461453946163708 25.461453946163708 25.461453946163708 25.461453946163708 25.461453946163708 25.461453946163708 25.43947994872734 25.43947994872734 25.43947994872734 25.43947994872734 25.43947994872734 25.43947994872734 25.43947994872734 25.43947994872734 25.43947994872734 25.43947994872734 25.43947994872734 25.43947994872734 25.43947994872734 25.417505951290973 25.417505951290973 25.43947994872734 25.417505951290973 25.43947994872734 25.43947994872734 25.417505951290973 25.43947994872734 25.43947994872734 25.417505951290973 25.43947994872734 25.43947994872734 25.43947994872734 25.417505951290973 25.417505951290973 25.417505951290973 25.417505951290973 25.417505951290973 25.417505951290973 25.417505951290973 25.417505951290973 25.395531953854604 25.417505951290973 25.417505951290973 25.417505951290973 25.395531953854604 25.417505951290973 25.395531953854604 25.395531953854604 25.395531953854604 25.395531953854604 25.395531953854604 25.395531953854604 25.395531953854604 25.395531953854604 25.395531953854604 25.37355795641824 25.395531953854604 25.395531953854604 25.395531953854604 25.37355795641824 25.37355795641824 25.37355795641824 25.395531953854604 25.37355795641824 25.395531953854604 25.37355795641824 25.395531953854604 25.395531953854604 25.37355795641824 25.37355795641824 25.37355795641824 25.37355795641824 25.395531953854604 25.37355795641824 25.37355795641824 25.37355795641824 25.37355795641824 25.37355795641824 25.37355795641824 25.37355795641824 25.37355795641824 25.37355795641824 25.37355795641824 25.37355795641824 25.37355795641824 25.37355795641824 25.37355795641824 25.37355795641824 25.37355795641824 25.37355795641824 25.37355795641824 25.37355795641824 25.37355795641824 25.37355795641824 25.37355795641824 25.37355795641824 25.37355795641824 25.37355795641824 25.37355795641824 25.37355795641824 25.37355795641824 25.37355795641824 25.37355795641824 25.37355795641824 25.37355795641824 25.35158395898187 25.37355795641824 25.37355795641824 25.35158395898187 25.35158395898187 25.35158395898187 25.35158395898187 25.37355795641824 25.35158395898187 25.35158395898187 25.37355795641824 25.35158395898187 25.37355795641824 25.35158395898187 25.35158395898187 25.35158395898187 25.35158395898187 25.35158395898187 25.35158395898187 25.35158395898187 25.35158395898187 25.35158395898187 25.35158395898187 25.35158395898187 25.35158395898187 25.329609961545504 25.35158395898187 25.329609961545504 25.35158395898187 25.329609961545504 25.329609961545504 25.329609961545504 25.35158395898187 25.329609961545504 25.329609961545504 25.329609961545504 25.329609961545504 25.329609961545504 25.329609961545504 25.329609961545504 25.329609961545504 25.329609961545504 25.329609961545504 25.329609961545504 25.329609961545504 25.329609961545504 25.329609961545504 25.329609961545504 25.329609961545504 25.329609961545504 25.329609961545504 25.329609961545504 25.329609961545504 25.30763596410914 25.30763596410914 25.30763596410914 25.329609961545504 25.30763596410914 25.30763596410914 25.30763596410914 25.30763596410914 25.30763596410914 25.30763596410914 25.30763596410914 25.30763596410914 25.30763596410914 25.30763596410914 25.30763596410914 25.30763596410914 25.30763596410914 25.30763596410914 25.30763596410914 25.30763596410914 25.30763596410914 25.30763596410914 25.30763596410914 25.30763596410914 25.30763596410914 25.30763596410914 25.30763596410914 25.30763596410914 25.30763596410914 25.30763596410914 25.28566196667277 25.28566196667277 25.28566196667277 25.28566196667277 25.28566196667277 25.28566196667277 25.28566196667277 25.28566196667277 25.28566196667277 25.28566196667277 25.28566196667277 25.28566196667277 25.28566196667277 25.28566196667277 25.28566196667277 25.28566196667277 25.28566196667277 25.28566196667277 25.263687969236404 25.263687969236404 25.28566196667277 25.28566196667277 25.28566196667277 25.263687969236404 25.263687969236404 25.28566196667277 25.28566196667277 25.28566196667277 25.28566196667277 25.28566196667277 25.263687969236404 25.28566196667277 25.28566196667277 25.28566196667277 25.263687969236404 25.28566196667277 25.28566196667277 25.28566196667277 25.28566196667277 25.28566196667277 25.28566196667277 25.28566196667277 25.28566196667277 25.28566196667277 25.30763596410914 25.30763596410914 25.329609961545504 25.35158395898187 25.35158395898187 25.37355795641824 25.37355795641824 25.395531953854604 25.417505951290973 25.43947994872734 25.483427943600073 25.527375938472808 25.571323933345543 25.637245925654643 25.681193920527377 25.747115912836477 25.856985900018312 25.944881889763778 26.07672587438198 26.186595861563816 26.36238784105475 26.67002380516389 26.845815784654825 27.04358176158213 27.461087712873102 27.81267167185497 28.38399560520051 29.021241530855153 29.658487456509796 30.339681377037174 30.845083318073613 31.328511261673686 32.22944515656473 32.69089910272844 33.372093023255815 33.81157297198315 34.44881889763779 35.06409082585607 35.48159677714705 36.16279069767442 36.865958615638164 37.34938655923823 38.07452847463834 38.60190441311115 39.26112433620216 39.920344259293174 40.62351217725691 41.15088811572972 41.59036806445706 42.40340596960264 43.45815784654825 44.073429774766524 44.99633766709394 45.94121955685772 46.64438747482146 47.61124336202161 48.27046328511261 49.32521516205823 50.336019044131106 51.01721296465848 52.04999084416774 53.060794726240616 53.720014649331624 54.73081853140451 55.76359641091375 56.466764328877495 57.49954220838674 58.31258011353232 59.587071964841606 60.26826588536898 60.97143380333272 62.33382164438748 62.66343160593298 63.630287493133125 64.97070133675152 65.62992125984252 66.61875114447903 67.62955502655191 68.31074894707929 69.21168284197034 69.84892876762498 70.72788866507966 71.58487456509798 72.13422450100714 72.9692364035891 73.7603003112983 74.57333821644387 75.05676616004395 75.5621681010804 76.24336202160777 76.8806079472624 77.40798388573522 78.2869437831899 78.96813770371728 79.42959164988098 80.13275956784472 80.35249954220839 81.0117194652994 81.80278337300861 82.15436733199049 82.65976927302691 83.16517121406336 83.4728071781725 83.95623512177258 84.65940303973632 84.92309100897272 85.36257095770006 85.75810291155466 86.19758286028201 86.5271928218275 87.12049075260941 87.51602270646401 87.75773667826405 87.99945065006409 88.32906061160959 88.57077458340964 88.87841054751877 89.22999450650065 89.53763047060978 89.82329243728255 89.97711041933712 90.15290239882806 90.35066837575536 90.52646035524629 90.7242263321736 90.83409631935542 90.94396630653726 91.03186229628274 91.07581029115548 91.09778428859184 91.1197582860282 91.1197582860282 91.1197582860282 91.1197582860282 91.1197582860282 91.1197582860282 91.1197582860282 91.1197582860282 91.1197582860282 91.1197582860282 91.07581029115548 91.0538362937191 90.98791430141 90.90001831166454 90.90001831166454 90.87804431422816 90.87804431422816 90.87804431422816 90.87804431422816 90.8560703167918 90.81212232191906 90.76817432704634 90.7242263321736 90.68027833730086 90.63633034242812 90.5923823475554 90.50448635780992 90.43856436550082 90.37264237319172 90.30672038088262 90.26277238600989 90.19685039370079 90.15290239882806 90.13092840139169 90.10895440395532 90.08698040651895 90.04303241164622 89.99908441677348 89.99908441677348 89.99908441677348 89.99908441677348 89.99908441677348 89.99908441677348 89.99908441677348 89.99908441677348 89.99908441677348 90.02105841420986 89.99908441677348 89.99908441677348 89.99908441677348 89.95513642190075 89.93316242446438 89.86724043215528 89.84526643471892 89.80131843984618 89.75737044497345 89.75737044497345 89.75737044497345 89.71342245010072 89.69144845266435 89.66947445522798 89.62552646035525 89.55960446804615 89.49368247573705 89.44973448086431 89.36183849111885 89.29591649880975 89.25196850393701 89.20802050906427 89.16407251419155 89.14209851675518 89.14209851675518 89.09815052188245 89.09815052188245 89.07617652444607 89.07617652444607 89.07617652444607 89.07617652444607 89.0542025270097 89.0542025270097 89.0542025270097 89.0542025270097 89.03222852957333 89.01025453213697 89.01025453213697 88.96630653726424 88.96630653726424 88.94433253982787 88.9223585423915 88.9223585423915 88.90038454495513 88.90038454495513 88.90038454495513 88.87841054751877 88.87841054751877 88.83446255264604 88.81248855520967 88.81248855520967 88.7905145577733 88.76854056033693 88.7245925654642 88.70261856802784 88.6586705731551 88.63669657571873 88.61472257828237 88.592748580846 88.57077458340964 88.57077458340964 88.57077458340964 88.57077458340964 88.52682658853689 88.52682658853689 88.50485259110053 88.48287859366417 88.48287859366417 88.4609045962278 88.43893059879144 88.41695660135505 88.39498260391869 88.37300860648233 88.35103460904597 88.32906061160959 88.30708661417323 88.30708661417323 88.26313861930049 88.24116462186413 88.17524262955503 88.13129463468229 88.08734663980957 88.04339864493683 87.99945065006409 87.99945065006409 87.95550265519137 87.95550265519137 87.95550265519137 87.93352865775499 87.93352865775499 87.93352865775499 87.95550265519137 87.93352865775499 87.93352865775499 87.91155466031863 87.88958066288225 87.88958066288225 87.86760666544589 87.84563266800953 87.82365867057317 87.80168467313679 87.80168467313679 87.77971067570043 87.77971067570043 87.75773667826405 87.75773667826405 87.73576268082769 87.73576268082769 87.69181468595497 87.66984068851858 87.66984068851858 87.66984068851858 87.64786669108221 87.64786669108221 87.62589269364585 87.62589269364585 87.60391869620949 87.60391869620949 87.58194469877311 87.60391869620949 87.60391869620949 87.58194469877311 87.58194469877311 87.55997070133675 87.55997070133675 87.55997070133675 87.55997070133675 87.55997070133675 87.51602270646401 87.51602270646401 87.51602270646401 87.51602270646401 87.51602270646401 87.49404870902765 87.49404870902765 87.47207471159129 87.47207471159129 87.47207471159129 87.47207471159129 87.47207471159129 87.45010071415491 87.42812671671855 87.42812671671855 87.40615271928218 87.36220472440945 87.34023072697309 87.29628273210035 87.27430873466398 87.23036073979125 87.18641274491851 87.16443874748215 87.14246475004578 87.12049075260941 87.12049075260941 87.12049075260941 87.12049075260941 87.12049075260941 87.12049075260941 87.12049075260941 87.12049075260941 87.12049075260941 87.12049075260941 87.12049075260941 87.12049075260941 87.09851675517305 87.07654275773669 87.03259476286395 86.98864676799121 86.9227247756821 86.87877678080937 86.81285478850029 86.74693279619117 86.70298480131844 86.54916681926387 86.46127082951841 86.28547885002747 86.15363486540927 85.9338948910456 85.6702069218092 85.538362937191 85.42849295000916 85.23072697308186 85.05493499359092 84.76927302691814 84.59348104742722 84.30781908075444 84.0001831166453 83.67057315509979 83.38491118842703 82.92345724226331 82.76963926020875 82.24226332173595 81.97857535249955 81.67093938839041 81.12158945248123 80.81395348837209 80.50631752426295 79.78117560886285 79.36366965757188 78.81431972166271 78.4187877678081 78.02325581395348 77.47390587804432 77.23219190624428 76.85863394982604 76.39718000366233 76.0895440395532 75.67203808826221 75.36440212415309 74.66123420618933 74.15583226515291 73.60648232924373 72.8373924189709 72.22212049075262 71.65079655740706 70.68394067020692 70.37630470609778 69.87090276506135 69.18970884453397 68.68430690349753 68.09100897271563 67.03625709577 66.48690715986083 65.67386925471524 65.01464933162424 64.2455594213514 63.476469511078555 62.72935359824208 62.20197765976927 61.54275773667826 61.03735579564182 60.26826588536898 59.784837941768906 58.73008606482329 57.82915216993224 57.27980223402307 56.884270280168465 56.378868339132026 55.67570042116829 54.31331258011353 53.280534700604285 52.40157480314961 51.7423548800586 51.03918696209485 50.116279069767444 49.2153451748764 48.00677531587621 46.688335469694195 45.78740157480315 44.820545687603 43.831715802966485 43.304339864493684 42.44735396447537 42.38143197216627 41.81010803882073 41.17286211316609 40.82127815418421 40.35982420802051 39.5687603003113 39.173228346456696 38.38216443874748 38.05255447720198 37.2395165720564 36.558322651529025 36.16279069767442 35.78923274125618 35.30580479765611 34.88829884636513 34.29500091558323 33.89946896172862 33.174327046328514 32.3832631386193 31.89983519501923 31.52627723860099 31.15271928218275 30.801135323200878 30.559421351400843 30.317707379600805 30.097967405237135 29.570591466764327 29.284929500091557 28.69163156930965 28.18622962827321 27.395165720564 26.779893792345725 26.494231825672955 25.900933894891047 24.78026002563633 24.450650064090826 24.077092107672588 23.85735213330892 23.681560153817983 23.220106207654275 22.802600256363302 22.31917231276323 22.275224317890498 21.989562351217725 21.90166636147226 21.989562351217725 21.550082402490386 21.35231642556308 21.044680461453947 20.737044497344808 20.627174510162973 20.473356528108404 20.429408533235673 20.495330525544773 20.429408533235673 20.45138253067204 20.341512543490204 20.319538546053835 20.429408533235673 20.38546053836294 20.605200512726608 20.58322651529024 20.627174510162973 20.737044497344808 20.868888481963012 21.418238417872185 21.923640358908624 22.011536348654094 22.165354330708663 22.648782274308736 22.802600256363302 22.692730269181467 22.648782274308736 22.868522248672406 22.868522248672406 22.89049624610877 22.868522248672406 22.95641823841787 23.154184215345175 23.242080205090645 23.26405420252701 23.26405420252701 23.32997619483611 23.39589818714521 23.48379417689068 23.659586156381614 24.582494048709027 25.109869987181835 25.615271928218274 25.813037905145578 25.878959897454678 25.900933894891047 25.900933894891047 25.900933894891047 25.878959897454678 25.835011902581943 25.813037905145578 25.791063907709212 25.769089910272843 25.769089910272843 25.747115912836477 25.747115912836477 25.747115912836477 25.72514191540011 25.72514191540011 25.72514191540011 25.72514191540011 25.72514191540011 25.72514191540011 25.72514191540011 25.72514191540011 25.72514191540011 25.72514191540011 25.72514191540011 25.72514191540011 25.72514191540011 25.72514191540011 25.72514191540011 25.72514191540011 25.703167917963743 25.703167917963743 25.703167917963743 25.703167917963743 25.703167917963743 25.703167917963743 25.681193920527377 25.681193920527377 25.681193920527377 25.681193920527377 25.65921992309101 25.65921992309101 25.65921992309101 25.637245925654643 25.637245925654643 25.637245925654643 25.637245925654643 25.615271928218274 25.593297930781908 25.593297930781908 25.593297930781908 25.593297930781908 25.593297930781908 25.571323933345543 25.571323933345543 25.571323933345543 25.571323933345543 25.571323933345543 25.549349935909174 25.549349935909174 25.549349935909174 25.549349935909174 25.549349935909174 25.549349935909174 25.549349935909174 25.549349935909174 25.549349935909174 25.549349935909174 25.549349935909174 25.549349935909174 25.549349935909174 25.549349935909174 25.549349935909174 25.549349935909174 25.527375938472808 25.549349935909174 25.549349935909174 25.527375938472808 25.549349935909174 25.527375938472808 25.549349935909174 25.549349935909174 25.527375938472808 25.527375938472808 25.527375938472808 25.527375938472808 25.549349935909174 25.527375938472808 25.527375938472808 25.527375938472808 25.527375938472808 25.527375938472808 25.527375938472808 25.527375938472808 25.527375938472808 25.527375938472808 25.527375938472808 25.527375938472808 25.527375938472808 25.527375938472808 25.527375938472808 25.527375938472808 25.527375938472808 25.527375938472808 25.50540194103644 25.50540194103644 25.527375938472808 25.50540194103644 25.50540194103644 25.50540194103644 25.50540194103644 25.50540194103644 25.50540194103644 25.50540194103644 25.50540194103644 25.50540194103644 25.50540194103644 25.50540194103644 25.50540194103644 25.50540194103644 25.50540194103644 25.50540194103644 25.50540194103644 25.50540194103644 25.50540194103644 25.50540194103644 25.50540194103644 25.50540194103644 25.50540194103644 25.50540194103644 25.50540194103644 25.50540194103644 25.50540194103644 25.50540194103644 25.50540194103644 25.50540194103644 25.50540194103644 25.483427943600073 25.50540194103644 25.50540194103644 25.50540194103644 25.50540194103644 25.50540194103644 25.483427943600073 25.50540194103644 25.50540194103644 25.50540194103644 25.50540194103644 25.50540194103644 25.50540194103644 25.50540194103644 25.50540194103644 25.50540194103644 25.50540194103644 25.50540194103644 25.483427943600073 25.483427943600073 25.50540194103644 25.50540194103644 25.483427943600073 25.50540194103644 25.483427943600073 25.483427943600073 25.483427943600073 25.483427943600073 25.50540194103644 25.483427943600073 25.483427943600073 25.483427943600073 25.50540194103644 25.50540194103644 25.50540194103644 25.483427943600073 25.50540194103644 25.50540194103644 25.50540194103644 25.50540194103644 25.50540194103644 25.483427943600073 25.50540194103644 25.50540194103644 25.50540194103644 25.50540194103644 25.50540194103644 25.50540194103644 25.50540194103644 25.50540194103644 25.50540194103644 25.50540194103644 25.50540194103644 25.50540194103644 25.50540194103644 25.50540194103644 25.50540194103644 25.527375938472808 25.50540194103644 25.50540194103644 25.50540194103644 25.50540194103644 25.50540194103644 25.50540194103644 25.50540194103644 25.50540194103644 25.50540194103644 25.527375938472808 25.527375938472808 25.527375938472808 25.50540194103644 25.50540194103644 25.50540194103644 25.527375938472808 25.527375938472808 25.50540194103644 25.50540194103644 25.527375938472808 25.527375938472808 25.527375938472808 25.527375938472808 25.527375938472808 25.527375938472808 25.527375938472808 25.527375938472808 25.527375938472808 25.527375938472808 25.527375938472808 25.527375938472808 25.527375938472808 25.527375938472808 25.527375938472808 25.527375938472808 25.527375938472808 25.527375938472808 25.527375938472808 25.527375938472808 25.527375938472808 25.527375938472808 25.527375938472808 25.527375938472808 25.527375938472808 25.527375938472808 25.549349935909174 25.527375938472808 25.549349935909174 25.549349935909174 25.549349935909174 25.571323933345543 25.593297930781908 25.615271928218274 25.615271928218274 25.65921992309101 25.703167917963743 25.72514191540011 25.791063907709212 25.900933894891047 25.988829884636512 26.14264786669108 26.23054385643655 26.340413843618386 26.164621864127447 24.64841604101813 23.61563816150888 23.901300128181653 24.186962094854422 24.384728071781726 24.450650064090826 24.208936092290788 24.186962094854422 24.099066105108953 24.252884087163523 24.56052005127266 25.944881889763778 26.67002380516389 27.02160776414576 27.724775682109502 28.999267533418788 29.48269547701886 29.966123420618935 30.493499359091743 31.130745284746382 32.1195751693829 32.712873100164806 33.767624977110415 34.42684490020143 34.9761948361106 36.118842702801686 36.756088628456325 37.92071049258378 39.898370261856805 40.71140816700238 41.9639260208753 43.106573887566384 43.85368980040286 44.99633766709394 45.78740157480315 46.995971433803334 48.05072331074895 48.84178721845816 50.006409082585606 51.4786669108222 52.18183482878594 53.14869071598608 53.54422266984069 54.42318256729537 55.36806445705915 55.983336385277426 57.21388024171397 58.09284013916865 58.79600805713239 59.674967954587075 60.158395898187145 60.94945980589635 62.24592565464201 62.905145577733016 63.87200146493316 64.81688335469694 65.41018128547884 66.33308917780627 66.99230910089727 67.98113898553379 68.86009888298847 69.45339681377037 70.28840871635232 70.92565464200696 71.82658853689802 73.1010803882073 73.78227430873466 74.46346822926205 75.58414209851676 76.3532320087896 77.32008789598976 78.19904779344444 79.34169566013551 79.89104559604468 80.44039553195387 80.96777147042667 81.93462735762681 82.35213330891779 82.92345724226331 83.29701519868156 83.8683391320271 84.3957150704999 84.76927302691814 85.36257095770006 85.91192089360922 86.28547885002747 86.81285478850029 87.12049075260941 87.58194469877311 88.08734663980957 88.30708661417323 88.50485259110053 88.7245925654642 88.83446255264604 88.9882805347006 89.03222852957333 89.0542025270097 89.0542025270097 89.0542025270097 89.0542025270097 89.0542025270097 89.0542025270097 89.0542025270097 89.03222852957333 89.01025453213697 89.03222852957333 89.01025453213697 89.01025453213697 89.03222852957333 89.01025453213697 88.9882805347006 88.9882805347006 88.94433253982787 88.9223585423915 88.90038454495513 88.87841054751877 88.83446255264604 88.81248855520967 88.7905145577733 88.76854056033693 88.76854056033693 88.76854056033693 88.74656656290057 88.7245925654642 88.70261856802784 88.63669657571873 88.57077458340964 88.52682658853689 88.48287859366417 88.41695660135505 88.39498260391869 88.37300860648233 88.37300860648233 88.32906061160959 88.32906061160959 88.32906061160959 88.30708661417323 88.32906061160959 88.32906061160959 88.32906061160959 88.32906061160959 88.32906061160959 88.30708661417323 88.30708661417323 88.30708661417323 88.30708661417323 88.30708661417323 88.30708661417323 88.30708661417323 88.30708661417323 88.28511261673685 88.28511261673685 88.28511261673685 88.28511261673685 88.26313861930049 88.26313861930049 88.24116462186413 88.21919062442777 88.17524262955503 88.15326863211865 88.08734663980957 88.04339864493683 88.02142464750045 87.99945065006409 87.99945065006409 87.99945065006409 87.97747665262773 87.97747665262773 87.99945065006409 87.99945065006409 87.99945065006409 87.97747665262773 87.95550265519137 87.91155466031863 87.86760666544589 87.82365867057317 87.77971067570043 87.71378868339133 87.66984068851858 87.60391869620949 87.58194469877311 87.55997070133675 87.53799670390038 87.51602270646401 87.51602270646401 87.51602270646401 87.51602270646401 87.51602270646401 87.53799670390038 87.53799670390038 87.53799670390038 87.55997070133675 87.55997070133675 87.53799670390038 87.53799670390038 87.51602270646401 87.51602270646401 87.49404870902765 87.49404870902765 87.49404870902765 87.49404870902765 87.47207471159129 87.42812671671855 87.40615271928218 87.36220472440945 87.31825672953671 87.27430873466398 87.20838674235489 87.14246475004578 87.09851675517305 87.05456876030031 86.94469877311849 86.90075077824574 86.85680278337301 86.7908807910639 86.74693279619117 86.70298480131844 86.68101080388207 86.63706280900934 86.61508881157297 86.57114081670024 86.54916681926387 86.50521882439114 86.50521882439114 86.46127082951841 86.41732283464567 86.37337483977294 86.35140084233657 86.32942684490021 86.32942684490021 86.30745284746384 86.28547885002747 86.2635048525911 86.24153085515474 86.21955685771837 86.21955685771837 86.19758286028201 86.19758286028201 86.15363486540927 86.15363486540927 86.1316608679729 86.1316608679729 86.10968687053654 86.1316608679729 86.1316608679729 86.10968687053654 86.10968687053654 86.1316608679729 86.10968687053654 86.1316608679729 86.1316608679729 86.10968687053654 86.10968687053654 86.10968687053654 86.10968687053654 86.10968687053654 86.10968687053654 86.10968687053654 86.10968687053654 86.10968687053654 86.10968687053654 86.10968687053654 86.08771287310017 86.10968687053654 86.10968687053654 86.10968687053654 86.10968687053654 86.08771287310017 86.10968687053654 86.10968687053654 86.10968687053654 86.08771287310017 86.04376487822742 86.02179088079106 85.97784288591834 85.95586888848196 85.91192089360922 85.88994689617286 85.88994689617286 85.84599890130013 85.84599890130013 85.84599890130013 85.82402490386376 85.82402490386376 85.8020509064274 85.8020509064274 85.8020509064274 85.8020509064274 85.8020509064274 85.8020509064274 85.8020509064274 85.78007690899102 85.75810291155466 85.75810291155466 85.7361289141183 85.7361289141183 85.71415491668193 85.71415491668193 85.71415491668193 85.69218091924556 85.69218091924556 85.6702069218092 85.64823292437282 85.62625892693646 85.6042849295001 85.6042849295001 85.58231093206373 85.58231093206373 85.56033693462736 85.51638893975462 85.49441494231826 85.4724409448819 85.45046694744553 85.42849295000916 85.4065189525728 85.4065189525728 85.36257095770006 85.3405969602637 85.3405969602637 85.31862296282733 85.29664896539094 85.27467496795458 85.23072697308186 85.2087529756455 85.18677897820913 85.09888298846366 85.07690899102728 85.05493499359092 84.98901300128182 84.98901300128182 84.94506500640908 84.92309100897272 84.87914301409998 84.83519501922726 84.83519501922726 84.79124702435452 84.79124702435452 84.79124702435452 84.79124702435452 84.79124702435452 84.76927302691814 84.74729902948178 84.74729902948178 84.72532503204542 84.68137703717268 84.65940303973632 84.61545504486358 84.61545504486358 84.57150704999086 84.57150704999086 84.57150704999086 84.57150704999086 84.57150704999086 84.57150704999086 84.57150704999086 84.57150704999086 84.5275590551181 84.5275590551181 84.48361106024538 84.46163706280902 84.43966306537266 84.3957150704999 84.35176707562718 84.3297930781908 84.24189708844534 84.15400109869987 84.1320271012635 84.0661051089544 84.04413111151804 83.95623512177258 83.89031312946346 83.78044314228164 83.71452114997254 83.62662516022706 83.53872917048159 83.42885918329976 83.36293719099066 83.27504120124519 83.16517121406336 83.09924922175426 82.98937923457243 82.90148324482695 82.83556125251786 82.79161325764511 82.74766526277239 82.72569126533602 82.65976927302691 82.59384728071782 82.50595129097235 82.39608130379051 82.33015931148142 82.19831532686322 82.11041933711775 82.02252334737227 81.80278337300861 81.67093938839041 81.38527742171763 81.0117194652994 80.72605749862663 80.41842153451748 80.24262955502655 80.00091558322652 79.71525361655375 79.49551364219008 79.16590368064458 78.79234572422632 78.59457974729904 78.352865775499 78.1550997985717 77.89141182933528 77.60574986266252 77.40798388573522 77.0783739241897 76.8806079472624 76.72678996520784 76.37520600622597 76.2213880241714 75.97967405237137 75.5621681010804 75.32045412928035 74.96887017029849 74.55136421900751 74.26570225233473 73.7603003112983 73.38674235488006 72.74949642922542 72.11225050357078 71.65079655740706 70.99157663431606 70.55209668558872 69.6951107855704 69.21168284197034 68.75022889580663 68.35469694195203 67.76139901117011 67.36586705731551 66.46493316242447 66.04742721113348 65.30031129829702 64.66306537264236 64.20161142647866 63.74015748031496 62.79527559055118 62.24592565464201 61.7185497161692 61.30104376487823 60.575901849478115 59.60904596227797 59.0596960263688 58.57626808276872 57.85112616736861 57.43362021607764 56.9282182750412 56.598608313495696 55.76359641091375 55.14832448269547 54.73081853140451 54.269364585240794 53.412378685222485 52.731184764695115 51.50064090825856 50.95129097234938 50.29207104925838 49.45705914667643 48.77586522614906 48.18256729536715 47.3475553927852 46.754257462003295 45.76542757736678 45.06225965940304 44.40303973631203 43.74381981322102 43.370261856802784 42.75498992858451 42.38143197216627 41.9639260208753 41.48049807727523 41.37062809009339 40.88720014649331 40.030214246475005 39.612708295184035 39.12928035158396 38.60190441311115 38.11847646951108 37.063724592565464 36.843984618201794 35.96502472074712 35.63541475920161 35.50357077458341 35.34975279252884 34.86632484892877 34.38289690532869 33.92144295916499 33.591832997619484 33.174327046328514 32.800769089910276 32.5151071232375 31.72404321552829 31.548251236037355 31.15271928218275 30.889031312946347 30.625343343709943 30.42757736678264 30.163889397546235 29.570591466764327 28.735579564182384 28.449917597509614 27.614905694927668 26.340413843618386 25.593297930781908 24.34078007690899 23.659586156381614 23.066288225599706 22.275224317890498 21.791796374290424 21.418238417872185 21.35231642556308 21.22047244094488 21.066654458890312 20.956784471708477 20.956784471708477 20.627174510162973 20.561252517853873 20.341512543490204 20.341512543490204 20.253616553744735 20.1437465665629 19.902032594762865 19.967954587071965 20.165720563999265 20.627174510162973 21.176524446072147 21.989562351217725 22.25325032045413 22.648782274308736 23.088262223036075 23.242080205090645 23.57169016663615 23.57169016663615 23.57169016663615 23.48379417689068 23.54971616919978 23.63761215894525 23.98919611792712 25.37355795641824 25.769089910272843 25.944881889763778 26.01080388207288 26.01080388207288 25.988829884636512 25.966855887200147 25.966855887200147 25.944881889763778 25.922907892327412 25.900933894891047 25.900933894891047 25.878959897454678 25.878959897454678 25.856985900018312 25.878959897454678 25.835011902581943 25.835011902581943 25.813037905145578 25.791063907709212 25.791063907709212 25.791063907709212 25.769089910272843 25.769089910272843 25.747115912836477 25.72514191540011 25.72514191540011 25.72514191540011 25.72514191540011 25.72514191540011 25.72514191540011 25.703167917963743 25.703167917963743 25.703167917963743 25.703167917963743 25.703167917963743 25.703167917963743 25.703167917963743 25.703167917963743 25.681193920527377 25.681193920527377 25.703167917963743 25.703167917963743 25.681193920527377 25.703167917963743 25.681193920527377 25.681193920527377 25.681193920527377 25.681193920527377 25.703167917963743 25.681193920527377 25.681193920527377 25.681193920527377 25.65921992309101 25.65921992309101 25.65921992309101 25.65921992309101 25.65921992309101 25.65921992309101 25.637245925654643 25.637245925654643 25.637245925654643 25.637245925654643 25.637245925654643 25.637245925654643 25.615271928218274 25.615271928218274 25.615271928218274 25.615271928218274 25.615271928218274 25.593297930781908 25.593297930781908 25.593297930781908 25.593297930781908 25.593297930781908 25.593297930781908 25.571323933345543 25.571323933345543 25.571323933345543 25.571323933345543 25.571323933345543 25.571323933345543 25.571323933345543 25.571323933345543 25.571323933345543 25.571323933345543 25.571323933345543 25.549349935909174 25.571323933345543 25.571323933345543 25.549349935909174 25.549349935909174 25.549349935909174 25.549349935909174 25.549349935909174 25.549349935909174 25.549349935909174 25.549349935909174 25.527375938472808 25.549349935909174 25.527375938472808 25.527375938472808 25.527375938472808 25.527375938472808 25.527375938472808 25.527375938472808 25.527375938472808 25.527375938472808 25.527375938472808 25.50540194103644 25.50540194103644 25.50540194103644 25.50540194103644 25.50540194103644 25.50540194103644 25.50540194103644 25.50540194103644 25.50540194103644 25.50540194103644 25.483427943600073 25.483427943600073 25.50540194103644 25.483427943600073 25.483427943600073 25.483427943600073 25.483427943600073 25.483427943600073 25.483427943600073 25.483427943600073 25.483427943600073 25.483427943600073 25.483427943600073 25.483427943600073 25.483427943600073 25.483427943600073 25.483427943600073 25.483427943600073 25.483427943600073 25.483427943600073 25.483427943600073 25.483427943600073 25.483427943600073 25.483427943600073 25.483427943600073 25.483427943600073 25.483427943600073 25.483427943600073 25.483427943600073 25.483427943600073 25.483427943600073 25.483427943600073 25.483427943600073 25.461453946163708 25.461453946163708 25.483427943600073 25.461453946163708 25.461453946163708 25.461453946163708 25.461453946163708 25.461453946163708 25.461453946163708 25.461453946163708 25.461453946163708 25.461453946163708 25.461453946163708 25.461453946163708 25.461453946163708 25.461453946163708 25.461453946163708 25.461453946163708 25.461453946163708 25.461453946163708 25.461453946163708 25.461453946163708 25.461453946163708 25.461453946163708 25.461453946163708 25.461453946163708 25.461453946163708 25.461453946163708 25.461453946163708 25.43947994872734 25.461453946163708 25.461453946163708 25.43947994872734 25.43947994872734 25.43947994872734 25.43947994872734 25.43947994872734 25.43947994872734 25.43947994872734 25.43947994872734 25.43947994872734 25.43947994872734 25.43947994872734 25.43947994872734 25.43947994872734 25.43947994872734 25.43947994872734 25.43947994872734 25.43947994872734 25.43947994872734 25.43947994872734 25.417505951290973 25.417505951290973 25.417505951290973 25.43947994872734 25.43947994872734 25.417505951290973 25.417505951290973 25.43947994872734 25.417505951290973 25.417505951290973 25.417505951290973 25.417505951290973 25.417505951290973 25.43947994872734 25.43947994872734 25.417505951290973 25.417505951290973 25.417505951290973 25.417505951290973 25.43947994872734 25.43947994872734 25.43947994872734 25.417505951290973 25.43947994872734 25.43947994872734 25.43947994872734 25.43947994872734 25.43947994872734 25.43947994872734 25.43947994872734 25.461453946163708 25.461453946163708 25.483427943600073 25.483427943600073 25.483427943600073 25.483427943600073 25.50540194103644 25.527375938472808 25.527375938472808 25.527375938472808 25.549349935909174 25.549349935909174 25.549349935909174 25.571323933345543 25.615271928218274 25.637245925654643 25.65921992309101 25.681193920527377 25.703167917963743 25.769089910272843 25.835011902581943 25.900933894891047 25.966855887200147 26.054751876945616 26.120673869254716 26.23054385643655 26.318439846182017 26.472257828236586 26.626075810291155 26.73594579747299 26.867789782091194 27.10950375389123 27.241347738509432 27.505035707745833 27.724775682109502 28.142281633400476 28.64768357443692 29.043215528291523 29.680461453946165 30.29573338216444 30.757187328328143 31.41640725141915 32.0536531770738 32.42721113349204 32.82274308734664 33.284197033510345 33.855520966855885 34.40487090276506 35.08606482329244 36.360556674601725 36.843984618201794 37.54715253616554 38.25032045412928 38.73374839772936 39.4369163156931 40.33785021058414 40.97509613623878 42.00787401574803 42.71104193371177 43.787767808093754 45.17212964658488 45.65555759018495 46.600439479948726 47.65519135689434 48.38033327229445 49.479033144112805 50.533785021058414 51.56656290056766 52.55539278520418 53.192638710858816 53.80791063907709 54.77476652627723 55.34609045962278 56.466764328877495 57.016114264786665 57.76323017762314 58.55429408533236 59.03772202893243 59.740889946896175 60.224317890496245 