25.0 25.0 25.0 25.0 25.0 25.0 25.0 25.0 25.0 25.0 25.0 25.0 25.021973997436366 25.0 25.0 25.0 25.0 25.0 25.0 25.0 25.0 25.0 25.0 25.0 25.0 25.0 25.0 25.0 25.0 25.0 25.0 25.0 25.0 25.0 25.0 25.0 25.0 25.0 25.0 25.0 25.0 25.0 25.0 25.0 25.0 25.0 25.0 25.021973997436366 25.0 25.0 25.0 25.0 25.0 25.0 25.0 25.0 25.0 25.0 25.0 25.0 25.0 25.021973997436366 25.0 25.0 25.0 25.0 25.0 25.0 25.0 25.0 25.0 25.0 25.0 25.0 25.0 25.0 25.0 25.0 25.0 25.0 25.0 25.0 25.0 25.0 25.0 25.0 25.0 25.0 24.978026002563634 25.0 25.0 24.978026002563634 25.0 25.0 24.978026002563634 25.0 25.0 24.978026002563634 25.0 24.978026002563634 24.978026002563634 24.978026002563634 24.978026002563634 24.978026002563634 24.978026002563634 24.978026002563634 24.978026002563634 25.0 24.978026002563634 24.978026002563634 24.978026002563634 24.978026002563634 24.978026002563634 24.978026002563634 24.978026002563634 24.956052005127265 24.956052005127265 24.978026002563634 24.978026002563634 24.978026002563634 24.978026002563634 24.978026002563634 24.956052005127265 24.956052005127265 24.956052005127265 24.978026002563634 24.978026002563634 24.978026002563634 24.956052005127265 24.956052005127265 24.956052005127265 24.978026002563634 24.956052005127265 24.956052005127265 24.956052005127265 24.956052005127265 24.956052005127265 24.956052005127265 24.956052005127265 24.956052005127265 24.956052005127265 24.956052005127265 24.956052005127265 24.956052005127265 24.956052005127265 24.956052005127265 24.956052005127265 24.956052005127265 24.956052005127265 24.956052005127265 24.956052005127265 24.956052005127265 24.956052005127265 24.956052005127265 24.956052005127265 24.956052005127265 24.9340780076909 24.9340780076909 24.956052005127265 24.9340780076909 24.9340780076909 24.9340780076909 24.9340780076909 24.9340780076909 24.9340780076909 24.9340780076909 24.9340780076909 24.9340780076909 24.9340780076909 24.9340780076909 24.9340780076909 24.91210401025453 24.9340780076909 24.91210401025453 24.91210401025453 24.9340780076909 24.9340780076909 24.91210401025453 24.91210401025453 24.91210401025453 24.91210401025453 24.91210401025453 24.91210401025453 24.890130012818165 24.890130012818165 24.8681560153818 24.8681560153818 24.8681560153818 24.8681560153818 24.8681560153818 24.8681560153818 24.8681560153818 24.8681560153818 24.84618201794543 24.8681560153818 24.8681560153818 24.8681560153818 24.8681560153818 24.8681560153818 24.8681560153818 24.8681560153818 24.8681560153818 24.8681560153818 24.8681560153818 24.8681560153818 24.8681560153818 24.84618201794543 24.8681560153818 24.8681560153818 24.8681560153818 24.8681560153818 24.84618201794543 24.84618201794543 24.84618201794543 24.8681560153818 24.84618201794543 24.84618201794543 24.84618201794543 24.84618201794543 24.84618201794543 24.84618201794543 24.84618201794543 24.84618201794543 24.84618201794543 24.84618201794543 24.84618201794543 24.84618201794543 24.84618201794543 24.84618201794543 24.84618201794543 24.84618201794543 24.84618201794543 24.84618201794543 24.824208020509065 24.84618201794543 24.84618201794543 24.84618201794543 24.824208020509065 24.824208020509065 24.84618201794543 24.824208020509065 24.824208020509065 24.824208020509065 24.824208020509065 24.824208020509065 24.824208020509065 24.824208020509065 24.84618201794543 24.824208020509065 24.824208020509065 24.824208020509065 24.824208020509065 24.824208020509065 24.824208020509065 24.824208020509065 24.824208020509065 24.824208020509065 24.824208020509065 24.824208020509065 24.824208020509065 24.824208020509065 24.824208020509065 24.824208020509065 24.824208020509065 24.824208020509065 24.824208020509065 24.824208020509065 24.824208020509065 24.824208020509065 24.824208020509065 24.824208020509065 24.824208020509065 24.824208020509065 24.824208020509065 24.824208020509065 24.824208020509065 24.824208020509065 24.824208020509065 24.824208020509065 24.824208020509065 24.824208020509065 24.824208020509065 24.824208020509065 24.824208020509065 24.824208020509065 24.824208020509065 24.824208020509065 24.824208020509065 24.824208020509065 24.824208020509065 24.824208020509065 24.824208020509065 24.824208020509065 24.824208020509065 24.824208020509065 24.824208020509065 24.824208020509065 24.824208020509065 24.824208020509065 24.824208020509065 24.824208020509065 24.824208020509065 24.824208020509065 24.824208020509065 24.824208020509065 24.824208020509065 24.824208020509065 24.824208020509065 24.824208020509065 24.824208020509065 24.824208020509065 24.824208020509065 24.824208020509065 24.824208020509065 24.824208020509065 24.824208020509065 24.824208020509065 24.824208020509065 24.824208020509065 24.824208020509065 24.824208020509065 24.824208020509065 24.824208020509065 24.824208020509065 24.824208020509065 24.824208020509065 24.824208020509065 24.824208020509065 24.824208020509065 24.824208020509065 24.824208020509065 24.824208020509065 24.824208020509065 24.824208020509065 24.824208020509065 24.824208020509065 24.824208020509065 24.824208020509065 24.824208020509065 24.824208020509065 24.824208020509065 24.824208020509065 24.824208020509065 24.824208020509065 24.824208020509065 24.824208020509065 24.824208020509065 24.824208020509065 24.824208020509065 24.824208020509065 24.824208020509065 24.824208020509065 24.824208020509065 24.824208020509065 24.824208020509065 24.802234023072696 24.824208020509065 24.824208020509065 24.824208020509065 24.824208020509065 24.824208020509065 24.824208020509065 24.824208020509065 24.824208020509065 24.824208020509065 24.802234023072696 24.824208020509065 24.824208020509065 24.824208020509065 24.824208020509065 24.824208020509065 24.824208020509065 24.824208020509065 24.802234023072696 24.824208020509065 24.824208020509065 24.824208020509065 24.824208020509065 24.824208020509065 24.824208020509065 24.802234023072696 24.824208020509065 24.824208020509065 24.824208020509065 24.824208020509065 24.824208020509065 24.824208020509065 24.824208020509065 24.824208020509065 24.824208020509065 24.824208020509065 24.802234023072696 24.824208020509065 24.824208020509065 24.824208020509065 24.824208020509065 24.824208020509065 24.824208020509065 24.824208020509065 24.824208020509065 24.824208020509065 24.824208020509065 24.802234023072696 24.824208020509065 24.824208020509065 24.824208020509065 24.824208020509065 24.824208020509065 24.824208020509065 24.824208020509065 24.824208020509065 24.824208020509065 24.824208020509065 24.824208020509065 24.824208020509065 24.824208020509065 24.824208020509065 24.824208020509065 24.824208020509065 24.802234023072696 24.824208020509065 24.824208020509065 24.824208020509065 24.824208020509065 24.824208020509065 24.824208020509065 24.824208020509065 24.824208020509065 24.824208020509065 24.824208020509065 24.824208020509065 24.824208020509065 24.824208020509065 24.824208020509065 24.824208020509065 24.824208020509065 24.824208020509065 24.824208020509065 24.802234023072696 24.824208020509065 24.824208020509065 24.824208020509065 24.824208020509065 24.824208020509065 24.824208020509065 24.824208020509065 24.824208020509065 24.824208020509065 24.824208020509065 24.824208020509065 24.824208020509065 24.802234023072696 24.802234023072696 24.824208020509065 24.824208020509065 24.824208020509065 24.824208020509065 24.824208020509065 24.824208020509065 24.824208020509065 24.824208020509065 24.824208020509065 24.802234023072696 24.824208020509065 24.824208020509065 24.802234023072696 24.802234023072696 24.824208020509065 24.824208020509065 24.824208020509065 24.824208020509065 24.824208020509065 24.824208020509065 24.824208020509065 24.824208020509065 24.824208020509065 24.824208020509065 24.824208020509065 24.824208020509065 24.824208020509065 24.824208020509065 24.824208020509065 24.824208020509065 24.802234023072696 24.802234023072696 24.824208020509065 24.824208020509065 24.824208020509065 24.824208020509065 24.824208020509065 24.824208020509065 24.824208020509065 24.824208020509065 24.824208020509065 24.824208020509065 24.824208020509065 24.824208020509065 24.824208020509065 24.824208020509065 24.824208020509065 24.824208020509065 24.824208020509065 24.824208020509065 24.802234023072696 24.824208020509065 24.824208020509065 24.824208020509065 24.824208020509065 24.824208020509065 24.802234023072696 24.824208020509065 24.824208020509065 24.824208020509065 24.824208020509065 24.824208020509065 24.824208020509065 24.824208020509065 24.824208020509065 24.824208020509065 24.824208020509065 24.824208020509065 24.824208020509065 24.824208020509065 24.824208020509065 24.802234023072696 24.824208020509065 24.824208020509065 24.824208020509065 24.824208020509065 24.824208020509065 24.802234023072696 24.802234023072696 24.824208020509065 24.824208020509065 24.824208020509065 24.802234023072696 24.824208020509065 24.824208020509065 24.802234023072696 24.802234023072696 24.824208020509065 24.802234023072696 24.802234023072696 24.802234023072696 24.802234023072696 24.802234023072696 24.824208020509065 24.824208020509065 24.824208020509065 24.824208020509065 24.824208020509065 24.802234023072696 24.824208020509065 24.824208020509065 24.802234023072696 24.802234023072696 24.802234023072696 24.802234023072696 24.824208020509065 24.802234023072696 24.802234023072696 24.824208020509065 24.824208020509065 24.824208020509065 24.802234023072696 24.802234023072696 24.802234023072696 24.824208020509065 24.824208020509065 24.824208020509065 24.824208020509065 24.802234023072696 24.802234023072696 24.824208020509065 24.802234023072696 24.824208020509065 24.824208020509065 24.802234023072696 24.802234023072696 24.824208020509065 24.802234023072696 24.824208020509065 24.824208020509065 24.824208020509065 24.824208020509065 24.824208020509065 24.802234023072696 24.824208020509065 24.824208020509065 24.824208020509065 24.802234023072696 24.824208020509065 24.802234023072696 24.824208020509065 24.802234023072696 24.824208020509065 24.824208020509065 24.824208020509065 24.824208020509065 24.824208020509065 24.824208020509065 24.824208020509065 24.824208020509065 24.824208020509065 24.824208020509065 24.824208020509065 24.824208020509065 24.824208020509065 24.824208020509065 24.824208020509065 24.824208020509065 24.824208020509065 24.824208020509065 24.824208020509065 24.824208020509065 24.8681560153818 24.9340780076909 25.021973997436366 25.109869987181835 25.197765976927304 25.28566196667277 25.37355795641824 25.461453946163708 25.571323933345543 25.703167917963743 25.813037905145578 25.922907892327412 26.054751876945616 26.208569859000182 26.36238784105475 26.538179820545686 26.73594579747299 26.95568577183666 27.153451748763963 27.329243728254898 27.527009705182202 27.74674967954587 28.010437648782275 28.31807361289141 28.603735579564184 28.933345541109688 29.262955502655192 29.592565464200696 29.944149423182566 30.273759384728073 30.669291338582678 31.042849295000916 31.43838124885552 31.78996520783739 32.09760117194653 32.3173411463102 32.581029115546606 32.778795092473906 32.97656106940121 33.218275041201245 33.438015015564915 33.723676982237684 33.98736495147409 34.29500091558323 34.60263687969236 34.88829884636513 35.17396081303791 35.48159677714705 35.78923274125618 36.052920710492586 36.338582677165356 36.624244643838125 36.887932613074526 37.1735945797473 37.45925654642007 37.7668925105292 38.11847646951108 38.38216443874748 38.71177440029299 39.01941036440212 39.32704632851126 39.6346822926204 39.898370261856805 40.206006225965936 40.579564182384175 40.90917414392968 41.21681010803882 41.54642006958433 41.89800402856619 42.31550997985717 42.75498992858451 43.216443874748215 43.699871818348285 44.16132576451199 44.6227797106757 45.17212964658488 45.74345357993042 46.314777513275956 46.79820545687603 47.325581395348834 48.02874931331258 48.73191723127633 49.2153451748764 49.808643105658305 50.336019044131106 50.68760300311298 51.28090093389489 51.85222486724043 52.37960080571324 53.060794726240616 53.52224867240432 54.37923457242263 55.08240249038637 55.30214246475005 55.87346639809559 56.466764328877495 56.840322285295734 57.52151620582311 57.93902215711408 58.42245010071415 58.90587804431423 59.27943600073247 59.652993957150706 60.026551913568944 60.597875846914484 61.25709577000549 61.60867972898736 62.13605566746017 62.66343160593298 63.036989562351216 63.586339498260394 64.09174143929684 64.55319538546054 65.1684673136788 65.56399926753342 66.20124519318806 66.9044131111518 68.22285295733383 68.66233290606115 69.14576084966123 69.65116279069767 70.13459073429775 70.57407068302508 71.167368613807 71.84856253433438 72.22212049075262 72.63962644204358 73.29884636513458 73.78227430873466 74.52939022157113 75.38637612158945 75.5621681010804 76.00164804980773 76.63889397546237 77.34206189342612 77.84746383446256 78.39681377037172 79.05603369346274 79.5394616370628 80.19868156015382 80.77000549349935 81.86870536531771 82.30818531404505 82.85753524995422 83.3409631935543 84.21992309100898 84.76927302691814 85.23072697308186 85.82402490386376 86.10968687053654 86.5271928218275 86.76890679362754 87.03259476286395 87.18641274491851 87.23036073979125 87.25233473722761 87.25233473722761 87.23036073979125 87.03259476286395 86.76890679362754 86.3953488372093 85.8679728987365 85.4724409448819 84.79124702435452 84.28584508331807 83.53872917048159 82.76963926020875 82.13239333455411 81.51712140633583 80.17670756271745 79.86907159860831 79.03405969602638 78.44076176524446 77.75956784471708 76.5509979857169 76.13349203442593 75.21058414209853 74.61728621131661 73.78227430873466 72.88134041384362 72.2880424830617 71.40908258560702 70.63999267533418 70.06866874198866 69.21168284197034 68.94799487273393 68.26680095220655 67.36586705731551 66.9044131111518 66.3111151803699 65.93755722395166 65.45412928035158 64.97070133675152 64.5751693828969 63.784105475187694 63.212781541842155 62.75132759567845 62.20197765976927 61.43288774949643 61.16919978026002 60.663797839223584 60.26826588536898 59.69694195202344 59.08167002380517 58.66416407251419 57.82915216993224 57.191906244277604 56.884270280168465 56.26899835195019 55.76359641091375 54.86266251602271 54.137520600622594 53.632118659586155 52.88500274674968 52.1378868339132 51.69840688518586 51.06116095953122 50.511811023622045 49.4131111518037 48.68796923640359 48.13861930049441 47.30360739791247 46.688335469694195 46.13898553378502 45.45779161325764 44.93041567478484 44.31514374656656 43.633949826039185 43.194469877311846 42.51327595678447 41.52444607214796 41.019044131111514 40.62351217725691 40.227980223402305 39.876396264420436 39.458890313129466 39.06335835927486 38.40413843618385 37.98663248489288 37.54715253616554 37.063724592565464 36.887932613074526 36.272660684856255 35.89910272843802 35.54751876945615 35.10803882072881 34.82237685405603 34.33894891045596 33.98736495147409 33.701702984801315 33.306171030946714 32.866691082219376 32.4491851309284 32.185497161692 31.87786119758286 31.35048525911005 31.064823292437282 30.735213330891778 30.20783739241897 29.570591466764327 29.219007507782457 28.889397546236953 28.296099615455045 28.076359641091376 27.90056766160044 27.81267167185497 27.658853689800402 27.570957700054933 27.527009705182202 27.483061710309467 27.417139718000367 27.395165720564 27.329243728254898 27.307269730818533 27.285295733382164 27.263321735945798 27.241347738509432 27.197399743636698 27.153451748763963 27.131477751327594 27.10950375389123 27.065555759018494 27.04358176158213 27.02160776414576 26.97765976927303 26.933711774400294 26.911737776963925 26.845815784654825 26.82384178721846 26.757919794909355 26.691997802600255 26.626075810291155 26.58212781541842 26.51620582310932 26.472257828236586 26.406335835927486 26.38436183849112 26.340413843618386 26.29646584874565 26.252517853872916 26.208569859000182 26.14264786669108 26.120673869254716 26.054751876945616 26.01080388207288 25.988829884636512 25.988829884636512 25.944881889763778 25.922907892327412 25.922907892327412 25.900933894891047 25.900933894891047 25.878959897454678 25.878959897454678 25.878959897454678 25.878959897454678 25.878959897454678 25.856985900018312 25.856985900018312 25.835011902581943 25.835011902581943 25.813037905145578 25.813037905145578 25.813037905145578 25.791063907709212 25.791063907709212 25.769089910272843 25.769089910272843 25.769089910272843 25.747115912836477 25.72514191540011 25.703167917963743 25.681193920527377 25.637245925654643 25.593297930781908 25.571323933345543 25.527375938472808 25.50540194103644 25.461453946163708 25.461453946163708 25.43947994872734 25.43947994872734 25.417505951290973 25.417505951290973 25.417505951290973 25.417505951290973 25.417505951290973 25.417505951290973 25.417505951290973 25.417505951290973 25.417505951290973 25.395531953854604 25.395531953854604 25.395531953854604 25.395531953854604 25.395531953854604 25.37355795641824 25.37355795641824 25.37355795641824 25.395531953854604 25.37355795641824 25.37355795641824 25.37355795641824 25.37355795641824 25.395531953854604 25.37355795641824 25.37355795641824 25.37355795641824 25.37355795641824 25.37355795641824 25.35158395898187 25.37355795641824 25.37355795641824 25.37355795641824 25.37355795641824 25.37355795641824 25.37355795641824 25.37355795641824 25.35158395898187 25.35158395898187 25.329609961545504 25.329609961545504 25.30763596410914 25.30763596410914 25.28566196667277 25.263687969236404 25.263687969236404 25.241713971800035 25.241713971800035 25.241713971800035 25.241713971800035 25.241713971800035 25.241713971800035 25.241713971800035 25.241713971800035 25.241713971800035 25.241713971800035 25.21973997436367 25.21973997436367 25.21973997436367 25.197765976927304 25.197765976927304 25.175791979490935 25.175791979490935 25.15381798205457 25.15381798205457 25.1318439846182 25.1318439846182 25.109869987181835 25.08789598974547 25.08789598974547 25.08789598974547 25.08789598974547 25.08789598974547 25.08789598974547 25.08789598974547 25.08789598974547 25.08789598974547 25.0659219923091 25.0659219923091 25.0659219923091 25.08789598974547 25.08789598974547 25.0659219923091 25.0659219923091 25.0659219923091 25.0659219923091 25.0659219923091 25.0659219923091 25.0659219923091 25.0659219923091 25.0659219923091 25.0659219923091 25.0659219923091 25.0659219923091 25.0659219923091 25.0659219923091 25.0659219923091 25.043947994872735 25.0659219923091 25.043947994872735 25.043947994872735 25.043947994872735 25.043947994872735 25.043947994872735 25.043947994872735 25.043947994872735 25.043947994872735 25.043947994872735 25.043947994872735 25.043947994872735 25.043947994872735 25.043947994872735 25.021973997436366 25.043947994872735 25.043947994872735 25.043947994872735 25.021973997436366 25.043947994872735 25.043947994872735 25.043947994872735 25.043947994872735 25.043947994872735 25.021973997436366 25.043947994872735 25.021973997436366 25.021973997436366 25.021973997436366 25.0 25.0 25.0 24.978026002563634 24.978026002563634 24.978026002563634 24.956052005127265 24.978026002563634 24.956052005127265 24.956052005127265 24.9340780076909 24.9340780076909 24.9340780076909 24.9340780076909 24.9340780076909 24.9340780076909 24.9340780076909 24.9340780076909 24.9340780076909 24.9340780076909 24.9340780076909 24.9340780076909 24.9340780076909 24.9340780076909 24.9340780076909 24.9340780076909 24.9340780076909 24.9340780076909 24.9340780076909 24.9340780076909 24.91210401025453 24.9340780076909 24.91210401025453 24.91210401025453 24.91210401025453 24.9340780076909 24.91210401025453 24.91210401025453 24.91210401025453 24.91210401025453 24.91210401025453 24.91210401025453 24.91210401025453 24.91210401025453 24.91210401025453 24.91210401025453 24.91210401025453 24.91210401025453 24.91210401025453 24.91210401025453 24.91210401025453 24.91210401025453 24.91210401025453 24.91210401025453 24.91210401025453 24.91210401025453 24.91210401025453 24.91210401025453 24.91210401025453 24.91210401025453 24.91210401025453 24.91210401025453 24.9340780076909 24.9340780076909 24.9340780076909 24.9340780076909 24.956052005127265 24.956052005127265 24.978026002563634 25.0 25.021973997436366 25.0659219923091 25.1318439846182 25.15381798205457 25.241713971800035 25.30763596410914 25.395531953854604 25.527375938472808 25.65921992309101 25.835011902581943 26.186595861563816 26.38436183849112 26.560153817982055 26.80186778978209 27.131477751327594 27.461087712873102 27.74674967954587 28.208203625709576 28.53781358725508 28.801501556491484 29.109137520600623 29.372825489837027 29.76835744369163 30.22981138985534 30.603369346273574 31.15271928218275 31.68009522065556 32.0536531770738 32.646951107855706 33.04248306171031 33.569859000183115 34.05328694378319 34.38289690532869 34.62461087712873 34.8443508514924 34.95422083867423 35.08606482329244 35.21790880791064 35.43764878227431 35.78923274125618 35.94305072331075 36.14081670023805 36.44845266434719 36.646218641274494 36.822010620765425 37.063724592565464 37.327412561801864 37.59110053103827 37.81084050540194 38.18439846182018 38.42611243362022 38.64585240798389 38.88756637978392 39.12928035158396 39.5028383080022 39.920344259293174 40.35982420802051 40.86522614905695 41.32668009522065 41.63431605932979 42.11774400292987 42.31550997985717 42.75498992858451 43.45815784654825 43.85368980040286 44.38106573887566 44.7546236952939 45.30397363120308 45.74345357993042 46.248855520966856 46.842153451748764 47.457425379967034 48.13861930049441 48.55612525178539 48.99560520051273 49.83061710309467 50.138253067203806 50.599707013367514 51.149056949276684 51.76432887749496 52.18183482878594 52.75315876213148 53.368430690349754 53.93975462369529 54.29133858267717 54.6648965390954 55.17029848013185 55.67570042116829 56.247024354513826 56.752426295550265 57.14795824940487 57.71928218275041 58.18073612891412 58.68613806995056 59.301409998168836 59.894707928950744 60.33418787767808 61.01538179820545 61.45486174693279 62.07013367515107 62.72935359824208 63.190807544405786 64.04779344442409 64.46529939571508 64.92675334187878 65.47610327778796 65.93755722395166 66.83849111884271 67.34389305987915 67.76139901117011 68.44259293169749 69.07983885735213 69.51931880607947 70.44222669840688 70.9036806445706 71.6288225599707 72.24409448818898 72.72752243178905 73.45266434718917 74.13385826771653 74.61728621131661 75.29848013184399 75.78190807544406 76.63889397546237 77.0124519318806 77.42995788317158 77.97930781908076 78.352865775499 78.90221571140816 79.4076176524446 79.75920161142648 80.28657754989928 80.90184947811755 81.25343343709943 81.58304339864495 82.02252334737227 82.48397729353599 82.92345724226331 83.25306720380883 83.69254715253618 84.0661051089544 84.3297930781908 84.72532503204542 84.85716901666362 84.98901300128182 85.09888298846366 85.14283098333638 85.23072697308186 85.25270097051822 85.25270097051822 85.2087529756455 85.12085698590002 84.83519501922726 84.46163706280902 84.21992309100898 83.9342611243362 83.64859915766343 83.23109320637246 82.68174327046329 81.56106940120857 80.98974546786303 80.52829152169933 80.04486357809925 79.47353964475371 78.7483977293536 78.19904779344444 77.36403589086248 76.6828419703351 76.13349203442593 75.14466214978941 74.57333821644387 73.84819630104377 72.79344442409815 72.33199047793445 71.7606665445889 71.12342061893426 70.61801867789782 69.2995788317158 68.68430690349753 67.98113898553379 67.05823109320637 66.39901117011536 65.76176524446072 64.75096136238784 63.828053470060425 62.927119575169385 62.24592565464201 61.30104376487823 60.61984984435085 59.27943600073247 58.48837209302326 57.82915216993224 56.7304522981139 56.13715436733199 55.47793444424098 54.203442592931694 53.478300677531585 52.53341878776781 52.006042849295 51.01721296465848 50.204175059512906 49.63285112616737 49.06152719282183 47.98480131843985 47.47939937740341 46.534517487639626 46.02911554660319 45.58963559787585 45.04028566196667 44.46896172862113 44.073429774766524 43.48013184398462 43.08459989013001 42.49130195934811 41.85405603369347 41.39260208752975 39.964292254165905 39.722578282365866 39.19520234389306 38.55795641823842 38.22834645669291 37.45925654642007 37.041750595129095 36.470426661783556 36.14081670023805 35.52554477201978 35.15198681560154 34.86632484892877 34.47079289507416 34.207104925837754 33.81157297198315 33.525911005310384 33.086431056583045 32.49313312580114 32.22944515656473 31.89983519501923 31.57022523347372 31.15271928218275 30.647317341146312 30.20783739241897 29.878227430873466 29.460721479582496 29.175059512909723 28.69163156930965 28.55978758469145 28.31807361289141 28.076359641091376 28.076359641091376 28.010437648782275 27.922541659036806 27.856619666727706 27.768723676982237 27.724775682109502 27.636879692364037 27.548983702618568 27.483061710309467 27.395165720564 27.285295733382164 27.219373741073063 27.131477751327594 27.087529756454863 26.999633766709394 26.95568577183666 26.911737776963925 26.867789782091194 26.82384178721846 26.73594579747299 26.713971800036624 26.691997802600255 26.67002380516389 26.626075810291155 26.60410181285479 26.58212781541842 26.538179820545686 26.494231825672955 26.42830983336385 26.38436183849112 26.340413843618386 26.274491851309286 26.23054385643655 26.164621864127447 26.14264786669108 26.098699871818347 26.032777879509247 25.988829884636512 25.944881889763778 25.922907892327412 25.922907892327412 25.900933894891047 25.900933894891047 25.900933894891047 25.878959897454678 25.878959897454678 25.856985900018312 25.856985900018312 25.856985900018312 25.856985900018312 25.856985900018312 25.856985900018312 25.856985900018312 25.856985900018312 25.856985900018312 25.856985900018312 25.835011902581943 25.835011902581943 25.813037905145578 25.835011902581943 25.813037905145578 25.813037905145578 25.813037905145578 25.791063907709212 25.769089910272843 25.72514191540011 25.703167917963743 25.681193920527377 25.65921992309101 25.65921992309101 25.615271928218274 25.615271928218274 25.593297930781908 25.593297930781908 25.571323933345543 25.549349935909174 25.549349935909174 25.549349935909174 25.549349935909174 25.527375938472808 25.527375938472808 25.527375938472808 25.527375938472808 25.527375938472808 25.50540194103644 25.50540194103644 25.50540194103644 25.50540194103644 25.50540194103644 25.50540194103644 25.50540194103644 25.483427943600073 25.483427943600073 25.483427943600073 25.483427943600073 25.461453946163708 25.461453946163708 25.461453946163708 25.461453946163708 25.461453946163708 25.461453946163708 25.461453946163708 25.43947994872734 25.461453946163708 25.461453946163708 25.461453946163708 25.43947994872734 25.43947994872734 25.43947994872734 25.43947994872734 25.417505951290973 25.417505951290973 25.417505951290973 25.395531953854604 25.395531953854604 25.417505951290973 25.417505951290973 25.395531953854604 25.395531953854604 25.395531953854604 25.395531953854604 25.395531953854604 25.395531953854604 25.395531953854604 25.395531953854604 25.395531953854604 25.395531953854604 25.395531953854604 25.395531953854604 25.395531953854604 25.395531953854604 25.395531953854604 25.395531953854604 25.37355795641824 25.395531953854604 25.395531953854604 25.37355795641824 25.37355795641824 25.395531953854604 25.37355795641824 25.37355795641824 25.37355795641824 25.37355795641824 25.37355795641824 25.37355795641824 25.37355795641824 25.37355795641824 25.37355795641824 25.37355795641824 25.37355795641824 25.37355795641824 25.35158395898187 25.35158395898187 25.35158395898187 25.35158395898187 25.35158395898187 25.35158395898187 25.329609961545504 25.329609961545504 25.329609961545504 25.329609961545504 25.329609961545504 25.329609961545504 25.329609961545504 25.30763596410914 25.30763596410914 25.30763596410914 25.30763596410914 25.30763596410914 25.30763596410914 25.30763596410914 25.30763596410914 25.30763596410914 25.30763596410914 25.30763596410914 25.28566196667277 25.28566196667277 25.28566196667277 25.28566196667277 25.263687969236404 25.263687969236404 25.263687969236404 25.263687969236404 25.28566196667277 25.28566196667277 25.263687969236404 25.263687969236404 25.263687969236404 25.263687969236404 25.263687969236404 25.263687969236404 25.263687969236404 25.263687969236404 25.28566196667277 25.28566196667277 25.28566196667277 25.263687969236404 25.263687969236404 25.263687969236404 25.263687969236404 25.263687969236404 25.263687969236404 25.263687969236404 25.263687969236404 25.263687969236404 25.263687969236404 25.241713971800035 25.263687969236404 25.263687969236404 25.263687969236404 25.263687969236404 25.263687969236404 25.263687969236404 25.263687969236404 25.263687969236404 25.263687969236404 25.263687969236404 25.241713971800035 25.263687969236404 25.263687969236404 25.263687969236404 25.263687969236404 25.28566196667277 25.28566196667277 25.28566196667277 25.30763596410914 25.30763596410914 25.30763596410914 25.329609961545504 25.35158395898187 25.395531953854604 25.417505951290973 25.461453946163708 25.527375938472808 25.615271928218274 25.769089910272843 25.835011902581943 26.054751876945616 26.274491851309286 26.51620582310932 26.757919794909355 26.97765976927303 27.439113715436733 27.81267167185497 27.988463651345906 28.34004761032778 28.62570957700055 28.97729353598242 29.306903497527927 29.438747482146127 29.70243545138253 30.054019410364404 30.29573338216444 30.713239333455412 31.28456326680095 31.81193920527376 32.36128914118294 32.734847097601175 33.240249038637614 33.74565097967405 34.075260941219554 34.53671488738326 34.8443508514924 35.26185680278337 35.65738875663798 35.94305072331075 36.360556674601725 36.887932613074526 37.08569859000183 37.4372825489837 37.74491851309284 38.16242446438381 38.55795641823842 38.86559238234756 39.5028383080022 39.942318256729536 40.184032228529574 40.62351217725691 41.17286211316609 41.91997802600257 42.33748397729354 42.996703900384546 43.54605383629372 44.05145577733016 44.53488372093023 45.23805163889398 45.78740157480315 46.51254349020326 47.2816334004761 47.80900933894891 48.77586522614906 49.237319172312766 49.808643105658305 50.160227064640175 50.55575901849478 51.083134956967584 51.96209485442226 52.48947079289508 52.994872733931516 54.137520600622594 54.64292254165903 55.08240249038637 55.87346639809559 56.620582310932065 57.389672221204904 57.89507416224135 58.59824208020509 59.14759201611427 59.784837941768906 60.48800585973265 61.21314777513276 61.74052371360557 62.26789965207837 62.707379600805716 63.52041750595129 63.93792345724226 64.35542940853324 64.97070133675152 65.41018128547884 66.2451931880608 66.86046511627907 67.27797106757004 67.89324299578831 68.37667093938839 68.92602087529757 69.34352682658854 69.98077275224318 70.55209668558872 71.167368613807 71.80461453946164 72.33199047793445 72.70554843435269 73.45266434718917 73.78227430873466 74.15583226515291 74.74913019593481 75.34242812671673 75.75993407800769 76.59494598058964 76.99047793444424 77.53982787035342 78.00128181651712 78.33089177806264 78.92418970884452 79.64933162424464 80.06683757553562 80.61618751144479 81.03369346273576 81.51712140633583 81.86870536531771 82.37410730635415 82.83556125251786 83.27504120124519 83.56070316791798 83.97820911920894 84.30781908075444 84.59348104742722 84.92309100897272 85.07690899102728 85.27467496795458 85.45046694744553 85.51638893975462 85.6042849295001 85.64823292437282 85.6702069218092 85.69218091924556 85.69218091924556 85.69218091924556 85.69218091924556 85.6702069218092 85.51638893975462 85.4065189525728 85.23072697308186 84.98901300128182 84.76927302691814 84.46163706280902 84.2638710858817 83.9342611243362 83.62662516022706 83.3409631935543 83.01135323200879 82.50595129097235 82.19831532686322 81.89067936275407 81.56106940120857 81.1435634499176 80.55026551913569 80.15473356528108 79.2757736678264 78.59457974729904 78.06720380882624 77.51785387291704 76.8806079472624 76.13349203442593 75.38637612158945 74.77110419337117 74.0239882805347 73.18897637795277 72.55173045229812 71.54092657022522 71.2332906061161 70.42025270097052 69.6291887932613 68.92602087529757 68.24482695477019 67.38784105475187 66.79454312396996 65.91558322651528 64.99267533418788 64.06976744186046 63.146859549533055 62.53158762131478 61.54275773667826 60.641823841787215 59.872733931514375 59.3893059879143 58.64219007507782 57.82915216993224 57.060062259659404 56.57663431605933 55.80754440578649 55.01648049807727 54.4671305621681 53.67606665445889 53.104742721113354 52.31367881340414 51.4786669108222 50.73155099798572 49.2812671671855 49.105475187694566 48.49020325947629 47.87493133125801 47.215711408167 46.402673503021425 45.26002563633034 44.66672770554844 43.897637795275585 43.370261856802784 42.68906793627541 42.13971800036623 41.59036806445706 40.82127815418421 40.447720197765975 40.074162241347736 39.41494231825673 38.95348837209302 38.53598242080205 38.20637245925654 37.635048525911 37.2395165720564 36.690166636147225 36.16279069767442 35.50357077458341 35.10803882072881 34.51474088994689 34.141182933528654 33.74565097967405 33.174327046328514 32.29536714887384 32.185497161692 31.68009522065556 31.41640725141915 31.064823292437282 30.801135323200878 30.58139534883721 30.339681377037174 30.097967405237135 29.8562534334371 29.70243545138253 29.526643471891596 29.219007507782457 28.867423548800588 28.47189159494598 28.230177623145945 27.944515656473172 27.790697674418606 27.724775682109502 27.658853689800402 27.570957700054933 27.527009705182202 27.483061710309467 27.417139718000367 27.351217725691264 27.307269730818533 27.241347738509432 27.17542574620033 27.10950375389123 26.999633766709394 26.933711774400294 26.82384178721846 26.73594579747299 26.626075810291155 26.51620582310932 26.45028383080022 26.340413843618386 26.252517853872916 26.208569859000182 26.14264786669108 26.098699871818347 26.054751876945616 25.988829884636512 25.966855887200147 25.922907892327412 25.900933894891047 25.878959897454678 25.856985900018312 25.856985900018312 25.835011902581943 25.791063907709212 25.769089910272843 25.747115912836477 25.72514191540011 25.703167917963743 25.637245925654643 25.615271928218274 25.571323933345543 25.50540194103644 25.461453946163708 25.417505951290973 25.395531953854604 25.37355795641824 25.35158395898187 25.35158395898187 25.35158395898187 25.329609961545504 25.329609961545504 25.329609961545504 25.329609961545504 25.30763596410914 25.30763596410914 25.30763596410914 25.28566196667277 25.263687969236404 25.241713971800035 25.197765976927304 25.175791979490935 25.15381798205457 25.109869987181835 25.109869987181835 25.08789598974547 25.043947994872735 25.021973997436366 24.978026002563634 24.956052005127265 24.9340780076909 24.9340780076909 24.91210401025453 24.8681560153818 24.890130012818165 24.890130012818165 24.890130012818165 24.890130012818165 24.890130012818165 24.890130012818165 24.8681560153818 24.8681560153818 24.8681560153818 24.8681560153818 24.8681560153818 24.8681560153818 24.84618201794543 24.8681560153818 24.84618201794543 24.84618201794543 24.84618201794543 24.84618201794543 24.84618201794543 24.84618201794543 24.84618201794543 24.84618201794543 24.84618201794543 24.84618201794543 24.824208020509065 24.824208020509065 24.824208020509065 24.824208020509065 24.824208020509065 24.824208020509065 24.824208020509065 24.824208020509065 24.824208020509065 24.824208020509065 24.824208020509065 24.824208020509065 24.824208020509065 24.824208020509065 24.824208020509065 24.824208020509065 24.824208020509065 24.824208020509065 24.824208020509065 24.824208020509065 24.824208020509065 24.824208020509065 24.824208020509065 24.824208020509065 24.824208020509065 24.824208020509065 24.824208020509065 24.824208020509065 24.824208020509065 24.824208020509065 24.824208020509065 24.824208020509065 24.824208020509065 24.824208020509065 24.824208020509065 24.824208020509065 24.824208020509065 24.824208020509065 24.824208020509065 24.824208020509065 24.824208020509065 24.824208020509065 24.824208020509065 24.802234023072696 24.824208020509065 24.802234023072696 24.824208020509065 24.802234023072696 24.802234023072696 24.802234023072696 24.802234023072696 24.802234023072696 24.802234023072696 24.802234023072696 24.802234023072696 24.802234023072696 24.802234023072696 24.802234023072696 24.802234023072696 24.802234023072696 24.802234023072696 24.802234023072696 24.78026002563633 24.802234023072696 24.802234023072696 24.78026002563633 24.78026002563633 24.78026002563633 24.802234023072696 24.78026002563633 24.78026002563633 24.78026002563633 24.78026002563633 24.78026002563633 24.78026002563633 24.78026002563633 24.78026002563633 24.78026002563633 24.78026002563633 24.758286028199965 24.758286028199965 24.758286028199965 24.758286028199965 24.736312030763596 24.758286028199965 24.736312030763596 24.736312030763596 24.736312030763596 24.736312030763596 24.736312030763596 24.758286028199965 24.736312030763596 24.736312030763596 24.736312030763596 24.736312030763596 24.736312030763596 24.736312030763596 24.736312030763596 24.736312030763596 24.71433803332723 24.736312030763596 24.736312030763596 24.736312030763596 24.736312030763596 24.736312030763596 24.736312030763596 24.736312030763596 24.71433803332723 24.736312030763596 24.736312030763596 24.71433803332723 24.71433803332723 24.736312030763596 24.71433803332723 24.736312030763596 24.736312030763596 24.736312030763596 24.736312030763596 24.736312030763596 24.736312030763596 24.736312030763596 24.736312030763596 24.736312030763596 24.736312030763596 24.736312030763596 24.736312030763596 24.736312030763596 24.736312030763596 24.758286028199965 24.758286028199965 24.758286028199965 24.78026002563633 24.78026002563633 24.78026002563633 24.802234023072696 24.78026002563633 24.802234023072696 24.802234023072696 24.84618201794543 24.84618201794543 24.8681560153818 24.8681560153818 24.9340780076909 24.956052005127265 25.0 25.109869987181835 25.21973997436367 25.395531953854604 25.50540194103644 25.615271928218274 25.72514191540011 25.922907892327412 26.098699871818347 26.472257828236586 26.867789782091194 27.17542574620033 27.74674967954587 28.12030763596411 28.49386559238235 28.75755356161875 29.021241530855153 29.592565464200696 29.878227430873466 30.251785387291704 30.735213330891778 31.130745284746382 31.636147225782825 32.16352316425563 32.53708112067387 33.064457059146676 33.48196301043765 33.89946896172862 34.42684490020143 34.69053286943783 34.93224684123787 35.17396081303791 35.39370078740157 35.59146676432888 35.78923274125618 36.03094671305622 36.426478666910825 36.668192638710856 36.909906610510895 37.15162058231093 37.261490569492764 37.59110053103827 37.7668925105292 38.00860648232924 38.25032045412928 38.44808643105658 38.73374839772936 39.04138436183849 39.26112433620216 39.612708295184035 39.920344259293174 40.27192821827504 40.667460172129644 40.93114814136605 41.32668009522065 41.87603003112983 42.20563999267533 42.57919794909357 42.798937923457245 43.194469877311846 43.633949826039185 44.139351767075624 44.84251968503937 45.17212964658488 45.56766160043948 45.94121955685772 46.534517487639626 47.1497894158579 47.76506134407617 48.20454129280351 48.81981322102179 49.4131111518037 50.028383080021975 50.48983702618568 50.84142098516755 51.43471891594946 52.11591283647684 52.841054751876946 53.324482695477016 53.829884636513455 54.70884453396813 55.30214246475005 55.78557040835012 56.312946346822926 57.08203625709577 57.58743819813221 58.02691814685955 58.59824208020509 59.14759201611427 59.54312396996887 60.180369895623514 60.81761582127815 61.45486174693279 61.9163156930965 62.53158762131478 62.971067570042116 63.652261490569494 64.15766343160593 64.66306537264236 65.12451931880608 65.65189525727888 66.20124519318806 66.66269913935176 66.88243911371544 67.45376304706097 67.82732100347921 68.15693096502471 68.50851492400659 69.14576084966123 69.58524079838858 70.00274674967955 70.50814869071598 70.9696026368797 71.38710858817066 71.67277055484342 72.24409448818898 72.72752243178905 73.16700238051638 73.60648232924373 74.13385826771653 74.57333821644387 74.85900018311665 75.25453213697125 75.49624610877129 75.86980406518953 76.0895440395532 76.616919978026 76.8806079472624 77.10034792162608 77.34206189342612 77.58377586522616 77.82548983702618 78.26496978575352 78.46273576268084 78.77037172678996 78.96813770371728 79.23182567295368 79.47353964475371 79.62735762680828 79.80314960629921 79.91301959348105 80.04486357809925 80.11078557040835 80.13275956784472 80.15473356528108 80.13275956784472 80.15473356528108 80.13275956784472 80.08881157297199 79.86907159860831 79.69327961911739 79.5394616370628 79.31972166269914 79.05603369346274 78.90221571140816 78.6165537447354 78.2210217908808 77.86943783189892 77.29811389855337 77.1442959164988 76.6828419703351 76.15546603186229 75.75993407800769 75.23255813953489 74.72715619849845 74.15583226515291 73.54056033693463 73.01318439846182 72.20014649331624 71.51895257278886 71.2332906061161 70.61801867789782 70.09064273942502 69.38747482146127 68.7062809009339 68.20087895989745 67.12415308551547 66.42098516755172 65.9815052188244 65.38820728804248 64.59714338033328 63.87200146493316 63.10291155466032 62.55356161875115 61.7844717084783 60.97143380333272 60.422083867423545 59.63101995971434 59.08167002380517 58.26863211865959 57.45559421351401 56.8622962827321 55.983336385277426 55.12635048525911 54.37923457242263 53.654092657022524 53.03882072880425 52.24775682109504 51.19300494414942 50.665629005676614 50.094305072331075 49.3471891594946 48.60007324665812 47.85295733382164 47.30360739791247 46.51254349020326 45.83134956967588 45.30397363120308 44.53488372093023 43.98553378502106 43.128547885002746 42.31550997985717 41.70023805163889 40.88720014649331 40.096136238784105 39.5028383080022 38.36019044131112 37.74491851309284 37.21754257462003 36.404504669474456 35.89910272843802 34.9761948361106 34.33894891045596 33.92144295916499 33.416041018128546 32.998535066837576 32.60300311298297 32.29536714887384 31.87786119758286 31.43838124885552 31.064823292437282 30.757187328328143 30.339681377037174 30.010071415491666 29.41677348470976 29.043215528291523 28.75755356161875 28.49386559238235 28.142281633400476 27.922541659036806 27.834645669291337 27.74674967954587 27.636879692364037 27.592931697491302 27.548983702618568 27.483061710309467 27.395165720564 27.373191723127633 27.307269730818533 27.263321735945798 27.197399743636698 27.131477751327594 27.065555759018494 26.97765976927303 26.88976377952756 26.82384178721846 26.757919794909355 26.691997802600255 26.60410181285479 26.45028383080022 26.406335835927486 26.318439846182017 26.252517853872916 26.164621864127447 26.054751876945616 25.966855887200147 25.856985900018312 25.813037905145578 25.769089910272843 25.72514191540011 25.681193920527377 25.65921992309101 25.637245925654643 25.615271928218274 25.615271928218274 25.593297930781908 25.593297930781908 25.593297930781908 25.571323933345543 25.571323933345543 25.549349935909174 25.549349935909174 25.527375938472808 25.50540194103644 25.483427943600073 25.43947994872734 25.395531953854604 25.37355795641824 25.35158395898187 25.329609961545504 25.329609961545504 25.30763596410914 25.28566196667277 25.28566196667277 25.263687969236404 25.263687969236404 25.241713971800035 25.197765976927304 25.197765976927304 25.15381798205457 25.15381798205457 25.1318439846182 25.109869987181835 25.109869987181835 25.109869987181835 25.109869987181835 25.109869987181835 25.08789598974547 25.08789598974547 25.08789598974547 25.08789598974547 25.08789598974547 25.08789598974547 25.08789598974547 25.0659219923091 25.08789598974547 25.0659219923091 25.08789598974547 25.0659219923091 25.0659219923091 25.0659219923091 25.0659219923091 25.0659219923091 25.0659219923091 25.0659219923091 25.0659219923091 25.043947994872735 25.021973997436366 25.021973997436366 25.0 25.0 24.978026002563634 24.956052005127265 24.956052005127265 24.9340780076909 24.9340780076909 24.9340780076909 24.91210401025453 24.91210401025453 24.91210401025453 24.91210401025453 24.91210401025453 24.91210401025453 24.91210401025453 24.91210401025453 24.91210401025453 24.91210401025453 24.91210401025453 24.890130012818165 24.890130012818165 24.91210401025453 24.890130012818165 24.890130012818165 24.8681560153818 24.8681560153818 24.8681560153818 24.84618201794543 24.84618201794543 24.84618201794543 24.824208020509065 24.802234023072696 24.802234023072696 24.802234023072696 24.78026002563633 24.802234023072696 24.802234023072696 24.78026002563633 24.78026002563633 24.78026002563633 24.78026002563633 24.78026002563633 24.78026002563633 24.78026002563633 24.78026002563633 24.78026002563633 24.78026002563633 24.78026002563633 24.78026002563633 24.78026002563633 24.78026002563633 24.78026002563633 24.78026002563633 24.78026002563633 24.78026002563633 24.78026002563633 24.78026002563633 24.78026002563633 24.758286028199965 24.78026002563633 24.78026002563633 24.78026002563633 24.78026002563633 24.758286028199965 24.758286028199965 24.758286028199965 24.758286028199965 24.78026002563633 24.758286028199965 24.78026002563633 24.78026002563633 24.758286028199965 24.78026002563633 24.758286028199965 24.758286028199965 24.758286028199965 24.758286028199965 24.78026002563633 24.758286028199965 24.758286028199965 24.758286028199965 24.758286028199965 24.758286028199965 24.758286028199965 24.758286028199965 24.758286028199965 24.758286028199965 24.758286028199965 24.758286028199965 24.758286028199965 24.758286028199965 24.758286028199965 24.758286028199965 24.758286028199965 24.758286028199965 24.758286028199965 24.758286028199965 24.758286028199965 24.758286028199965 24.758286028199965 24.758286028199965 24.758286028199965 24.758286028199965 24.758286028199965 24.758286028199965 24.758286028199965 24.758286028199965 24.758286028199965 24.758286028199965 24.758286028199965 24.758286028199965 24.758286028199965 24.758286028199965 24.758286028199965 24.758286028199965 24.758286028199965 24.758286028199965 24.758286028199965 24.758286028199965 24.758286028199965 24.758286028199965 24.758286028199965 24.736312030763596 24.736312030763596 24.736312030763596 24.736312030763596 24.736312030763596 24.736312030763596 24.758286028199965 24.736312030763596 24.736312030763596 24.736312030763596 24.736312030763596 24.736312030763596 24.736312030763596 24.736312030763596 24.758286028199965 24.736312030763596 24.736312030763596 24.736312030763596 24.736312030763596 24.736312030763596 24.736312030763596 24.736312030763596 24.736312030763596 24.736312030763596 24.736312030763596 24.736312030763596 24.736312030763596 24.758286028199965 24.736312030763596 24.758286028199965 24.758286028199965 24.758286028199965 24.736312030763596 24.758286028199965 24.758286028199965 24.758286028199965 24.758286028199965 24.758286028199965 24.758286028199965 24.758286028199965 24.758286028199965 24.78026002563633 24.78026002563633 24.78026002563633 24.78026002563633 24.78026002563633 24.802234023072696 24.802234023072696 24.824208020509065 24.824208020509065 24.84618201794543 24.8681560153818 24.890130012818165 24.9340780076909 24.978026002563634 25.021973997436366 25.109869987181835 25.197765976927304 25.28566196667277 25.417505951290973 25.593297930781908 25.747115912836477 26.01080388207288 26.274491851309286 26.88976377952756 27.373191723127633 27.724775682109502 28.25215162058231 28.735579564182384 29.065189525727888 29.41677348470976 29.834279436000735 30.20783739241897 30.669291338582678 31.020875297564547 31.52627723860099 32.0536531770738 32.4491851309284 32.866691082219376 33.152353048892145 33.525911005310384 33.877494964292254 34.27302691814686 34.60263687969236 34.93224684123787 35.13001281816517 35.37172678996521 35.56949276689251 35.89910272843802 36.272660684856255 36.470426661783556 36.73411463101996 36.997802600256364 37.195568577183664 37.45925654642007 37.67899652078374 38.16242446438381 38.60190441311115 38.88756637978392 39.39296832082036 39.920344259293174 40.381798205456874 40.84325215162058 41.23878410547519 41.85405603369347 42.38143197216627 42.842885918329976 43.370261856802784 44.11737776963926 44.51290972349386 44.86449368247574 45.23805163889398 45.74345357993042 46.314777513275956 46.886101446621495 47.43545138253067 47.80900933894891 48.29243728254899 48.70994323383995 49.237319172312766 49.786669108221936 50.336019044131106 50.73155099798572 51.21497894158579 51.58853689800403 52.2038088262223 52.775132759567846 53.214612708295185 53.87383263138619 54.4671305621681 54.92858450833181 55.47793444424098 55.82951840322285 56.488738326313864 56.840322285295734 57.27980223402307 57.98297015198681 58.90587804431423 59.3233839956052 60.092473905878045 60.575901849478115 61.27906976744186 61.76249771104193 62.46566562900568 63.058963559787585 63.696209485442225 64.15766343160593 64.97070133675152 65.34425929316976 65.80571323933346 66.35506317524263 66.7725691265336 67.36586705731551 67.93719099066105 68.53048892144295 69.2336568394067 69.4973448086431 69.8928767624977 70.35433070866142 70.72788866507966 71.27723860098882 72.26606848562534 72.81541842153452 73.25489837026186 73.6284563266801 74.06793627540745 74.48544222669841 75.23255813953489 75.71598608313496 76.30928401391687 76.4850759934078 76.96850393700788 77.42995788317158 77.80351583958982 78.02325581395348 78.24299578831716 78.52865775498992 78.6824757370445 78.92418970884452 79.23182567295368 79.38564365500824 79.5394616370628 79.73722761399011 79.82512360373559 80.02288958066288 80.26460355246292 80.44039553195387 80.63816150888115 80.74803149606299 80.92382347555393 81.03369346273576 81.0776414576085 81.12158945248123 81.1435634499176 81.1435634499176 81.1435634499176 81.12158945248123 81.03369346273576 80.83592748580847 80.74803149606299 80.50631752426295 80.28657754989928 79.93499359091741 79.58340963193555 79.31972166269914 79.05603369346274 78.70444973448086 78.52865775498992 78.02325581395348 77.71561984984436 77.29811389855337 76.83665995238968 76.4850759934078 76.02362204724409 75.51822010620765 75.18861014466215 74.70518220106207 74.28767624977111 73.562534334371 73.18897637795277 72.77147042666178 72.11225050357078 71.21131660867974 70.61801867789782 70.11261673686138 69.58524079838858 69.07983885735213 68.42061893426111 67.95916498809743 67.03625709577 66.28914118293352 65.87163523164256 65.23438930598792 64.75096136238784 64.1796374290423 63.542391503387655 63.080937557223955 62.46566562900568 62.00421168284197 61.36696575718733 60.75169382896905 60.246291887932614 59.718915949459806 59.191540010987 58.81798205456876 58.29060611609595 57.89507416224135 57.27980223402307 56.972166269913934 56.598608313495696 55.89544039553195 55.43398644936825 55.03845449551364 54.6648965390954 54.22541659036806 53.67606665445889 53.302508698040654 52.68723676982238 52.11591283647684 51.4786669108222 51.01721296465848 50.314045046694744 49.808643105658305 49.08350119025819 48.40230726973082 47.67716535433071 47.193737410730634 46.490569492766895 45.72147958249405 44.99633766709394 44.4909357260575 44.007507782457424 43.040651895257284 42.667093938839045 42.11774400292987 41.21681010803882 40.79930415674785 40.227980223402305 39.8324482695477 39.28309833363853 38.86559238234756 38.38216443874748 37.7009705182201 37.28346456692913 36.931880607947264 36.558322651529025 36.03094671305622 35.41567478483794 35.19593481047427 34.75645486174693 34.40487090276506 33.701702984801315 33.372093023255815 32.734847097601175 32.3173411463102 31.68009522065556 31.130745284746382 30.801135323200878 30.36165537447354 30.010071415491666 29.372825489837027 28.97729353598242 28.71360556674602 28.40596960263688 28.12030763596411 27.96648965390954 27.90056766160044 27.834645669291337 27.768723676982237 27.724775682109502 27.702801684673137 27.658853689800402 27.592931697491302 27.570957700054933 27.527009705182202 27.505035707745833 27.461087712873102 27.439113715436733 27.395165720564 27.351217725691264 27.329243728254898 27.307269730818533 27.263321735945798 27.241347738509432 27.17542574620033 27.10950375389123 27.065555759018494 26.97765976927303 26.867789782091194 26.779893792345725 26.648049807727524 26.538179820545686 26.38436183849112 26.274491851309286 26.186595861563816 26.07672587438198 25.988829884636512 25.922907892327412 25.856985900018312 25.813037905145578 25.769089910272843 25.747115912836477 25.72514191540011 25.72514191540011 25.72514191540011 25.703167917963743 25.703167917963743 25.703167917963743 25.681193920527377 25.681193920527377 25.65921992309101 25.637245925654643 25.615271928218274 25.593297930781908 25.549349935909174 25.527375938472808 25.50540194103644 25.483427943600073 25.461453946163708 25.417505951290973 25.37355795641824 25.329609961545504 25.28566196667277 25.263687969236404 25.21973997436367 25.15381798205457 25.1318439846182 25.109869987181835 25.08789598974547 25.08789598974547 25.0659219923091 25.0659219923091 25.0659219923091 25.043947994872735 25.043947994872735 25.043947994872735 25.043947994872735 25.043947994872735 25.043947994872735 25.043947994872735 25.043947994872735 25.043947994872735 25.043947994872735 25.021973997436366 25.043947994872735 25.021973997436366 25.021973997436366 25.021973997436366 25.021973997436366 25.021973997436366 25.021973997436366 25.021973997436366 25.021973997436366 25.021973997436366 25.021973997436366 25.021973997436366 25.021973997436366 25.021973997436366 25.021973997436366 25.021973997436366 25.021973997436366 25.021973997436366 25.021973997436366 25.0 25.0 25.021973997436366 25.0 25.0 25.021973997436366 25.0 25.0 25.0 25.0 25.0 25.0 25.0 25.0 25.0 25.0 25.0 25.0 25.0 25.0 25.0 25.0 24.978026002563634 24.978026002563634 25.0 24.978026002563634 25.0 24.978026002563634 24.978026002563634 24.978026002563634 25.0 24.978026002563634 25.0 25.0 24.978026002563634 25.0 24.978026002563634 24.978026002563634 24.978026002563634 24.978026002563634 24.978026002563634 24.978026002563634 24.978026002563634 24.978026002563634 24.978026002563634 24.978026002563634 24.978026002563634 24.978026002563634 24.978026002563634 24.978026002563634 24.978026002563634 24.978026002563634 24.978026002563634 24.978026002563634 24.978026002563634 24.978026002563634 24.978026002563634 24.978026002563634 24.978026002563634 24.978026002563634 24.978026002563634 24.978026002563634 24.956052005127265 24.956052005127265 24.956052005127265 24.978026002563634 24.978026002563634 24.956052005127265 24.978026002563634 24.956052005127265 24.978026002563634 24.978026002563634 24.956052005127265 24.956052005127265 24.956052005127265 24.956052005127265 24.956052005127265 24.956052005127265 24.956052005127265 24.956052005127265 24.956052005127265 24.956052005127265 24.956052005127265 24.956052005127265 24.956052005127265 24.956052005127265 24.956052005127265 24.956052005127265 24.956052005127265 24.956052005127265 24.9340780076909 24.9340780076909 24.9340780076909 24.9340780076909 24.91210401025453 24.9340780076909 24.91210401025453 24.9340780076909 24.91210401025453 24.91210401025453 24.91210401025453 24.91210401025453 24.890130012818165 24.890130012818165 24.8681560153818 24.84618201794543 24.84618201794543 24.84618201794543 24.824208020509065 24.824208020509065 24.824208020509065 24.824208020509065 24.824208020509065 24.824208020509065 24.824208020509065 24.824208020509065 24.824208020509065 24.824208020509065 24.824208020509065 24.824208020509065 24.824208020509065 24.824208020509065 24.84618201794543 24.824208020509065 24.824208020509065 24.824208020509065 24.824208020509065 24.824208020509065 24.84618201794543 24.824208020509065 24.84618201794543 24.84618201794543 24.824208020509065 24.84618201794543 24.84618201794543 24.84618201794543 24.84618201794543 24.84618201794543 24.84618201794543 24.84618201794543 24.84618201794543 24.84618201794543 24.8681560153818 24.8681560153818 24.8681560153818 24.890130012818165 24.890130012818165 24.91210401025453 24.9340780076909 24.9340780076909 25.0 25.043947994872735 25.109869987181835 25.197765976927304 25.28566196667277 25.417505951290973 25.527375938472808 25.703167917963743 26.07672587438198 26.472257828236586 26.80186778978209 27.131477751327594 27.505035707745833 27.988463651345906 28.296099615455045 28.823475553927853 29.19703351034609 29.350851492400658 29.526643471891596 29.900201428309835 30.317707379600805 30.669291338582678 30.954953305255447 31.262589269364586 31.68009522065556 31.96575718732833 32.3832631386193 32.82274308734664 33.108405054019414 33.503937007874015 33.789598974546784 34.207104925837754 34.55868888481963 34.82237685405603 35.28383080021974 35.63541475920161 35.76725874381981 36.118842702801686 36.360556674601725 36.887932613074526 37.28346456692913 37.5691265336019 38.03058047976561 38.40413843618385 38.68980040285662 39.04138436183849 39.28309833363853 39.6346822926204 39.986266251602274 40.27192821827504 40.68943416956601 41.17286211316609 41.61234206189343 41.91997802600257 42.46932796191174 42.842885918329976 43.348287859366415 43.787767808093754 44.5568577183666 44.99633766709394 45.58963559787585 45.985167551730456 46.44662149789416 47.017945431239696 47.63321735945797 48.33638527742171 49.06152719282183 49.83061710309467 50.336019044131106 51.03918696209485 51.7423548800586 52.48947079289508 52.994872733931516 53.52224867240432 54.31331258011353 54.97253250320454 55.65372642373192 56.26899835195019 56.70847830067753 57.30177623145944 58.18073612891412 58.70811206738693 59.191540010987 59.740889946896175 60.422083867423545 60.92748580845999 61.56473173411463 62.24592565464201 62.86119758286028 63.10291155466032 63.95989745467863 64.3774034059696 64.97070133675152 65.76176524446072 66.09137520600623 66.5088811572972 67.08020509064274 67.45376304706097 67.95916498809743 68.37667093938839 68.79417689067935 69.4973448086431 69.7610327778795 70.09064273942502 70.50814869071598 70.8377586522615 71.4310565830434 71.71671854971618 72.26606848562534 72.79344442409815 73.14502838308002 73.7603003112983 73.8262223036074 74.50741622413477 74.96887017029849 75.49624610877129 75.8258560703168 76.33125801135323 76.79271195751694 77.18824391137156 77.51785387291704 78.02325581395348 78.50668375755356 78.85826771653544 79.29774766526278 79.69327961911739 80.00091558322652 80.33052554477202 80.57223951657207 80.85790148324483 81.16553744735396 81.29738143197216 81.42922541659037 81.47317341146311 81.49514740889947 81.47317341146311 81.47317341146311 81.47317341146311 81.42922541659037 81.36330342428127 81.1435634499176 80.77000549349935 80.55026551913569 80.37447353964475 80.13275956784472 79.80314960629921 79.4076176524446 79.07800769089911 78.57260574986266 77.97930781908076 77.62772386009888 77.23219190624428 76.59494598058964 76.13349203442593 75.29848013184399 74.61728621131661 73.84819630104377 72.70554843435269 72.39791247024354 71.6288225599707 71.0355246291888 70.22248672404322 69.38747482146127 68.79417689067935 68.00311298297015 67.12415308551547 66.33308917780627 65.49807727522432 65.1684673136788 64.3774034059696 63.586339498260394 62.707379600805716 61.586705731551 61.16919978026002 60.444057864859914 59.894707928950744 59.0596960263688 58.53232008789599 57.71928218275041 56.884270280168465 56.115180369895626 55.56583043398645 54.79674052371361 53.98370261856803 53.390404687786116 52.66526277238601 51.91814685954954 51.39077092107672 50.68760300311298 50.182201062076544 49.43508514924007 48.77586522614906 48.29243728254899 47.61124336202161 46.973997436366965 46.51254349020326 45.89727156198498 45.47976561069402 44.46896172862113 44.271195751693824 43.85368980040286 43.01867789782091 42.40340596960264 41.9639260208753 41.34865409265702 40.93114814136605 40.33785021058414 39.722578282365866 39.305072331074896 38.73374839772936 38.14045046694744 37.7668925105292 37.195568577183664 36.80003662332906 36.22871268998352 35.67936275407435 35.34975279252884 34.8443508514924 34.38289690532869 34.03131294634682 33.48196301043765 33.218275041201245 32.97656106940121 32.581029115546606 32.36128914118294 31.96575718732833 31.68009522065556 31.41640725141915 31.21864127449185 31.020875297564547 30.735213330891778 30.471525361655374 30.22981138985534 29.944149423182566 29.70243545138253 29.350851492400658 29.021241530855153 28.801501556491484 28.38399560520051 28.18622962827321 28.010437648782275 27.944515656473172 27.90056766160044 27.834645669291337 27.768723676982237 27.74674967954587 27.702801684673137 27.636879692364037 27.614905694927668 27.527009705182202 27.461087712873102 27.395165720564 27.285295733382164 27.197399743636698 27.087529756454863 26.95568577183666 26.88976377952756 26.82384178721846 26.779893792345725 26.73594579747299 26.691997802600255 26.67002380516389 26.626075810291155 26.626075810291155 26.60410181285479 26.58212781541842 26.560153817982055 26.51620582310932 26.472257828236586 26.45028383080022 26.406335835927486 26.38436183849112 26.36238784105475 26.340413843618386 26.29646584874565 26.274491851309286 26.23054385643655 26.208569859000182 26.186595861563816 26.14264786669108 26.120673869254716 26.098699871818347 26.07672587438198 26.032777879509247 26.01080388207288 25.988829884636512 25.966855887200147 25.922907892327412 25.900933894891047 25.900933894891047 25.878959897454678 25.856985900018312 25.835011902581943 25.813037905145578 25.813037905145578 25.813037905145578 25.791063907709212 25.791063907709212 25.791063907709212 25.791063907709212 25.769089910272843 25.769089910272843 25.769089910272843 25.769089910272843 25.769089910272843 25.747115912836477 25.769089910272843 25.747115912836477 25.747115912836477 25.747115912836477 25.747115912836477 25.747115912836477 25.747115912836477 25.747115912836477 25.747115912836477 25.72514191540011 25.72514191540011 25.703167917963743 25.703167917963743 25.681193920527377 25.65921992309101 25.637245925654643 25.593297930781908 25.549349935909174 25.50540194103644 25.483427943600073 25.43947994872734 25.417505951290973 25.417505951290973 25.417505951290973 25.417505951290973 25.417505951290973 25.417505951290973 25.395531953854604 25.395531953854604 25.395531953854604 25.395531953854604 25.395531953854604 25.37355795641824 25.37355795641824 25.37355795641824 25.37355795641824 25.37355795641824 25.37355795641824 25.37355795641824 25.37355795641824 25.37355795641824 25.37355795641824 25.35158395898187 25.35158395898187 25.35158395898187 25.35158395898187 25.329609961545504 25.329609961545504 25.329609961545504 25.329609961545504 25.329609961545504 25.329609961545504 25.329609961545504 25.329609961545504 25.329609961545504 25.329609961545504 25.329609961545504 25.329609961545504 25.329609961545504 25.329609961545504 25.329609961545504 25.329609961545504 25.329609961545504 25.329609961545504 25.329609961545504 25.329609961545504 25.329609961545504 25.329609961545504 25.329609961545504 25.329609961545504 25.30763596410914 25.329609961545504 25.329609961545504 25.329609961545504 25.329609961545504 25.329609961545504 25.329609961545504 25.329609961545504 25.329609961545504 25.329609961545504 25.30763596410914 25.329609961545504 25.30763596410914 25.329609961545504 25.30763596410914 25.30763596410914 25.30763596410914 25.30763596410914 25.30763596410914 25.30763596410914 25.30763596410914 25.30763596410914 25.30763596410914 25.30763596410914 25.30763596410914 25.30763596410914 25.30763596410914 25.30763596410914 25.30763596410914 25.30763596410914 25.30763596410914 25.30763596410914 25.28566196667277 25.30763596410914 25.28566196667277 25.28566196667277 25.28566196667277 25.28566196667277 25.28566196667277 25.28566196667277 25.28566196667277 25.28566196667277 25.28566196667277 25.28566196667277 25.28566196667277 25.28566196667277 25.28566196667277 25.263687969236404 25.28566196667277 25.28566196667277 25.28566196667277 25.28566196667277 25.28566196667277 25.28566196667277 25.28566196667277 25.263687969236404 25.263687969236404 25.263687969236404 25.263687969236404 25.263687969236404 25.263687969236404 25.263687969236404 25.263687969236404 25.263687969236404 25.263687969236404 25.263687969236404 25.241713971800035 25.263687969236404 25.241713971800035 25.241713971800035 25.263687969236404 25.241713971800035 25.241713971800035 25.241713971800035 25.241713971800035 25.241713971800035 25.241713971800035 25.241713971800035 25.241713971800035 25.241713971800035 25.241713971800035 25.241713971800035 25.21973997436367 25.241713971800035 25.241713971800035 25.241713971800035 25.241713971800035 25.241713971800035 25.21973997436367 25.21973997436367 25.21973997436367 25.197765976927304 25.197765976927304 25.175791979490935 25.15381798205457 25.15381798205457 25.109869987181835 25.109869987181835 25.08789598974547 25.08789598974547 25.08789598974547 25.08789598974547 25.08789598974547 25.08789598974547 25.08789598974547 25.08789598974547 25.08789598974547 25.08789598974547 25.08789598974547 25.08789598974547 25.109869987181835 25.08789598974547 25.109869987181835 25.109869987181835 25.109869987181835 25.109869987181835 25.109869987181835 25.1318439846182 25.1318439846182 25.15381798205457 25.175791979490935 25.241713971800035 25.28566196667277 25.37355795641824 25.461453946163708 25.615271928218274 25.72514191540011 25.922907892327412 26.186595861563816 26.42830983336385 26.999633766709394 27.263321735945798 27.592931697491302 28.076359641091376 28.53781358725508 28.999267533418788 29.438747482146127 29.658487456509796 29.966123420618935 30.273759384728073 30.735213330891778 31.108771287310017 31.41640725141915 31.767991210401025 32.4491851309284 32.84471708478301 33.416041018128546 34.05328694378319 34.53671488738326 35.21790880791064 35.70133675151071 36.58029664896539 36.997802600256364 37.3713605566746 37.78886650796557 38.22834645669291 38.53598242080205 38.97546236952939 39.28309833363853 39.722578282365866 40.140084233656836 40.42574620032961 40.97509613623878 41.26075810291155 41.52444607214796 41.94195202343893 42.27156198498443 42.90880791063908 43.392235854239146 43.721845815784654 44.205273759384724 44.53488372093023 45.0842336568394 45.50173960813038 46.02911554660319 46.64438747482146 47.30360739791247 47.87493133125801 48.49020325947629 48.99560520051273 49.984435085149244 50.48983702618568 51.21497894158579 51.69840688518586 52.46749679545871 53.03882072880425 54.15949459805896 54.79674052371361 55.65372642373192 56.422816334004764 57.016114264786665 57.74125618018678 58.83995605200513 59.4552279802234 60.290239882805345 60.90551181102362 61.74052371360557 62.59750961362388 63.10291155466032 63.87200146493316 64.68503937007874 65.32228529573338 65.9815052188244 66.48690715986083 67.43178904962461 67.91521699322467 68.31074894707929 68.92602087529757 69.4973448086431 69.8928767624977 70.44222669840688 70.92565464200696 71.38710858817066 71.80461453946164 72.11225050357078 72.68357443691632 73.16700238051638 73.65043032411646 73.95806628822561 74.24372825489837 74.70518220106207 75.14466214978941 75.43032411646219 75.80388207288043 76.06757004211683 76.39718000366233 76.70481596777148 76.90258194469877 77.10034792162608 77.34206189342612 77.42995788317158 77.56180186778978 77.60574986266252 77.62772386009888 77.64969785753524 77.62772386009888 77.60574986266252 77.56180186778978 77.47390587804432 77.29811389855337 77.05639992675334 76.8146859549533 76.57297198315328 76.37520600622597 76.04559604468047 75.6940120856986 75.32045412928035 74.92492217542575 74.68320820362571 74.41952023438931 74.04596227797106 73.60648232924373 73.27687236769822 72.8373924189709 72.48580845998902 72.0243545138253 71.65079655740706 70.94762863944334 70.22248672404322 69.87090276506135 69.47537081120674 68.7062809009339 68.17890496246109 67.69547701886101 67.19007507782457 66.75059512909723 66.13532320087896 65.69584325215162 65.14649331624244 64.39937740340596 64.20161142647866 63.630287493133125 63.256729536714886 62.46566562900568 62.02618568027834 61.38893975462369 60.75169382896905 60.114447903314414 59.652993957150706 59.23548800585973 58.79600805713239 57.93902215711408 57.34572422633217 56.686504303241165 56.247024354513826 55.89544039553195 55.28016846731368 54.90661051089544 54.269364585240794 53.456326680095216 53.03882072880425 52.59934078007691 52.02801684673137 51.50064090825856 50.81944698773118 50.42391503387658 49.984435085149244 49.3471891594946 48.75389122871269 48.35835927485809 47.74308734663981 47.17176341329427 46.64438747482146 46.292803515839594 45.96319355429409 45.47976561069402 44.99633766709394 44.4909357260575 44.007507782457424 43.655923823475554 43.128547885002746 42.842885918329976 42.42537996703901 41.9639260208753 41.54642006958433 41.21681010803882 40.79930415674785 40.42574620032961 39.986266251602274 39.546786302874935 39.06335835927486 38.71177440029299 38.29426844900202 37.94268449002014 37.5032045412928 36.690166636147225 36.38253067203809 36.052920710492586 35.72331074894708 35.15198681560154 34.8443508514924 34.53671488738326 34.11920893609229 33.81157297198315 33.372093023255815 33.130379051455776 32.734847097601175 32.36128914118294 32.00970518220106 31.767991210401025 31.46035524629189 31.196667277055482 30.976927302691813 30.691265336019043 30.471525361655374 30.14191540010987 29.812305438564366 29.460721479582496 29.109137520600623 28.823475553927853 28.449917597509614 28.076359641091376 27.90056766160044 27.834645669291337 27.724775682109502 27.592931697491302 27.527009705182202 27.461087712873102 27.395165720564 27.285295733382164 27.241347738509432 27.17542574620033 27.087529756454863 27.02160776414576 26.933711774400294 26.82384178721846 26.73594579747299 26.691997802600255 26.648049807727524 26.60410181285479 26.58212781541842 26.538179820545686 26.51620582310932 26.51620582310932 26.494231825672955 26.472257828236586 26.45028383080022 26.42830983336385 26.406335835927486 26.36238784105475 26.318439846182017 26.29646584874565 26.252517853872916 26.164621864127447 26.14264786669108 26.098699871818347 26.07672587438198 26.01080388207288 25.944881889763778 25.900933894891047 25.835011902581943 25.791063907709212 25.769089910272843 25.747115912836477 25.747115912836477 25.72514191540011 25.681193920527377 25.681193920527377 25.65921992309101 25.637245925654643 25.615271928218274 25.593297930781908 25.571323933345543 25.549349935909174 25.527375938472808 25.527375938472808 25.527375938472808 25.50540194103644 25.50540194103644 25.50540194103644 25.50540194103644 25.50540194103644 25.483427943600073 25.50540194103644 25.483427943600073 25.483427943600073 25.483427943600073 25.483427943600073 25.483427943600073 25.483427943600073 25.483427943600073 25.483427943600073 25.461453946163708 25.483427943600073 25.483427943600073 25.461453946163708 25.461453946163708 25.461453946163708 25.461453946163708 25.461453946163708 25.43947994872734 25.43947994872734 25.43947994872734 25.43947994872734 25.43947994872734 25.43947994872734 25.43947994872734 25.43947994872734 25.43947994872734 25.417505951290973 25.417505951290973 25.417505951290973 25.43947994872734 25.417505951290973 25.43947994872734 25.43947994872734 25.417505951290973 25.417505951290973 25.417505951290973 25.417505951290973 25.417505951290973 25.417505951290973 25.417505951290973 25.417505951290973 25.417505951290973 25.417505951290973 25.417505951290973 25.417505951290973 25.417505951290973 25.417505951290973 25.417505951290973 25.417505951290973 25.417505951290973 25.417505951290973 25.417505951290973 25.417505951290973 25.417505951290973 25.417505951290973 25.417505951290973 25.417505951290973 25.417505951290973 25.417505951290973 25.417505951290973 25.417505951290973 25.417505951290973 25.417505951290973 25.417505951290973 25.417505951290973 25.395531953854604 25.417505951290973 25.395531953854604 25.395531953854604 25.395531953854604 25.395531953854604 25.37355795641824 25.37355795641824 25.37355795641824 25.37355795641824 25.37355795641824 25.37355795641824 25.37355795641824 25.37355795641824 25.37355795641824 25.35158395898187 25.35158395898187 25.35158395898187 25.35158395898187 25.35158395898187 25.35158395898187 25.35158395898187 25.35158395898187 25.329609961545504 25.329609961545504 25.329609961545504 25.329609961545504 25.329609961545504 25.329609961545504 25.30763596410914 25.30763596410914 25.30763596410914 25.30763596410914 25.30763596410914 25.30763596410914 25.30763596410914 25.30763596410914 25.30763596410914 25.30763596410914 25.30763596410914 25.30763596410914 25.30763596410914 25.30763596410914 25.30763596410914 25.30763596410914 25.30763596410914 25.30763596410914 25.30763596410914 25.30763596410914 25.30763596410914 25.30763596410914 25.30763596410914 25.30763596410914 25.28566196667277 25.30763596410914 25.30763596410914 25.30763596410914 25.30763596410914 25.30763596410914 25.30763596410914 25.30763596410914 25.30763596410914 25.28566196667277 25.28566196667277 25.28566196667277 25.28566196667277 25.28566196667277 25.28566196667277 25.28566196667277 25.28566196667277 25.28566196667277 25.28566196667277 25.28566196667277 25.263687969236404 25.263687969236404 25.263687969236404 25.263687969236404 25.263687969236404 25.263687969236404 25.263687969236404 25.263687969236404 25.263687969236404 25.263687969236404 25.263687969236404 25.263687969236404 25.241713971800035 25.241713971800035 25.241713971800035 25.241713971800035 25.241713971800035 25.241713971800035 25.241713971800035 25.241713971800035 25.241713971800035 25.241713971800035 25.241713971800035 25.241713971800035 25.241713971800035 25.241713971800035 25.241713971800035 25.241713971800035 25.241713971800035 25.241713971800035 25.241713971800035 25.241713971800035 25.241713971800035 25.241713971800035 25.241713971800035 25.241713971800035 25.21973997436367 25.21973997436367 25.241713971800035 25.241713971800035 25.241713971800035 25.21973997436367 25.241713971800035 25.241713971800035 25.241713971800035 25.241713971800035 25.21973997436367 25.241713971800035 25.21973997436367 25.241713971800035 25.241713971800035 25.241713971800035 25.21973997436367 25.241713971800035 25.241713971800035 25.241713971800035 25.241713971800035 25.241713971800035 25.241713971800035 25.241713971800035 25.241713971800035 25.241713971800035 25.241713971800035 25.241713971800035 25.241713971800035 25.241713971800035 25.241713971800035 25.263687969236404 25.263687969236404 25.263687969236404 25.263687969236404 25.28566196667277 25.28566196667277 25.30763596410914 25.329609961545504 25.37355795641824 25.395531953854604 25.417505951290973 25.461453946163708 25.50540194103644 25.571323933345543 25.65921992309101 25.72514191540011 25.835011902581943 25.966855887200147 26.07672587438198 26.274491851309286 26.45028383080022 26.73594579747299 27.065555759018494 27.263321735945798 27.570957700054933 27.944515656473172 28.18622962827321 28.49386559238235 28.823475553927853 29.680461453946165 30.010071415491666 30.559421351400843 30.998901300128182 31.328511261673686 31.74601721296466 32.03167917963743 32.53708112067387 32.95458707196484 33.32814502838308 33.61380699505585 33.96539095403772 34.207104925837754 34.55868888481963 34.9102728438015 35.19593481047427 35.61344076176525 36.052920710492586 36.51437465665629 36.931880607947264 37.261490569492764 37.635048525911 37.94268449002014 38.29426844900202 38.86559238234756 39.612708295184035 40.249954220838674 40.77733015931148 41.21681010803882 41.67826405420253 42.24958798754807 43.08459989013001 43.568027833730085 44.139351767075624 44.5568577183666 45.15015564914851 45.74345357993042 46.314777513275956 46.66636147225783 47.083867423548796 47.69913935176707 48.38033327229445 49.14942318256729 49.89653909540377 50.48983702618568 51.083134956967584 51.50064090825856 51.83025086980406 52.44552279802234 53.324482695477016 53.91778062625893 54.77476652627723 55.56583043398645 56.247024354513826 57.08203625709577 57.65336019044131 58.53232008789599 59.3893059879143 59.982603918696206 60.83958981871452 61.45486174693279 62.53158762131478 63.344625526460355 64.06976744186046 64.66306537264236 65.21241530855156 65.87163523164256 66.92638710858817 67.49771104193371 68.13495696758835 68.81615088811573 69.05786485991577 69.8928767624977 70.35433070866142 70.92565464200696 71.51895257278886 71.98040651895258 72.46383446255265 72.99121040102546 73.40871635231643 73.8921442959165 74.30965024720747 74.74913019593481 75.27650613440761 75.65006409082585 76.13349203442593 76.6828419703351 76.96850393700788 77.40798388573522 77.73759384728072 78.17707379600806 78.57260574986266 78.90221571140816 79.23182567295368 79.49551364219008 79.60538362937191 79.93499359091741 80.08881157297199 80.35249954220839 80.55026551913569 80.77000549349935 80.96777147042667 81.20948544222671 81.38527742171763 81.60501739608131 81.73686138069951 81.95660135506317 82.15436733199049 82.28621131660869 82.44002929866325 82.59384728071782 82.70371726789965 82.85753524995422 82.96740523713606 83.03332722944516 83.03332722944516 83.03332722944516 83.03332722944516 83.01135323200879 82.92345724226331 82.61582127815419 82.37410730635415 81.97857535249955 81.58304339864495 81.25343343709943 80.87987548068119 80.41842153451748 80.11078557040835 79.64933162424464 79.25379967039004 78.85826771653544 78.352865775499 78.02325581395348 77.32008789598976 76.8806079472624 76.52902398828054 75.97967405237137 75.40835011902581 74.66123420618933 74.00201428309833 73.51858633949826 72.81541842153452 72.33199047793445 71.58487456509798 70.85973264969786 70.28840871635232 69.5632668009522 68.8381248855521 68.22285295733383 67.56363303424281 67.01428309833364 66.02545321369712 65.49807727522432 64.97070133675152 64.20161142647866 63.432521516205824 62.88317158029665 61.8503937007874 61.30104376487823 60.509979857169014 59.938655923823475 59.34535799304157 58.66416407251419 57.609412195568574 57.038088262223035 56.29097234938656 55.74162241347739 54.90661051089544 54.137520600622594 53.632118659586155 52.81908075444058 52.02801684673137 51.4786669108222 50.73155099798572 50.226149056949275 49.2812671671855 48.81981322102179 48.38033327229445 47.78703534151254 47.17176341329427 46.73228346456693 46.182933528657756 45.54568760300312 44.9523896722212 44.33711774400293 43.91961179271196 43.326313861930046 42.864859915766345 42.31550997985717 41.52444607214796 41.04101812854789 40.667460172129644 39.920344259293174 39.788500274674966 39.06335835927486 38.60190441311115 37.98663248489288 37.34938655923823 36.931880607947264 36.360556674601725 35.85515473356528 35.50357077458341 35.0421168284197 34.7125068668742 34.16315693096502 33.723676982237684 33.569859000183115 33.04248306171031 32.60300311298297 32.40523713605567 31.96575718732833 31.702069218091925 31.328511261673686 30.998901300128182 30.801135323200878 30.58139534883721 30.42757736678264 30.317707379600805 30.185863394982604 30.097967405237135 29.9880974180553 29.8562534334371 29.724409448818896 29.570591466764327 29.438747482146127 29.284929500091557 29.065189525727888 28.867423548800588 28.449917597509614 28.142281633400476 28.05438564365501 27.944515656473172 27.856619666727706 27.81267167185497 27.768723676982237 27.724775682109502 27.702801684673137 27.658853689800402 27.636879692364037 27.592931697491302 27.548983702618568 27.527009705182202 27.483061710309467 27.461087712873102 27.417139718000367 27.395165720564 27.373191723127633 27.329243728254898 27.285295733382164 27.263321735945798 27.219373741073063 27.197399743636698 27.153451748763963 27.10950375389123 27.065555759018494 27.02160776414576 26.97765976927303 26.933711774400294 26.867789782091194 26.845815784654825 26.80186778978209 26.757919794909355 26.713971800036624 26.67002380516389 26.626075810291155 26.58212781541842 26.560153817982055 26.538179820545686 26.538179820545686 26.494231825672955 26.494231825672955 26.472257828236586 26.45028383080022 26.42830983336385 26.38436183849112 26.36238784105475 26.340413843618386 26.318439846182017 26.274491851309286 26.274491851309286 26.274491851309286 26.274491851309286 26.274491851309286 26.252517853872916 26.252517853872916 26.252517853872916 26.252517853872916 26.252517853872916 26.23054385643655 26.208569859000182 26.186595861563816 26.186595861563816 26.186595861563816 26.164621864127447 26.14264786669108 26.14264786669108 26.120673869254716 26.098699871818347 26.07672587438198 26.07672587438198 26.054751876945616 26.01080388207288 26.01080388207288 25.988829884636512 25.988829884636512 25.944881889763778 25.944881889763778 25.922907892327412 25.922907892327412 25.922907892327412 25.922907892327412 25.922907892327412 25.922907892327412 25.900933894891047 25.878959897454678 25.878959897454678 25.856985900018312 25.856985900018312 25.856985900018312 25.835011902581943 25.835011902581943 25.835011902581943 25.835011902581943 25.813037905145578 25.813037905145578 25.791063907709212 25.791063907709212 25.791063907709212 25.769089910272843 25.769089910272843 25.769089910272843 25.747115912836477 25.747115912836477 25.747115912836477 25.747115912836477 25.747115912836477 25.747115912836477 25.747115912836477 25.747115912836477 25.747115912836477 25.747115912836477 25.747115912836477 25.747115912836477 25.747115912836477 25.747115912836477 25.747115912836477 25.747115912836477 25.747115912836477 25.747115912836477 25.747115912836477 25.747115912836477 25.747115912836477 25.72514191540011 25.747115912836477 25.72514191540011 25.72514191540011 25.72514191540011 25.72514191540011 25.72514191540011 25.72514191540011 25.72514191540011 25.72514191540011 25.72514191540011 25.703167917963743 25.703167917963743 25.703167917963743 25.703167917963743 25.703167917963743 25.703167917963743 25.703167917963743 25.703167917963743 25.703167917963743 25.703167917963743 25.703167917963743 25.703167917963743 25.703167917963743 25.703167917963743 25.703167917963743 25.703167917963743 25.703167917963743 25.681193920527377 25.681193920527377 25.681193920527377 25.703167917963743 25.703167917963743 25.681193920527377 25.681193920527377 25.681193920527377 25.681193920527377 25.681193920527377 25.681193920527377 25.681193920527377 25.681193920527377 25.681193920527377 25.681193920527377 25.681193920527377 25.681193920527377 25.681193920527377 25.681193920527377 25.681193920527377 25.65921992309101 25.681193920527377 25.681193920527377 25.681193920527377 25.65921992309101 25.65921992309101 25.65921992309101 25.65921992309101 25.65921992309101 25.65921992309101 25.65921992309101 25.65921992309101 25.65921992309101 25.65921992309101 25.65921992309101 25.65921992309101 25.637245925654643 25.65921992309101 25.65921992309101 25.637245925654643 25.637245925654643 25.637245925654643 25.637245925654643 25.615271928218274 25.637245925654643 25.637245925654643 25.637245925654643 25.615271928218274 25.615271928218274 25.615271928218274 25.615271928218274 25.615271928218274 25.593297930781908 25.593297930781908 25.593297930781908 25.571323933345543 25.571323933345543 25.549349935909174 25.549349935909174 25.549349935909174 25.527375938472808 25.527375938472808 25.527375938472808 25.50540194103644 25.483427943600073 25.50540194103644 25.483427943600073 25.483427943600073 25.483427943600073 25.50540194103644 25.483427943600073 25.50540194103644 25.483427943600073 25.483427943600073 25.483427943600073 25.483427943600073 25.50540194103644 25.483427943600073 25.50540194103644 25.50540194103644 25.50540194103644 25.50540194103644 25.50540194103644 25.50540194103644 25.50540194103644 25.50540194103644 25.50540194103644 25.50540194103644 25.50540194103644 25.527375938472808 25.50540194103644 25.527375938472808 25.50540194103644 25.527375938472808 25.527375938472808 25.527375938472808 25.549349935909174 25.549349935909174 25.571323933345543 25.571323933345543 25.615271928218274 25.615271928218274 25.65921992309101 25.703167917963743 25.747115912836477 25.791063907709212 25.878959897454678 25.966855887200147 26.032777879509247 26.164621864127447 26.274491851309286 26.472257828236586 26.626075810291155 26.867789782091194 27.153451748763963 27.351217725691264 27.702801684673137 28.076359641091376 28.34004761032778 28.71360556674602 29.065189525727888 29.526643471891596 29.944149423182566 30.251785387291704 30.669291338582678 31.042849295000916 31.394433253982786 31.65812122321919 31.89983519501923 32.29536714887384 32.69089910272844 33.04248306171031 33.39406702069218 33.83354696941952 34.11920893609229 34.53671488738326 34.8443508514924 35.21790880791064 35.65738875663798 35.986998718183486 36.38253067203809 36.887932613074526 37.393334554110965 37.94268449002014 38.20637245925654 38.71177440029299 39.28309833363853 39.678630287493135 40.33785021058414 40.84325215162058 41.21681010803882 41.74418604651163 41.89800402856619 42.46932796191174 42.776963926020876 43.08459989013001 43.48013184398462 43.941585790148324 44.4250137337484 44.73264969785754 45.19410364402124 45.69950558505768 46.117011536348656 46.490569492766895 46.908075444057864 47.50137337483977 48.18256729536715 48.75389122871269 49.2153451748764 49.874565097967405 50.511811023622045 50.99523896722212 51.89617286211316 52.31367881340414 52.797106757004215 53.390404687786116 53.829884636513455 54.68687053653177 55.30214246475005 55.54385643655009 56.13715436733199 56.57663431605933 57.169932246841235 57.78520417505951 58.24665812122322 59.14759201611427 59.740889946896175 60.092473905878045 60.81761582127815 61.03735579564182 61.69657571873283 62.61948361106025 63.080937557223955 63.74015748031496 64.59714338033328 64.83885735213332 65.49807727522432 65.95953122138803 66.59677714704267 67.21204907526095 67.89324299578831 68.31074894707929 68.86009888298847 69.34352682658854 69.91485075993407 70.39827870353415 70.94762863944334 71.56290056766161 71.98040651895258 72.59567844717085 73.25489837026186 73.67240432155283 73.91411829335286 74.19978026002565 74.61728621131661 74.79307819080753 74.96887017029849 75.03479216260759 75.07874015748033 75.10071415491669 75.16663614722579 75.21058414209853 75.27650613440761 75.34242812671673 75.40835011902581 75.47427211133493 75.54019410364401 75.5621681010804 75.5621681010804 75.5621681010804 75.5621681010804 75.5621681010804 75.5621681010804 75.5621681010804 75.5621681010804 75.5621681010804 75.5621681010804 75.5621681010804 75.5621681010804 75.5621681010804 75.5621681010804 75.5621681010804 75.5621681010804 75.54019410364401 75.45229811389855 75.36440212415309 75.25453213697125 75.10071415491669 74.94689617286213 74.72715619849845 74.39754623695293 74.30965024720747 74.00201428309833 73.80424830617103 73.47463834462553 73.1010803882073 72.55173045229812 72.22212049075262 71.93645852407984 71.4969785753525 71.2332906061161 70.92565464200696 70.31038271378868 69.80498077275224 69.47537081120674 68.99194286760667 68.53048892144295 68.15693096502471 67.76139901117011 67.34389305987915 66.86046511627907 66.377037172679 66.02545321369712 65.32228529573338 64.94872733931514 64.35542940853324 63.95989745467863 63.630287493133125 63.058963559787585 62.487639626442046 61.67460172129647 61.25709577000549 60.75169382896905 60.158395898187145 59.674967954587075 59.2574620032961 58.55429408533236 57.74125618018678 57.08203625709577 56.598608313495696 56.09320637245926 55.58780443142282 54.97253250320454 54.51107855704083 53.851858633949824 53.302508698040654 52.68723676982238 52.04999084416774 51.56656290056766 50.665629005676614 50.006409082585606 49.45705914667643 48.99560520051273 48.51217725691265 47.96282732100348 47.10584142098517 46.600439479948726 46.00714154916682 45.43581761582128 45.23805163889398 44.2931697491302 44.09540377220289 43.54605383629372 43.01867789782091 42.57919794909357 41.98590001831167 41.65629005676616 41.32668009522065 40.79930415674785 40.403772202893244 39.7665262772386 39.32704632851126 38.93151437465666 38.60190441311115 37.89873649514741 37.4372825489837 37.08569859000183 36.646218641274494 36.20673869254715 35.78923274125618 35.52554477201978 35.15198681560154 34.82237685405603 34.60263687969236 34.36092290789233 34.141182933528654 33.83354696941952 33.48196301043765 33.350119025819446 33.152353048892145 32.866691082219376 32.734847097601175 32.47115912836477 32.27339315143747 32.0536531770738 31.702069218091925 31.548251236037355 31.24061527192822 31.108771287310017 30.911005310382713 30.845083318073613 30.713239333455412 30.493499359091743 30.317707379600805 30.163889397546235 29.944149423182566 29.790331441127996 29.570591466764327 29.262955502655192 29.043215528291523 28.889397546236953 28.603735579564184 28.296099615455045 28.12030763596411 28.03241164621864 27.944515656473172 27.834645669291337 27.74674967954587 27.636879692364037 27.505035707745833 27.395165720564 27.285295733382164 27.241347738509432 27.153451748763963 27.131477751327594 27.10950375389123 27.087529756454863 27.065555759018494 27.04358176158213 27.02160776414576 26.999633766709394 26.999633766709394 26.97765976927303 26.97765976927303 26.95568577183666 26.95568577183666 26.95568577183666 26.911737776963925 26.911737776963925 26.867789782091194 26.82384178721846 26.779893792345725 26.73594579747299 26.691997802600255 26.67002380516389 26.60410181285479 26.560153817982055 26.51620582310932 26.494231825672955 26.472257828236586 26.42830983336385 26.406335835927486 26.38436183849112 26.36238784105475 26.340413843618386 26.318439846182017 26.29646584874565 26.274491851309286 26.23054385643655 26.186595861563816 26.164621864127447 26.14264786669108 26.14264786669108 26.120673869254716 26.098699871818347 26.098699871818347 26.07672587438198 26.054751876945616 26.032777879509247 25.988829884636512 25.944881889763778 25.900933894891047 25.878959897454678 25.856985900018312 25.813037905145578 25.813037905145578 25.791063907709212 25.769089910272843 25.769089910272843 25.747115912836477 25.747115912836477 25.72514191540011 25.703167917963743 25.681193920527377 25.681193920527377 25.65921992309101 25.65921992309101 25.65921992309101 25.637245925654643 25.637245925654643 25.615271928218274 25.615271928218274 25.593297930781908 25.571323933345543 25.549349935909174 25.549349935909174 25.50540194103644 25.483427943600073 25.461453946163708 25.461453946163708 25.43947994872734 25.417505951290973 25.395531953854604 25.395531953854604 25.395531953854604 25.395531953854604 25.37355795641824 25.395531953854604 25.37355795641824 25.37355795641824 25.37355795641824 25.37355795641824 25.37355795641824 25.37355795641824 25.37355795641824 25.37355795641824 25.35158395898187 25.37355795641824 25.35158395898187 25.35158395898187 25.35158395898187 25.35158395898187 25.35158395898187 25.35158395898187 25.35158395898187 25.329609961545504 25.35158395898187 25.329609961545504 25.329609961545504 25.329609961545504 25.329609961545504 25.30763596410914 25.30763596410914 25.30763596410914 25.28566196667277 25.28566196667277 25.28566196667277 25.263687969236404 25.263687969236404 25.263687969236404 25.241713971800035 25.21973997436367 25.21973997436367 25.21973997436367 25.21973997436367 25.21973997436367 25.21973997436367 25.21973997436367 25.197765976927304 25.197765976927304 25.175791979490935 25.15381798205457 25.1318439846182 25.109869987181835 25.109869987181835 25.08789598974547 25.0659219923091 25.021973997436366 25.021973997436366 24.978026002563634 24.978026002563634 24.978026002563634 24.978026002563634 24.978026002563634 24.978026002563634 24.978026002563634 24.978026002563634 24.978026002563634 24.978026002563634 24.978026002563634 24.978026002563634 24.978026002563634 24.956052005127265 24.956052005127265 24.956052005127265 24.956052005127265 24.956052005127265 24.9340780076909 24.9340780076909 24.9340780076909 24.91210401025453 24.91210401025453 24.890130012818165 24.8681560153818 24.8681560153818 24.8681560153818 24.84618201794543 24.84618201794543 24.84618201794543 24.8681560153818 24.84618201794543 24.8681560153818 24.84618201794543 24.84618201794543 24.84618201794543 24.84618201794543 24.84618201794543 24.84618201794543 24.84618201794543 24.84618201794543 24.84618201794543 24.84618201794543 24.84618201794543 24.84618201794543 24.84618201794543 24.84618201794543 24.84618201794543 24.824208020509065 24.84618201794543 24.824208020509065 24.824208020509065 24.824208020509065 24.824208020509065 24.802234023072696 24.802234023072696 24.802234023072696 24.802234023072696 24.802234023072696 24.802234023072696 24.802234023072696 24.802234023072696 24.802234023072696 24.802234023072696 24.78026002563633 24.78026002563633 24.78026002563633 24.758286028199965 24.758286028199965 24.758286028199965 24.758286028199965 24.758286028199965 24.758286028199965 24.758286028199965 24.758286028199965 24.736312030763596 24.736312030763596 24.758286028199965 24.758286028199965 24.758286028199965 24.758286028199965 24.758286028199965 24.78026002563633 24.78026002563633 24.802234023072696 24.802234023072696 24.824208020509065 24.890130012818165 24.978026002563634 25.043947994872735 25.175791979490935 25.263687969236404 25.417505951290973 25.593297930781908 25.65921992309101 25.856985900018312 26.208569859000182 26.42830983336385 26.82384178721846 27.153451748763963 27.636879692364037 28.12030763596411 28.47189159494598 28.955319538546053 29.438747482146127 29.834279436000735 30.273759384728073 30.603369346273574 31.020875297564547 31.482329243728255 31.767991210401025 32.185497161692 32.646951107855706 32.95458707196484 33.372093023255815 33.855520966855885 34.33894891045596 34.6465848745651 35.17396081303791 35.67936275407435 36.22871268998352 36.602270646401756 37.129646584874564 37.48123054385644 38.00860648232924 38.71177440029299 38.77769639260209 39.458890313129466 39.986266251602274 40.381798205456874 40.90917414392968 41.30470609778429 41.78813404138436 42.27156198498443 42.60117194652994 43.08459989013001 43.787767808093754 44.16132576451199 44.73264969785754 44.97436366965757 45.72147958249405 46.182933528657756 46.57846548251236 47.3475553927852 48.00677531587621 48.46822926203992 49.19337117744003 49.654825123603736 50.40194103644021 51.149056949276684 52.04999084416774 52.81908075444058 53.390404687786116 53.93975462369529 54.6648965390954 55.56583043398645 55.96136238784105 56.356894341695664 56.796374290423 57.41164621864127 58.15876213147775 58.81798205456876 59.499175975096136 59.982603918696206 60.641823841787215 61.21314777513276 61.56473173411463 62.39974363669658 62.971067570042116 63.542391503387655 64.28950741622413 64.70701336751512 65.65189525727888 66.35506317524263 66.94836110602454 67.47573704449735 67.87126899835195 68.37667093938839 68.9699688701703 69.38747482146127 70.20051272660686 70.70591466764328 70.94762863944334 71.47500457791614 71.87053653177074 72.44186046511629 73.45266434718917 73.58450833180737 73.95806628822561 74.44149423182567 74.63926020875297 75.25453213697125 75.73796008057133 76.02362204724409 76.4850759934078 76.7487639626442 77.21021790880792 77.40798388573522 77.64969785753524 77.80351583958982 77.91338582677164 78.02325581395348 78.06720380882624 78.11115180369896 78.11115180369896 78.11115180369896 78.11115180369896 78.11115180369896 78.11115180369896 78.0891778062626 78.0891778062626 78.00128181651712 77.89141182933528 77.75956784471708 77.56180186778978 77.38600988829884 77.23219190624428 77.10034792162608 76.9465299395715 76.72678996520784 76.66086797289874 76.4850759934078 76.15546603186229 75.65006409082585 75.34242812671673 74.30965024720747 73.8921442959165 73.4966123420619 73.07910639077092 72.63962644204358 72.20014649331624 71.71671854971618 70.92565464200696 69.98077275224318 69.65116279069767 69.1018128547885 68.48654092657023 67.76139901117011 66.94836110602454 66.39901117011536 65.80571323933346 65.12451931880608 64.33345541109688 63.850027467496794 63.190807544405786 62.64145760849661 61.93828969053287 61.21314777513276 60.68577183665995 59.960629921259844 59.16956601355063 58.33455411096869 57.54349020325947 56.77440029298663 56.51071232375023 55.69767441860465 55.19227247756821 54.09357260574986 53.258560703167916 52.57736678264054 51.89617286211316 51.30287493133126 50.204175059512906 49.544955136421905 48.92968320820363 48.29243728254899 47.54532136971251 47.039919428676065 46.051089544039556 45.56766160043948 44.820545687603 44.139351767075624 43.721845815784654 43.216443874748215 42.44735396447537 41.85405603369347 41.19483611060245 40.75535616187511 39.7006042849295 39.08533235671123 38.62387841054752 38.16242446438381 37.7009705182201 37.195568577183664 36.80003662332906 36.404504669474456 35.78923274125618 35.02014283098333 34.7125068668742 34.18513092840139 33.74565097967405 33.196301043764876 32.62497711041934 32.07562717451016 31.548251236037355 31.108771287310017 30.845083318073613 30.493499359091743 30.20783739241897 29.790331441127996 29.284929500091557 29.043215528291523 28.69163156930965 28.38399560520051 28.16425563083684 27.922541659036806 27.87859366416407 27.790697674418606 27.724775682109502 27.658853689800402 27.592931697491302 27.548983702618568 27.505035707745833 27.439113715436733 27.373191723127633 27.351217725691264 27.285295733382164 27.219373741073063 27.153451748763963 27.087529756454863 27.02160776414576 26.97765976927303 26.933711774400294 26.867789782091194 26.80186778978209 26.757919794909355 26.67002380516389 26.58212781541842 26.494231825672955 26.36238784105475 26.274491851309286 26.164621864127447 26.054751876945616 25.966855887200147 25.835011902581943 25.747115912836477 25.65921992309101 25.571323933345543 25.50540194103644 25.461453946163708 25.417505951290973 25.395531953854604 25.395531953854604 25.395531953854604 25.395531953854604 25.395531953854604 25.37355795641824 25.37355795641824 25.35158395898187 25.35158395898187 25.35158395898187 25.35158395898187 25.329609961545504 25.329609961545504 25.329609961545504 25.30763596410914 25.28566196667277 25.28566196667277 25.263687969236404 25.241713971800035 25.21973997436367 25.197765976927304 25.175791979490935 25.1318439846182 25.08789598974547 25.043947994872735 25.021973997436366 25.0 24.978026002563634 24.978026002563634 24.978026002563634 24.956052005127265 24.956052005127265 24.956052005127265 24.956052005127265 24.956052005127265 24.956052005127265 24.9340780076909 24.9340780076909 24.9340780076909 24.9340780076909 24.9340780076909 24.9340780076909 24.9340780076909 24.91210401025453 24.91210401025453 24.91210401025453 24.91210401025453 24.91210401025453 24.91210401025453 24.91210401025453 24.91210401025453 24.91210401025453 24.91210401025453 24.91210401025453 24.91210401025453 24.890130012818165 24.890130012818165 24.890130012818165 24.890130012818165 24.890130012818165 24.890130012818165 24.890130012818165 24.890130012818165 24.890130012818165 24.890130012818165 24.890130012818165 24.8681560153818 24.890130012818165 24.890130012818165 24.8681560153818 24.8681560153818 24.8681560153818 24.8681560153818 24.84618201794543 24.84618201794543 24.84618201794543 24.84618201794543 24.84618201794543 24.84618201794543 24.84618201794543 24.824208020509065 24.84618201794543 24.824208020509065 24.824208020509065 24.824208020509065 24.824208020509065 24.824208020509065 24.802234023072696 24.802234023072696 24.802234023072696 24.802234023072696 24.802234023072696 24.802234023072696 24.78026002563633 24.802234023072696 24.78026002563633 24.78026002563633 24.802234023072696 24.802234023072696 24.78026002563633 24.78026002563633 24.802234023072696 24.78026002563633 24.78026002563633 24.802234023072696 24.78026002563633 24.78026002563633 24.78026002563633 24.78026002563633 24.78026002563633 24.78026002563633 24.78026002563633 24.78026002563633 24.78026002563633 24.78026002563633 24.78026002563633 24.78026002563633 24.78026002563633 24.78026002563633 24.78026002563633 24.78026002563633 24.758286028199965 24.78026002563633 24.78026002563633 24.78026002563633 24.78026002563633 24.78026002563633 24.78026002563633 24.78026002563633 24.78026002563633 24.758286028199965 24.78026002563633 24.78026002563633 24.78026002563633 24.758286028199965 24.758286028199965 24.78026002563633 24.78026002563633 24.78026002563633 24.78026002563633 24.78026002563633 24.78026002563633 24.78026002563633 24.758286028199965 24.78026002563633 24.758286028199965 24.78026002563633 24.78026002563633 24.78026002563633 24.78026002563633 24.78026002563633 24.78026002563633 24.78026002563633 24.758286028199965 24.78026002563633 24.78026002563633 24.758286028199965 24.758286028199965 24.758286028199965 24.78026002563633 24.758286028199965 24.758286028199965 24.758286028199965 24.78026002563633 24.78026002563633 24.758286028199965 24.78026002563633 24.78026002563633 24.758286028199965 24.758286028199965 24.758286028199965 24.758286028199965 24.758286028199965 24.758286028199965 24.78026002563633 24.758286028199965 24.758286028199965 24.758286028199965 24.78026002563633 24.758286028199965 24.758286028199965 24.758286028199965 24.758286028199965 24.758286028199965 24.758286028199965 24.758286028199965 24.758286028199965 24.758286028199965 24.758286028199965 24.758286028199965 24.758286028199965 24.758286028199965 24.758286028199965 24.758286028199965 24.758286028199965 24.758286028199965 24.758286028199965 24.758286028199965 24.758286028199965 24.758286028199965 24.758286028199965 24.758286028199965 24.758286028199965 24.758286028199965 24.758286028199965 24.758286028199965 24.758286028199965 24.758286028199965 24.758286028199965 24.758286028199965 24.758286028199965 24.758286028199965 24.758286028199965 24.736312030763596 24.758286028199965 24.758286028199965 24.736312030763596 24.758286028199965 24.758286028199965 24.758286028199965 24.736312030763596 24.758286028199965 24.758286028199965 24.758286028199965 24.758286028199965 24.736312030763596 24.736312030763596 24.758286028199965 24.758286028199965 24.758286028199965 24.736312030763596 24.758286028199965 24.736312030763596 24.758286028199965 24.736312030763596 24.758286028199965 24.758286028199965 24.758286028199965 24.758286028199965 24.758286028199965 24.758286028199965 24.758286028199965 24.78026002563633 24.758286028199965 24.78026002563633 24.78026002563633 24.802234023072696 24.824208020509065 24.824208020509065 24.84618201794543 24.890130012818165 24.956052005127265 25.0 25.1318439846182 25.21973997436367 25.35158395898187 25.43947994872734 25.549349935909174 25.703167917963743 25.922907892327412 26.098699871818347 26.36238784105475 26.60410181285479 26.97765976927303 27.373191723127633 27.658853689800402 28.09833363852774 28.55978758469145 28.84544955136422 29.240981505218826 29.460721479582496 29.8562534334371 30.07599340780077 30.273759384728073 30.603369346273574 30.954953305255447 31.24061527192822 31.767991210401025 32.03167917963743 32.4491851309284 32.75682109503754 32.998535066837576 33.503937007874015 33.855520966855885 34.09723493865592 34.44881889763779 34.69053286943783 35.06409082585607 35.45962277971068 35.74528474638345 36.16279069767442 36.558322651529025 36.997802600256364 37.327412561801864 37.67899652078374 38.09650247207471 38.77769639260209 39.173228346456696 39.612708295184035 39.986266251602274 40.62351217725691 41.54642006958433 41.87603003112983 42.24958798754807 42.60117194652994 42.996703900384546 43.45815784654825 43.80974180553012 44.31514374656656 44.84251968503937 45.30397363120308 45.78740157480315 46.33675151071232 46.754257462003295 47.36952939022157 47.76506134407617 48.60007324665812 49.14942318256729 49.56692913385827 50.138253067203806 50.55575901849478 50.95129097234938 51.56656290056766 52.09393883904047 52.906976744186046 53.588170664713424 54.071598608313494 54.81871452114997 55.54385643655009 56.15912836476836 56.70847830067753 57.191906244277604 57.76323017762314 58.33455411096869 58.73008606482329 59.587071964841606 60.202343893059876 60.55392785204175 61.08130379051456 61.54275773667826 62.20197765976927 62.81724958798755 63.476469511078555 64.09174143929684 64.92675334187878 65.36623329060612 65.62992125984252 66.06940120856986 66.97033510346091 67.34389305987915 67.76139901117011 68.24482695477019 68.72825489837027 69.12378685222487 69.4973448086431 69.80498077275224 70.24446072147958 70.70591466764328 70.94762863944334 71.3651345907343 71.80461453946164 72.20014649331624 72.59567844717085 72.77147042666178 73.18897637795277 73.6284563266801 74.13385826771653 74.61728621131661 74.90294817798939 75.51822010620765 75.6940120856986 76.00164804980773 76.57297198315328 76.96850393700788 77.25416590368064 77.60574986266252 77.80351583958982 78.06720380882624 78.19904779344444 78.2869437831899 78.37483977293536 78.46273576268084 78.46273576268084 78.4847097601172 78.46273576268084 78.46273576268084 78.46273576268084 78.46273576268084 78.352865775499 78.19904779344444 78.13312580113532 77.97930781908076 77.80351583958982 77.56180186778978 77.36403589086248 77.12232191906244 76.6828419703351 76.26533601904413 75.97967405237137 75.36440212415309 75.03479216260759 74.57333821644387 74.24372825489837 73.8262223036074 73.18897637795277 72.63962644204358 72.17817249587988 71.38710858817066 70.85973264969786 70.35433070866142 69.6951107855704 69.18970884453397 68.11298297015199 67.51968503937007 66.68467313678813 65.82768723676982 65.23438930598792 64.42135140084233 63.608313495696756 63.256729536714886 62.20197765976927 61.47683574436916 60.83958981871452 60.004577916132575 59.3893059879143 58.42245010071415 57.93902215711408 57.45559421351401 56.77440029298663 56.29097234938656 55.63175242629555 54.95055850576817 54.15949459805896 53.434352682658854 52.906976744186046 52.44552279802234 51.65445889031313 51.10510895440396 50.006409082585606 49.19337117744003 48.62204724409449 47.76506134407617 46.93004944149423 46.57846548251236 45.47976561069402 44.73264969785754 44.139351767075624 43.392235854239146 42.90880791063908 42.24958798754807 41.43655008240249 41.19483611060245 40.667460172129644 40.249954220838674 39.6346822926204 38.95348837209302 38.57993041567478 37.67899652078374 37.063724592565464 36.756088628456325 36.20673869254715 35.78923274125618 35.06409082585607 34.53671488738326 34.11920893609229 33.767624977110415 33.372093023255815 33.064457059146676 32.646951107855706 32.3173411463102 31.987731184764694 31.614173228346456 31.37245925654642 30.954953305255447 30.51547335652811 30.054019410364404 29.76835744369163 29.460721479582496 28.999267533418788 28.581761582127815 28.296099615455045 27.944515656473172 27.90056766160044 27.81267167185497 27.768723676982237 27.724775682109502 27.74674967954587 27.74674967954587 27.74674967954587 27.724775682109502 27.68082768723677 27.636879692364037 27.592931697491302 27.548983702618568 27.505035707745833 27.439113715436733 27.417139718000367 27.351217725691264 27.285295733382164 27.219373741073063 27.131477751327594 27.065555759018494 26.95568577183666 26.845815784654825 26.713971800036624 26.60410181285479 26.51620582310932 26.38436183849112 26.340413843618386 26.274491851309286 26.164621864127447 26.120673869254716 26.120673869254716 26.07672587438198 26.07672587438198 26.07672587438198 26.054751876945616 26.054751876945616 26.032777879509247 26.032777879509247 26.032777879509247 26.01080388207288 25.988829884636512 25.966855887200147 25.944881889763778 25.922907892327412 25.878959897454678 25.856985900018312 25.813037905145578 25.769089910272843 25.72514191540011 25.681193920527377 25.637245925654643 25.637245925654643 25.571323933345543 25.50540194103644 25.483427943600073 25.461453946163708 25.461453946163708 25.43947994872734 25.43947994872734 25.43947994872734 25.417505951290973 25.417505951290973 25.417505951290973 25.417505951290973 25.417505951290973 25.417505951290973 25.395531953854604 25.395531953854604 25.395531953854604 25.395531953854604 25.37355795641824 25.35158395898187 25.329609961545504 25.329609961545504 25.30763596410914 25.28566196667277 25.28566196667277 25.28566196667277 25.263687969236404 25.241713971800035 25.241713971800035 25.21973997436367 25.197765976927304 25.175791979490935 25.15381798205457 25.1318439846182 25.1318439846182 25.109869987181835 25.109869987181835 25.109869987181835 25.109869987181835 25.109869987181835 25.08789598974547 25.08789598974547 25.08789598974547 25.08789598974547 25.08789598974547 25.08789598974547 25.0659219923091 25.08789598974547 25.0659219923091 25.0659219923091 25.0659219923091 25.043947994872735 25.043947994872735 25.043947994872735 25.043947994872735 25.021973997436366 25.021973997436366 25.0 25.0 24.978026002563634 24.978026002563634 24.978026002563634 24.978026002563634 24.978026002563634 24.978026002563634 24.978026002563634 24.978026002563634 24.956052005127265 24.956052005127265 24.978026002563634 24.956052005127265 24.956052005127265 24.956052005127265 24.956052005127265 24.956052005127265 24.956052005127265 24.956052005127265 24.956052005127265 24.9340780076909 24.9340780076909 24.9340780076909 24.9340780076909 24.9340780076909 24.9340780076909 24.9340780076909 24.9340780076909 24.9340780076909 24.9340780076909 24.9340780076909 24.9340780076909 24.91210401025453 24.9340780076909 24.9340780076909 24.9340780076909 24.91210401025453 24.91210401025453 24.91210401025453 24.91210401025453 24.91210401025453 24.91210401025453 24.91210401025453 24.91210401025453 24.91210401025453 24.91210401025453 24.91210401025453 24.91210401025453 24.91210401025453 24.91210401025453 24.91210401025453 24.91210401025453 24.890130012818165 24.890130012818165 24.890130012818165 24.890130012818165 24.890130012818165 24.890130012818165 24.890130012818165 24.890130012818165 24.890130012818165 24.890130012818165 24.8681560153818 24.8681560153818 24.8681560153818 24.84618201794543 24.84618201794543 24.824208020509065 24.824208020509065 24.802234023072696 24.802234023072696 24.802234023072696 24.78026002563633 24.78026002563633 24.78026002563633 24.78026002563633 24.758286028199965 24.78026002563633 24.758286028199965 24.758286028199965 24.758286028199965 24.758286028199965 24.758286028199965 24.758286028199965 24.758286028199965 24.758286028199965 24.758286028199965 24.758286028199965 24.758286028199965 24.758286028199965 24.758286028199965 24.758286028199965 24.758286028199965 24.758286028199965 24.758286028199965 24.758286028199965 24.758286028199965 24.758286028199965 24.758286028199965 24.758286028199965 24.758286028199965 24.758286028199965 24.758286028199965 24.736312030763596 24.758286028199965 24.758286028199965 24.736312030763596 24.736312030763596 24.736312030763596 24.736312030763596 24.736312030763596 24.736312030763596 24.736312030763596 24.736312030763596 24.736312030763596 24.736312030763596 24.736312030763596 24.736312030763596 24.736312030763596 24.736312030763596 24.736312030763596 24.736312030763596 24.736312030763596 24.736312030763596 24.736312030763596 24.736312030763596 24.736312030763596 24.736312030763596 24.736312030763596 24.736312030763596 24.736312030763596 24.736312030763596 24.736312030763596 24.71433803332723 24.736312030763596 24.736312030763596 24.736312030763596 24.736312030763596 24.736312030763596 24.736312030763596 24.736312030763596 24.736312030763596 24.736312030763596 24.736312030763596 24.736312030763596 24.736312030763596 24.736312030763596 24.736312030763596 24.736312030763596 24.736312030763596 24.736312030763596 24.758286028199965 24.736312030763596 24.736312030763596 24.758286028199965 24.758286028199965 24.758286028199965 24.78026002563633 24.758286028199965 24.758286028199965 24.78026002563633 24.78026002563633 24.78026002563633 24.78026002563633 24.78026002563633 24.802234023072696 24.78026002563633 24.802234023072696 24.802234023072696 24.802234023072696 24.802234023072696 24.824208020509065 24.84618201794543 24.8681560153818 24.890130012818165 24.956052005127265 25.043947994872735 25.109869987181835 25.21973997436367 25.329609961545504 25.417505951290973 25.571323933345543 25.65921992309101 25.856985900018312 25.966855887200147 26.07672587438198 26.208569859000182 26.45028383080022 26.648049807727524 27.065555759018494 27.307269730818533 27.68082768723677 28.010437648782275 28.18622962827321 28.49386559238235 28.69163156930965 29.043215528291523 29.504669474455227 29.878227430873466 30.405603369346274 30.954953305255447 31.328511261673686 31.87786119758286 32.27339315143747 32.800769089910276 33.306171030946714 33.635780992492215 34.09723493865592 34.73448086431057 35.02014283098333 35.63541475920161 36.09686870536532 36.44845266434719 36.953854605383626 37.129646584874564 37.98663248489288 38.33821644387475 38.60190441311115 39.15125434902033 39.5028383080022 39.986266251602274 40.68943416956601 40.90917414392968 41.43655008240249 42.0298480131844 42.44735396447537 43.062625892693646 43.699871818348285 44.18329976194836 44.84251968503937 45.28199963376671 45.69950558505768 46.424647500457795 46.73228346456693 47.23768540560337 47.63321735945797 48.46822926203992 49.03955319538546 49.45705914667643 50.006409082585606 50.709577000549345 50.86339498260392 51.34682292620399 51.65445889031313 52.04999084416774 52.48947079289508 52.775132759567846 53.236586705731554 53.61014466214979 53.763962644204355 54.24739058780443 54.57700054934993 55.08240249038637 55.63175242629555 56.26899835195019 56.884270280168465 57.41164621864127 58.04889214429592 58.48837209302326 58.9937740340597 59.916681926387106 60.61984984435085 61.12525178538729 61.80644570591467 62.33382164438748 63.01501556491485 63.828053470060425 64.3114814136605 65.08057132393334 65.76176524446072 66.28914118293352 66.99230910089727 67.47573704449735 68.31074894707929 68.7062809009339 69.1018128547885 69.65116279069767 70.17853872917048 70.50814869071598 71.14539461637062 71.4969785753525 71.91448452664348 72.22212049075262 72.48580845998902 73.07910639077092 73.4966123420619 73.80424830617103 74.37557223951657 74.59531221388025 74.96887017029849 75.40835011902581 75.71598608313496 76.33125801135323 76.616919978026 76.92455594213514 77.42995788317158 77.73759384728072 78.26496978575352 78.79234572422632 79.12195568577184 79.64933162424464 80.15473356528108 80.70408350119027 81.0776414576085 81.64896539095403 82.17634132942685 82.52792528840871 82.8135872550815 83.31898919611793 83.58267716535434 83.7364951474089 83.89031312946346 84.0001831166453 84.11005310382714 84.17597509613624 84.17597509613624 84.15400109869987 84.17597509613624 84.1320271012635 84.04413111151804 83.84636513459074 83.64859915766343 83.16517121406336 82.83556125251786 82.54989928584509 82.26423731917231 81.64896539095403 81.1435634499176 80.72605749862663 80.15473356528108 79.56143563449919 79.29774766526278 78.352865775499 77.80351583958982 77.0783739241897 76.33125801135323 75.6940120856986 75.03479216260759 74.24372825489837 73.65043032411646 72.81541842153452 72.20014649331624 71.27723860098882 70.11261673686138 69.54129280351583 68.77220289324299 68.28877494964291 67.47573704449735 66.9044131111518 66.42098516755172 65.73979124702436 64.53122138802416 64.28950741622413 63.476469511078555 62.72935359824208 62.42171763413294 61.05932979307819 60.75169382896905 59.850759934078006 58.88390404687786 58.26863211865959 57.43362021607764 56.22505035707746 55.60977842885919 54.99450650064091 54.37923457242263 53.566196667277055 52.75315876213148 51.85222486724043 51.03918696209485 50.226149056949275 49.63285112616737 49.06152719282183 48.51217725691265 47.91887932613075 47.083867423548796 46.622413477385095 45.985167551730456 45.54568760300312 44.86449368247574 44.073429774766524 43.67789782091192 42.97472990294818 42.24958798754807 41.67826405420253 40.77733015931148 40.184032228529574 39.656656290056766 38.97546236952939 38.71177440029299 38.05255447720198 37.4372825489837 37.019776597692726 36.316608679728986 35.81120673869255 35.50357077458341 35.21790880791064 34.9102728438015 34.44881889763779 34.141182933528654 33.723676982237684 33.350119025819446 32.88866507965574 32.27339315143747 32.185497161692 31.767991210401025 31.28456326680095 30.801135323200878 30.405603369346274 29.9880974180553 29.658487456509796 29.219007507782457 28.889397546236953 28.669657571873284 28.31807361289141 28.09833363852774 28.010437648782275 27.944515656473172 27.87859366416407 27.790697674418606 27.724775682109502 27.702801684673137 27.614905694927668 27.548983702618568 27.505035707745833 27.417139718000367 27.351217725691264 27.219373741073063 27.131477751327594 27.04358176158213 26.933711774400294 26.82384178721846 26.691997802600255 26.51620582310932 26.38436183849112 26.252517853872916 26.186595861563816 26.098699871818347 25.988829884636512 25.944881889763778 25.900933894891047 25.900933894891047 25.900933894891047 25.878959897454678 25.878959897454678 25.878959897454678 25.856985900018312 25.856985900018312 25.835011902581943 25.791063907709212 25.791063907709212 25.769089910272843 25.747115912836477 25.72514191540011 25.703167917963743 25.703167917963743 25.681193920527377 25.65921992309101 25.637245925654643 25.615271928218274 25.571323933345543 25.571323933345543 25.549349935909174 25.527375938472808 25.50540194103644 25.483427943600073 25.461453946163708 25.43947994872734 25.417505951290973 25.417505951290973 25.37355795641824 25.35158395898187 25.329609961545504 25.30763596410914 25.28566196667277 25.28566196667277 25.263687969236404 25.263687969236404 25.263687969236404 25.241713971800035 25.241713971800035 25.241713971800035 25.241713971800035 25.241713971800035 25.241713971800035 25.21973997436367 25.241713971800035 25.241713971800035 25.21973997436367 25.21973997436367 25.241713971800035 25.21973997436367 25.21973997436367 25.21973997436367 25.197765976927304 25.197765976927304 25.197765976927304 25.175791979490935 25.175791979490935 25.175791979490935 25.175791979490935 25.15381798205457 25.175791979490935 25.15381798205457 25.15381798205457 25.15381798205457 25.1318439846182 25.1318439846182 25.1318439846182 25.1318439846182 25.1318439846182 25.109869987181835 25.109869987181835 25.08789598974547 25.08789598974547 25.08789598974547 25.08789598974547 25.08789598974547 25.0659219923091 25.0659219923091 25.0659219923091 25.0659219923091 25.0659219923091 25.0659219923091 25.043947994872735 25.043947994872735 25.043947994872735 25.043947994872735 25.043947994872735 25.043947994872735 25.043947994872735 25.043947994872735 25.043947994872735 25.043947994872735 25.043947994872735 25.043947994872735 25.043947994872735 25.021973997436366 25.021973997436366 25.043947994872735 25.021973997436366 25.021973997436366 25.021973997436366 25.021973997436366 25.0 25.0 25.0 25.0 25.0 25.021973997436366 25.0 25.0 25.0 25.0 25.0 25.0 25.0 25.0 25.0 25.0 25.0 25.0 25.0 24.978026002563634 24.978026002563634 25.0 24.978026002563634 25.0 24.978026002563634 24.978026002563634 24.978026002563634 24.978026002563634 24.978026002563634 24.978026002563634 24.978026002563634 24.978026002563634 24.978026002563634 24.978026002563634 24.978026002563634 24.978026002563634 24.978026002563634 24.978026002563634 24.956052005127265 24.956052005127265 24.978026002563634 24.978026002563634 24.978026002563634 24.978026002563634 24.956052005127265 24.978026002563634 24.956052005127265 24.956052005127265 24.956052005127265 24.956052005127265 24.956052005127265 24.956052005127265 24.956052005127265 24.956052005127265 24.956052005127265 24.9340780076909 24.9340780076909 24.9340780076909 24.9340780076909 24.91210401025453 24.91210401025453 24.890130012818165 24.890130012818165 24.890130012818165 24.8681560153818 24.8681560153818 24.8681560153818 24.8681560153818 24.8681560153818 24.8681560153818 24.8681560153818 24.8681560153818 24.8681560153818 24.8681560153818 24.8681560153818 24.8681560153818 24.8681560153818 24.8681560153818 24.8681560153818 24.8681560153818 24.8681560153818 24.8681560153818 24.8681560153818 24.84618201794543 24.8681560153818 24.84618201794543 24.84618201794543 24.84618201794543 24.84618201794543 24.84618201794543 24.84618201794543 24.84618201794543 24.84618201794543 24.84618201794543 24.84618201794543 24.84618201794543 24.84618201794543 24.84618201794543 24.84618201794543 24.84618201794543 24.84618201794543 24.84618201794543 24.84618201794543 24.824208020509065 24.84618201794543 24.84618201794543 24.84618201794543 24.84618201794543 24.84618201794543 24.84618201794543 24.84618201794543 24.824208020509065 24.84618201794543 24.824208020509065 24.84618201794543 24.824208020509065 24.84618201794543 24.84618201794543 24.824208020509065 24.824208020509065 24.84618201794543 24.824208020509065 24.84618201794543 24.824208020509065 