29.0 28.969236403589086 28.969236403589086 29.0 29.0 29.0 29.0 29.0 28.969236403589086 28.969236403589086 28.969236403589086 28.969236403589086 29.0 29.0 28.969236403589086 29.0 28.969236403589086 29.0 29.0 29.0 29.0 29.0 29.0 29.0 29.0 29.0 29.0 29.0 29.0 29.0 29.0 28.969236403589086 29.0 29.0 29.0 29.0 29.0 29.0 29.0 29.0 29.0 29.0 29.0 28.969236403589086 29.0 29.0 28.969236403589086 29.0 28.969236403589086 29.0 29.0 29.0 29.0 29.0 29.0 29.0 29.0 29.0 28.969236403589086 29.0 29.0 29.0 28.969236403589086 29.0 29.0 29.0 28.969236403589086 28.969236403589086 29.0 29.0 29.0 29.0 28.969236403589086 29.0 29.0 29.0 29.0 28.969236403589086 29.0 29.0 29.0 29.0 29.0 28.969236403589086 29.0 28.969236403589086 29.0 29.0 29.0 28.969236403589086 29.0 29.0 29.0 29.0 29.0 29.0 29.0 28.969236403589086 29.0 28.969236403589086 28.969236403589086 28.969236403589086 29.0 29.0 29.0 29.0 29.0 29.0 29.0 29.0 29.0 29.0 29.0 28.969236403589086 28.969236403589086 29.0 29.0 29.0 29.0 28.969236403589086 29.0 28.969236403589086 29.0 28.969236403589086 29.0 28.969236403589086 29.0 29.0 29.0 29.0 29.0 29.0 29.0 29.0 28.969236403589086 29.0 28.969236403589086 29.0 28.969236403589086 29.0 29.0 28.969236403589086 29.0 28.969236403589086 28.969236403589086 29.0 29.0 29.0 29.0 29.0 29.0 29.0 29.0 29.0 28.969236403589086 28.969236403589086 29.0 29.0 29.0 29.0 29.0 29.0 28.969236403589086 29.0 29.0 28.969236403589086 29.0 28.969236403589086 29.0 29.0 29.0 29.0 29.0 29.0 28.969236403589086 29.0 29.0 29.0 29.0 28.969236403589086 29.0 29.0 28.969236403589086 29.0 29.0 29.0 29.0 29.0 29.0 29.0 28.969236403589086 29.0 29.0 29.0 28.969236403589086 29.0 28.969236403589086 29.0 29.0 28.969236403589086 28.969236403589086 29.0 29.0 29.0 29.0 29.0 28.969236403589086 28.969236403589086 29.0 29.0 29.0 28.969236403589086 29.0 29.0 28.969236403589086 28.969236403589086 28.969236403589086 28.969236403589086 29.0 29.0 29.0 29.0 29.0 28.969236403589086 28.969236403589086 29.0 28.969236403589086 29.0 29.0 29.0 29.0 29.0 28.969236403589086 28.969236403589086 29.0 28.969236403589086 29.0 29.0 29.0 29.0 28.969236403589086 29.0 29.0 28.969236403589086 29.0 29.0 29.0 29.0 29.0 29.0 29.0 29.0 29.0 29.0 29.0 29.0 29.0 29.0 29.0 28.969236403589086 29.0 29.0 29.0 29.0 29.0 28.969236403589086 29.0 28.969236403589086 29.0 29.0 29.0 29.0 28.969236403589086 28.969236403589086 28.969236403589086 29.0 29.0 29.0 28.969236403589086 29.0 29.0 29.0 28.969236403589086 28.969236403589086 29.0 29.0 28.969236403589086 29.0 29.0 29.0 29.0 29.0 28.969236403589086 29.0 28.969236403589086 28.969236403589086 29.0 29.0 29.0 29.0 29.0 28.969236403589086 29.0 28.969236403589086 28.969236403589086 29.0 29.0 29.0 28.969236403589086 29.0 29.0 29.0 28.969236403589086 29.0 29.0 28.969236403589086 28.969236403589086 29.0 29.0 29.0 28.969236403589086 29.0 29.0 29.0 29.0 29.0 28.969236403589086 29.0 29.0 28.969236403589086 29.0 29.0 29.0 28.969236403589086 29.0 29.0 29.0 29.0 29.0 29.0 28.969236403589086 28.969236403589086 29.0 28.969236403589086 29.0 28.969236403589086 28.969236403589086 28.969236403589086 29.0 29.0 29.0 29.0 29.0 28.969236403589086 29.0 28.969236403589086 28.969236403589086 29.0 28.969236403589086 28.969236403589086 28.969236403589086 28.969236403589086 28.969236403589086 29.0 28.969236403589086 29.0 29.0 29.0 29.0 29.0 29.0 29.0 29.0 29.0 29.0 28.969236403589086 29.0 28.969236403589086 29.0 29.0 29.0 29.0 29.0 29.0 29.0 29.0 29.0 28.969236403589086 28.969236403589086 29.0 29.0 28.969236403589086 29.0 29.0 29.0 29.0 29.0 29.0 29.0 29.0 29.0 29.0 29.0 28.969236403589086 29.0 28.969236403589086 29.0 29.0 29.0 28.969236403589086 29.0 29.0 28.969236403589086 28.969236403589086 29.0 28.969236403589086 29.0 28.969236403589086 29.0 28.969236403589086 29.0 28.969236403589086 29.0 29.0 28.969236403589086 29.0 29.0 29.0 29.0 29.0 29.0 28.969236403589086 29.0 29.0 29.0 29.0 28.969236403589086 29.0 28.969236403589086 28.969236403589086 29.0 28.969236403589086 29.0 28.969236403589086 28.969236403589086 28.969236403589086 28.969236403589086 29.0 28.969236403589086 29.0 28.969236403589086 28.969236403589086 29.0 28.969236403589086 29.0 29.0 29.0 28.969236403589086 29.0 28.969236403589086 29.0 29.0 28.969236403589086 28.969236403589086 29.0 29.0 28.969236403589086 29.0 28.969236403589086 28.969236403589086 29.0 28.969236403589086 29.0 28.969236403589086 28.969236403589086 29.0 29.0 29.0 29.0 28.969236403589086 29.0 28.969236403589086 29.0 29.0 28.969236403589086 28.969236403589086 28.969236403589086 29.0 29.0 28.969236403589086 28.969236403589086 28.969236403589086 29.0 28.969236403589086 29.0 29.0 28.969236403589086 29.0 29.0 28.969236403589086 29.0 29.0 28.969236403589086 29.0 29.0 29.0 29.0 28.969236403589086 29.0 29.0 29.0 29.0 29.0 29.0 29.0 29.0 28.969236403589086 29.0 29.0 29.0 29.0 29.0 28.969236403589086 29.0 28.969236403589086 29.0 29.0 29.0 29.0 29.0 29.0 29.0 29.0 29.0 28.969236403589086 28.969236403589086 28.969236403589086 29.0 28.969236403589086 29.0 29.0 29.0 29.0 29.0 29.0 29.0 29.0 28.969236403589086 29.0 29.0 29.0 29.0 29.0 29.0 29.0 29.0 29.0 28.969236403589086 28.969236403589086 29.0 29.0 28.969236403589086 29.0 29.0 28.969236403589086 28.969236403589086 29.0 29.0 29.0 29.0 29.0 29.0 29.0 29.0 28.969236403589086 29.0 29.0 28.969236403589086 28.969236403589086 29.0 29.0 29.0 28.969236403589086 28.969236403589086 29.0 29.0 28.969236403589086 29.0 29.0 29.0 28.969236403589086 28.969236403589086 28.969236403589086 29.0 29.0 29.0 29.0 29.0 29.0 29.0 28.969236403589086 28.969236403589086 29.0 28.969236403589086 29.0 29.0 28.969236403589086 28.969236403589086 29.0 28.969236403589086 28.969236403589086 29.0 29.0 29.0 29.0 29.0 28.969236403589086 29.0 29.0 29.0 29.0 29.0 29.0 29.0 29.0 29.030763596410914 29.061527192821828 29.09229078923274 29.123054385643655 29.184581578465483 29.215345174876397 29.276872367698225 29.338399560520052 29.39992675334188 29.49221754257462 29.615271928218274 29.769089910272843 29.83061710309467 29.953671488738326 30.13825306720381 30.261307452847465 30.415125434902034 30.538179820545686 30.599707013367514 30.630470609778428 30.72276139901117 30.938106573887566 31.184215345174877 31.461087712873102 31.79948727339315 32.19941402673503 32.63010437648782 33.0300311298297 33.522248672404324 33.983702618568024 34.44515656473173 34.937374107306354 35.52188243911371 36.044863578099246 36.62937190990661 37.21388024171397 37.767624977110415 38.38289690532869 38.967405237136056 39.644204358176154 40.22871268998352 40.936275407434536 41.797656106940124 42.72056399926753 43.5511811023622 44.41256180186779 45.36623329060612 46.28914118293353 47.212049075260936 48.165720563999265 49.027101263504846 50.01153634865409 50.903680644570585 51.85735213330892 52.718732832814496 53.67240432155283 54.65683940670207 55.425929316974916 56.47189159494598 57.48709027650613 58.47152536165537 59.363669657571876 60.40963193554294 61.33253982787035 62.28621131660868 63.055301226881525 64.00897271561985 65.02417139718 65.94707928950741 66.83922358542392 67.66984068851858 68.592748580846 69.66947445522797 70.53085515473356 71.63834462552646 72.09979857169017 73.14576084966123 74.06866874198865 75.02234023072697 75.88372093023256 76.71433803332724 77.29884636513458 78.12946346822926 78.71397180003662 79.51382530672038 80.28291521699322 80.80589635597875 81.5749862662516 82.2517853872917 82.83629371909906 83.57462003296098 83.97454678630287 84.52829152169932 84.92821827504119 85.32814502838306 85.8203625709577 86.46639809558688 86.80479765610693 87.23548800585974 87.54312396996886 87.97381431972167 88.34297747665262 88.68137703717267 89.32741256180186 89.635048525911 89.94268449002014 90.46566562900567 90.83482878593664 91.48086431056583 91.75773667826405 92.03460904596227 92.46529939571508 92.64988097418055 92.86522614905695 93.04980772752243 93.2343893059879 93.35744369163156 93.41897088445339 93.44973448086432 93.48049807727523 93.48049807727523 93.48049807727523 93.48049807727523 93.48049807727523 93.48049807727523 93.44973448086432 93.44973448086432 93.44973448086432 93.41897088445339 93.35744369163156 93.29591649880975 93.2343893059879 93.17286211316609 93.11133492034425 93.08057132393334 93.01904413111153 92.95751693828969 92.89598974546786 92.89598974546786 92.86522614905695 92.86522614905695 92.83446255264604 92.83446255264604 92.83446255264604 92.83446255264604 92.83446255264604 92.83446255264604 92.83446255264604 92.83446255264604 92.86522614905695 92.86522614905695 92.86522614905695 92.86522614905695 92.86522614905695 92.86522614905695 92.86522614905695 92.86522614905695 92.86522614905695 92.86522614905695 92.86522614905695 92.83446255264604 92.83446255264604 92.83446255264604 92.83446255264604 92.86522614905695 92.86522614905695 92.86522614905695 92.86522614905695 92.83446255264604 92.86522614905695 92.83446255264604 92.83446255264604 92.86522614905695 92.83446255264604 92.83446255264604 92.83446255264604 92.83446255264604 92.80369895623511 92.7421717634133 92.71140816700239 92.71140816700239 92.71140816700239 92.71140816700239 92.71140816700239 92.71140816700239 92.71140816700239 92.71140816700239 92.71140816700239 92.71140816700239 92.71140816700239 92.71140816700239 92.71140816700239 92.71140816700239 92.71140816700239 92.71140816700239 92.71140816700239 92.71140816700239 92.71140816700239 92.71140816700239 92.71140816700239 92.71140816700239 92.68064457059145 92.64988097418055 92.64988097418055 92.64988097418055 92.61911737776964 92.64988097418055 92.64988097418055 92.64988097418055 92.64988097418055 92.64988097418055 92.64988097418055 92.64988097418055 92.64988097418055 92.64988097418055 92.64988097418055 92.64988097418055 92.64988097418055 92.64988097418055 92.64988097418055 92.64988097418055 92.64988097418055 92.64988097418055 92.64988097418055 92.64988097418055 92.64988097418055 92.64988097418055 92.64988097418055 92.64988097418055 92.64988097418055 92.64988097418055 92.64988097418055 92.64988097418055 92.64988097418055 92.64988097418055 92.64988097418055 92.64988097418055 92.68064457059145 92.64988097418055 92.64988097418055 92.64988097418055 92.64988097418055 92.64988097418055 92.64988097418055 92.64988097418055 92.64988097418055 92.64988097418055 92.64988097418055 92.64988097418055 92.64988097418055 92.64988097418055 92.68064457059145 92.68064457059145 92.68064457059145 92.68064457059145 92.68064457059145 92.68064457059145 92.68064457059145 92.68064457059145 92.68064457059145 92.68064457059145 92.68064457059145 92.68064457059145 92.68064457059145 92.68064457059145 92.68064457059145 92.68064457059145 92.68064457059145 92.68064457059145 92.68064457059145 92.68064457059145 92.68064457059145 92.68064457059145 92.68064457059145 92.68064457059145 92.64988097418055 92.64988097418055 92.68064457059145 92.68064457059145 92.64988097418055 92.64988097418055 92.61911737776964 92.61911737776964 92.58835378135873 92.55759018494781 92.55759018494781 92.55759018494781 92.55759018494781 92.55759018494781 92.55759018494781 92.55759018494781 92.5268265885369 92.55759018494781 92.55759018494781 92.55759018494781 92.5268265885369 92.55759018494781 92.55759018494781 92.55759018494781 92.55759018494781 92.5268265885369 92.55759018494781 92.55759018494781 92.5268265885369 92.5268265885369 92.5268265885369 92.5268265885369 92.5268265885369 92.5268265885369 92.5268265885369 92.5268265885369 92.5268265885369 92.5268265885369 92.55759018494781 92.55759018494781 92.55759018494781 92.55759018494781 92.55759018494781 92.55759018494781 92.55759018494781 92.55759018494781 92.55759018494781 92.5268265885369 92.55759018494781 92.55759018494781 92.55759018494781 92.55759018494781 92.55759018494781 92.55759018494781 92.58835378135873 92.55759018494781 92.55759018494781 92.55759018494781 92.55759018494781 92.55759018494781 92.55759018494781 92.55759018494781 92.55759018494781 92.55759018494781 92.55759018494781 92.55759018494781 92.55759018494781 92.58835378135873 92.58835378135873 92.61911737776964 92.61911737776964 92.61911737776964 92.64988097418055 92.61911737776964 92.64988097418055 92.64988097418055 92.64988097418055 92.64988097418055 92.64988097418055 92.64988097418055 92.64988097418055 92.64988097418055 92.64988097418055 92.61911737776964 92.64988097418055 92.61911737776964 92.64988097418055 92.61911737776964 92.64988097418055 92.61911737776964 92.64988097418055 92.61911737776964 92.61911737776964 92.61911737776964 92.61911737776964 92.61911737776964 92.61911737776964 92.64988097418055 92.61911737776964 92.61911737776964 92.61911737776964 92.61911737776964 92.61911737776964 92.61911737776964 92.58835378135873 92.58835378135873 92.58835378135873 92.58835378135873 92.58835378135873 92.58835378135873 92.58835378135873 92.55759018494781 92.49606299212599 92.46529939571508 92.37300860648233 92.15766343160593 92.03460904596227 91.81926387108588 91.6346822926204 91.41933711774399 90.98864676799121 90.71177440029297 90.3118476469511 89.88115729719831 89.57352133308916 89.05054019410363 88.5275590551181 88.12763230177623 87.54312396996886 87.11243362021608 86.52792528840871 85.97418055301226 85.60501739608131 84.89745467863028 84.37447353964475 84.18989196117926 83.69767441860465 83.32851126167368 82.80553012268815 82.31331258011353 81.79033144112799 81.32887749496429 80.95971433803334 80.59055118110236 79.85222486724042 79.48306171030947 78.8985533785021 78.22175425746201 77.72953671488739 77.05273759384727 76.52975645486174 75.82219373741073 75.11463101995972 74.6224134773851 73.88408716352316 73.17652444607214 72.65354330708661 71.91521699322467 71.26918146859549 70.6231459439663 69.66947445522797 69.11572971983153 68.62351217725691 67.76213147775132 67.14685954953305 66.00860648232924 65.45486174693279 64.87035341512544 63.824391137154365 63.14759201611426 62.44002929866325 61.57864859915766 61.02490386376122 60.25581395348837 59.70206921809192 59.025270097051816 58.317707379600805 57.79472624061527 57.056399926753336 56.28731001648049 55.76432887749496 54.99523896722212 54.379967039003844 53.42629555026552 52.9340780076909 52.34956967588353 51.51895257278886 50.41146310199597 49.642373191723124 48.93481047427211 48.28877494964292 47.42739425013734 46.81212232191906 45.950741622413474 45.21241530855154 44.50485259110053 44.074162241347736 43.39736312030763 42.93590917414393 42.32063724592565 41.705365317707376 41.27467496795458 40.690166636147225 40.290239882805345 39.70573155099798 38.99816883354697 38.59824208020509 38.29060611609595 37.70609778428859 37.36769822376854 36.66013550631752 36.32173594579747 35.89104559604468 35.491118842702804 35.24501007141549 34.99890130012818 34.84508331807361 34.5989745467863 34.32210217908808 34.16828419703351 33.922175425746204 33.7068302508698 33.55301226881524 33.15308551547336 32.968503937007874 32.78392235854239 32.63010437648782 32.47628639443325 32.29170481596777 32.014832448269544 31.891778062625892 31.768723676982237 31.64566929133858 31.55337850210584 31.399560520051274 31.21497894158579 31.12268815235305 30.999633766709394 30.87657938106574 30.753524995422083 30.599707013367514 30.415125434902034 30.261307452847465 30.13825306720381 30.045962277971068 29.953671488738326 29.922907892327412 29.8921442959165 29.861380699505585 29.799853506683757 29.769089910272843 29.73832631386193 29.707562717451015 29.6767991210401 29.6767991210401 29.6767991210401 29.6767991210401 29.6767991210401 29.6767991210401 29.646035524629188 29.646035524629188 29.615271928218274 29.615271928218274 29.615271928218274 29.615271928218274 29.58450833180736 29.553744735396446 29.553744735396446 29.522981138985532 29.522981138985532 29.49221754257462 29.49221754257462 29.49221754257462 29.49221754257462 29.49221754257462 29.49221754257462 29.49221754257462 29.49221754257462 29.461453946163708 29.461453946163708 29.461453946163708 29.430690349752794 29.461453946163708 29.430690349752794 29.430690349752794 29.39992675334188 29.39992675334188 29.39992675334188 29.39992675334188 29.39992675334188 29.39992675334188 29.39992675334188 29.39992675334188 29.39992675334188 29.39992675334188 29.39992675334188 29.39992675334188 29.369163156930966 29.39992675334188 29.369163156930966 29.369163156930966 29.39992675334188 29.369163156930966 29.369163156930966 29.369163156930966 29.338399560520052 29.338399560520052 29.338399560520052 29.338399560520052 29.338399560520052 29.338399560520052 29.338399560520052 29.338399560520052 29.338399560520052 29.338399560520052 29.338399560520052 29.338399560520052 29.338399560520052 29.338399560520052 29.338399560520052 29.338399560520052 29.338399560520052 29.338399560520052 29.338399560520052 29.338399560520052 29.338399560520052 29.338399560520052 29.338399560520052 29.338399560520052 29.338399560520052 29.338399560520052 29.338399560520052 29.30763596410914 29.30763596410914 29.30763596410914 29.30763596410914 29.338399560520052 29.338399560520052 29.338399560520052 29.30763596410914 29.338399560520052 29.30763596410914 29.30763596410914 29.30763596410914 29.30763596410914 29.338399560520052 29.338399560520052 29.30763596410914 29.30763596410914 29.30763596410914 29.338399560520052 29.30763596410914 29.30763596410914 29.338399560520052 29.30763596410914 29.30763596410914 29.30763596410914 29.30763596410914 29.30763596410914 29.30763596410914 29.30763596410914 29.30763596410914 29.30763596410914 29.30763596410914 29.30763596410914 29.30763596410914 29.30763596410914 29.30763596410914 29.30763596410914 29.30763596410914 29.30763596410914 29.30763596410914 29.30763596410914 29.30763596410914 29.30763596410914 29.30763596410914 29.30763596410914 29.30763596410914 29.30763596410914 29.30763596410914 29.30763596410914 29.30763596410914 29.30763596410914 29.30763596410914 29.30763596410914 29.30763596410914 29.276872367698225 29.30763596410914 29.30763596410914 29.30763596410914 29.30763596410914 29.276872367698225 29.30763596410914 29.30763596410914 29.30763596410914 29.30763596410914 29.30763596410914 29.30763596410914 29.276872367698225 29.276872367698225 29.30763596410914 29.276872367698225 29.30763596410914 29.276872367698225 29.30763596410914 29.276872367698225 29.276872367698225 29.276872367698225 29.276872367698225 29.30763596410914 29.30763596410914 29.276872367698225 29.276872367698225 29.30763596410914 29.276872367698225 29.276872367698225 29.30763596410914 29.30763596410914 29.276872367698225 29.30763596410914 29.30763596410914 29.30763596410914 29.30763596410914 29.30763596410914 29.30763596410914 29.30763596410914 29.30763596410914 29.30763596410914 29.30763596410914 29.30763596410914 29.30763596410914 29.30763596410914 29.276872367698225 29.30763596410914 29.30763596410914 29.30763596410914 29.30763596410914 29.30763596410914 29.30763596410914 29.30763596410914 29.338399560520052 29.338399560520052 29.338399560520052 29.369163156930966 29.369163156930966 29.39992675334188 29.430690349752794 29.430690349752794 29.49221754257462 29.522981138985532 29.553744735396446 29.58450833180736 29.646035524629188 29.707562717451015 29.769089910272843 29.83061710309467 29.98443508514924 30.169016663614723 30.353598242080206 30.47665262772386 30.691997802600255 30.907342977476652 31.12268815235305 31.184215345174877 31.338033327229446 31.584142098516754 31.737960080571323 31.95330525544772 32.23017762314594 32.507049990844166 32.660867972898735 32.87621314777513 33.15308551547336 33.39919428676067 33.7068302508698 33.860648232924376 34.137520600622594 34.50668375755356 34.84508331807361 35.15271928218275 35.583409631935545 36.07562717451016 36.444790331441126 37.152353048892145 37.61380699505585 38.013733748397726 38.53671488738326 39.275041201245195 39.982603918696206 40.72093023255814 41.27467496795458 42.013001281816514 42.812854788500275 43.33583592748581 44.04339864493682 44.535616187511444 45.21241530855154 45.82768723676982 46.28914118293353 46.87364951474089 47.519685039370074 48.13495696758835 48.6887017029848 49.21168284197033 49.95000915583226 50.995971433803334 51.54971616919978 52.07269730818531 52.84178721845816 53.303241164621866 54.0415674784838 54.841420985167545 55.61051089544039 56.41036440212415 56.994872733931516 57.79472624061527 58.37923457242263 59.117560886284565 59.94817798937923 60.53268632118659 61.36330342428126 62.19392052737594 63.024537630470604 63.824391137154365 64.37813587255081 64.93188060794725 65.60867972898737 66.07013367515107 66.74693279619117 67.54678630287492 67.91594945980589 68.46969419520234 68.93114814136604 69.300311298297 69.73100164804981 70.31550997985717 70.86925471525362 71.42299945065005 71.82292620399194 72.34590734297747 72.74583409631936 73.29957883171579 73.79179637429041 74.13019593481047 74.653177073796 75.14539461637062 75.42226698406884 76.00677531587621 76.34517487639626 76.77586522614905 77.11426478666911 77.48342794360008 78.03717267899651 78.71397180003662 79.0831349569676 79.63687969236403 80.12909723493865 80.62131477751328 80.99047793444424 81.6057498626625 82.19025819446988 82.77476652627723 83.1746932796191 83.75920161142648 84.15912836476835 84.68210950375389 85.20509064273942 85.54349020325947 86.00494414942318 86.3125801135323 86.74327046328511 87.1739608130379 87.48159677714705 88.03534151254348 88.31221388024171 88.61984984435085 89.05054019410363 89.48123054385643 89.78886650796557 90.3118476469511 90.61948361106025 90.89635597875846 91.08093755722395 91.35780992492217 91.6346822926204 91.81926387108588 92.06537264237318 92.24995422083867 92.40377220289324 92.55759018494781 92.64988097418055 92.68064457059145 92.68064457059145 92.68064457059145 92.68064457059145 92.64988097418055 92.64988097418055 92.64988097418055 92.64988097418055 92.64988097418055 92.64988097418055 92.64988097418055 92.64988097418055 92.64988097418055 92.64988097418055 92.64988097418055 92.64988097418055 92.64988097418055 92.64988097418055 92.64988097418055 92.64988097418055 92.64988097418055 92.64988097418055 92.64988097418055 92.64988097418055 92.64988097418055 92.64988097418055 92.64988097418055 92.64988097418055 92.64988097418055 92.64988097418055 92.61911737776964 92.64988097418055 92.61911737776964 92.61911737776964 92.61911737776964 92.61911737776964 92.61911737776964 92.61911737776964 92.61911737776964 92.61911737776964 92.61911737776964 92.61911737776964 92.58835378135873 92.61911737776964 92.61911737776964 92.61911737776964 92.61911737776964 92.58835378135873 92.58835378135873 92.61911737776964 92.58835378135873 92.58835378135873 92.58835378135873 92.61911737776964 92.58835378135873 92.58835378135873 92.58835378135873 92.5268265885369 92.37300860648233 92.24995422083867 92.18842702801683 92.12689983519502 92.09613623878411 92.06537264237318 92.00384544955136 91.94231825672954 91.88079106390771 91.78850027467496 91.72697308185315 91.69620948544222 91.6346822926204 91.54239150338765 91.51162790697674 91.48086431056583 91.41933711774399 91.41933711774399 91.41933711774399 91.41933711774399 91.41933711774399 91.41933711774399 91.41933711774399 91.41933711774399 91.4501007141549 91.4501007141549 91.51162790697674 91.51162790697674 91.54239150338765 91.54239150338765 91.57315509979856 91.60391869620949 91.60391869620949 91.6346822926204 91.6654458890313 91.6654458890313 91.69620948544222 91.69620948544222 91.72697308185315 91.69620948544222 91.72697308185315 91.72697308185315 91.72697308185315 91.75773667826405 91.72697308185315 91.75773667826405 91.75773667826405 91.72697308185315 91.72697308185315 91.72697308185315 91.72697308185315 91.72697308185315 91.72697308185315 91.72697308185315 91.72697308185315 91.72697308185315 91.72697308185315 91.72697308185315 91.69620948544222 91.69620948544222 91.69620948544222 91.69620948544222 91.69620948544222 91.69620948544222 91.72697308185315 91.72697308185315 91.69620948544222 91.69620948544222 91.6654458890313 91.6654458890313 91.6346822926204 91.60391869620949 91.57315509979856 91.51162790697674 91.4501007141549 91.41933711774399 91.35780992492217 91.32704632851126 91.29628273210034 91.29628273210034 91.26551913568943 91.17322834645668 91.14246475004578 91.08093755722395 91.05017396081303 91.05017396081303 90.98864676799121 90.92711957516937 90.89635597875846 90.86559238234756 90.83482878593664 90.83482878593664 90.83482878593664 90.83482878593664 90.83482878593664 90.83482878593664 90.86559238234756 90.86559238234756 90.86559238234756 90.89635597875846 90.92711957516937 90.92711957516937 90.95788317158029 90.95788317158029 90.98864676799121 90.98864676799121 91.01941036440212 91.05017396081303 91.08093755722395 91.08093755722395 91.11170115363487 91.11170115363487 91.11170115363487 91.14246475004578 91.14246475004578 91.17322834645668 91.2039919428676 91.2039919428676 91.2039919428676 91.2039919428676 91.2039919428676 91.2039919428676 91.2039919428676 91.17322834645668 91.17322834645668 91.14246475004578 91.08093755722395 91.05017396081303 91.01941036440212 90.98864676799121 90.98864676799121 90.95788317158029 90.92711957516937 90.92711957516937 90.89635597875846 90.89635597875846 90.92711957516937 90.92711957516937 90.92711957516937 90.92711957516937 90.92711957516937 90.95788317158029 90.95788317158029 90.98864676799121 90.98864676799121 90.98864676799121 90.98864676799121 90.98864676799121 90.98864676799121 90.98864676799121 90.98864676799121 90.98864676799121 90.98864676799121 91.01941036440212 90.98864676799121 90.98864676799121 90.98864676799121 90.95788317158029 90.95788317158029 90.92711957516937 90.89635597875846 90.86559238234756 90.83482878593664 90.83482878593664 90.80406518952573 90.80406518952573 90.80406518952573 90.80406518952573 90.80406518952573 90.80406518952573 90.80406518952573 90.80406518952573 90.80406518952573 90.83482878593664 90.80406518952573 90.80406518952573 90.80406518952573 90.83482878593664 90.83482878593664 90.83482878593664 90.83482878593664 90.86559238234756 90.83482878593664 90.86559238234756 90.86559238234756 90.86559238234756 90.86559238234756 90.86559238234756 90.86559238234756 90.89635597875846 90.89635597875846 90.92711957516937 90.92711957516937 90.92711957516937 90.89635597875846 90.92711957516937 90.89635597875846 90.92711957516937 90.89635597875846 90.89635597875846 90.86559238234756 90.83482878593664 90.83482878593664 90.83482878593664 90.77330159311481 90.7425379967039 90.71177440029297 90.65024720747115 90.61948361106025 90.58872001464934 90.49642922541659 90.43490203259475 90.37337483977294 90.25032045412928 90.12726606848562 90.03497527925288 89.91192089360922 89.69657571873282 89.60428492950008 89.48123054385643 89.29664896539094 89.08130379051455 88.80443142281632 88.55832265152901 88.15839589818714 87.91228712689983 87.66617835561252 87.1739608130379 86.89708844533968 86.58945248123054 86.03570774583409 85.66654458890312 85.29738143197216 84.95898187145211 84.49752792528841 84.00531038271379 83.63614722578282 83.1439296832082 82.68247573704448 82.31331258011353 81.8210950375389 81.42116828419702 80.80589635597875 80.28291521699322 79.7906976744186 79.23695293902216 78.40633583592748 77.97564548617468 77.26808276872367 76.80662882255997 76.31441127998534 75.42226698406884 74.93004944149423 74.28401391686504 73.57645119941402 73.02270646401757 72.4074345357993 71.57681743270463 70.93078190807545 70.43856436550081 69.9463468229262 69.23878410547519 68.592748580846 68.10053103827138 67.30067753158761 67.11609595312214 66.53158762131477 65.9163156930965 65.48562534334371 64.87035341512544 64.07049990844168 63.63980955868888 62.96301043764878 62.50155649148507 61.8862845632668 61.17872184581578 60.74803149606299 60.07123237502289 59.363669657571876 58.84068851858633 58.1023622047244 57.210217908807905 56.62570957700055 55.82585607031679 55.149056949276684 54.226149056949275 53.580113532320084 52.68796923640359 51.51895257278886 50.934444240981506 50.16535433070866 49.61160959531221 49.08862845632668 48.473356528108404 47.73503021424648 47.08899468961728 46.47372276139901 46.043032411646216 45.45852407983885 44.96630653726424 44.474088994689616 43.95110785570408 43.612708295184035 43.058963559787585 42.53598242080205 42.16681926387108 41.490020142830986 41.15162058231093 40.78245742537997 40.25947628639443 39.85954953305256 39.30580479765611 38.50595129097235 38.167551730452296 37.4907526094122 37.02929866324849 36.506317524262954 35.89104559604468 35.15271928218275 34.475920161142646 33.95293902215711 33.67606665445889 33.39919428676067 33.12232191906244 32.99926753341879 32.84544955136422 32.72239516572056 32.59934078007691 32.44552279802234 32.32246841237868 32.1378868339132 31.830250869804065 31.737960080571323 31.399560520051274 31.245742537996705 31.06116095953122 30.938106573887566 30.81505218824391 30.66123420618934 30.5689434169566 30.507416224134772 30.415125434902034 30.29207104925838 30.13825306720381 30.015198681560154 29.922907892327412 29.799853506683757 29.769089910272843 29.73832631386193 29.6767991210401 29.646035524629188 29.615271928218274 29.553744735396446 29.522981138985532 29.461453946163708 29.461453946163708 29.461453946163708 29.430690349752794 29.430690349752794 29.430690349752794 29.430690349752794 29.39992675334188 29.39992675334188 29.39992675334188 29.39992675334188 29.39992675334188 29.369163156930966 29.369163156930966 29.369163156930966 29.369163156930966 29.369163156930966 29.369163156930966 29.369163156930966 29.369163156930966 29.338399560520052 29.338399560520052 29.338399560520052 29.338399560520052 29.338399560520052 29.338399560520052 29.338399560520052 29.30763596410914 29.30763596410914 29.30763596410914 29.30763596410914 29.30763596410914 29.30763596410914 29.30763596410914 29.30763596410914 29.30763596410914 29.30763596410914 29.30763596410914 29.30763596410914 29.30763596410914 29.30763596410914 29.30763596410914 29.30763596410914 29.30763596410914 29.30763596410914 29.30763596410914 29.30763596410914 29.30763596410914 29.30763596410914 29.30763596410914 29.30763596410914 29.30763596410914 29.30763596410914 29.30763596410914 29.30763596410914 29.30763596410914 29.30763596410914 29.276872367698225 29.30763596410914 29.30763596410914 29.276872367698225 29.30763596410914 29.276872367698225 29.276872367698225 29.276872367698225 29.276872367698225 29.276872367698225 29.276872367698225 29.276872367698225 29.30763596410914 29.276872367698225 29.276872367698225 29.276872367698225 29.276872367698225 29.276872367698225 29.276872367698225 29.276872367698225 29.276872367698225 29.276872367698225 29.276872367698225 29.276872367698225 29.276872367698225 29.276872367698225 29.276872367698225 29.276872367698225 29.276872367698225 29.276872367698225 29.276872367698225 29.276872367698225 29.276872367698225 29.276872367698225 29.276872367698225 29.276872367698225 29.276872367698225 29.30763596410914 29.276872367698225 29.276872367698225 29.276872367698225 29.276872367698225 29.276872367698225 29.276872367698225 29.276872367698225 29.276872367698225 29.276872367698225 29.276872367698225 29.276872367698225 29.276872367698225 29.276872367698225 29.276872367698225 29.276872367698225 29.276872367698225 29.276872367698225 29.276872367698225 29.276872367698225 29.276872367698225 29.276872367698225 29.276872367698225 29.276872367698225 29.276872367698225 29.276872367698225 29.276872367698225 29.276872367698225 29.276872367698225 29.276872367698225 29.276872367698225 29.276872367698225 29.276872367698225 29.276872367698225 29.276872367698225 29.276872367698225 29.276872367698225 29.276872367698225 29.276872367698225 29.276872367698225 29.276872367698225 29.276872367698225 29.276872367698225 29.276872367698225 29.276872367698225 29.276872367698225 29.276872367698225 29.276872367698225 29.276872367698225 29.276872367698225 29.276872367698225 29.276872367698225 29.276872367698225 29.276872367698225 29.276872367698225 29.276872367698225 29.276872367698225 29.276872367698225 29.276872367698225 29.276872367698225 29.276872367698225 29.276872367698225 29.276872367698225 29.276872367698225 29.276872367698225 29.276872367698225 29.276872367698225 29.276872367698225 29.276872367698225 29.276872367698225 29.276872367698225 29.276872367698225 29.276872367698225 29.276872367698225 29.276872367698225 29.276872367698225 29.276872367698225 29.276872367698225 29.276872367698225 29.24610877128731 29.276872367698225 29.276872367698225 29.276872367698225 29.276872367698225 29.276872367698225 29.24610877128731 29.276872367698225 29.276872367698225 29.276872367698225 29.276872367698225 29.276872367698225 29.276872367698225 29.276872367698225 29.276872367698225 29.276872367698225 29.276872367698225 29.276872367698225 29.276872367698225 29.276872367698225 29.276872367698225 29.276872367698225 29.276872367698225 29.276872367698225 29.276872367698225 29.276872367698225 29.276872367698225 29.276872367698225 29.276872367698225 29.276872367698225 29.276872367698225 29.276872367698225 29.30763596410914 29.30763596410914 29.30763596410914 29.30763596410914 29.338399560520052 29.338399560520052 29.338399560520052 29.369163156930966 29.430690349752794 29.461453946163708 29.58450833180736 29.6767991210401 29.73832631386193 29.83061710309467 29.922907892327412 30.107489470792896 30.29207104925838 30.38436183849112 30.599707013367514 30.72276139901117 30.938106573887566 31.153451748763963 31.27650613440762 31.491851309284012 31.614905694927668 31.768723676982237 32.04559604468046 32.260941219556855 32.568577183665994 33.060794726240616 33.30690349752793 33.860648232924376 34.01446621497894 34.26057498626625 34.90661051089544 35.30653726423732 35.82951840322285 36.444790331441126 36.84471708478301 37.4907526094122 38.013733748397726 38.567478483794176 39.24427760483428 39.7364951474089 40.47482146127083 41.21314777513276 41.82841970335103 42.966672770554844 43.612708295184035 44.28950741622413 45.181651712140635 45.85845083318073 46.81212232191906 48.13495696758835 48.84251968503936 49.79619117377769 50.4729902948178 51.18055301226882 52.103460904596226 52.903314411279986 54.2876762497711 55.36440212415309 56.13349203442593 57.14869071598608 57.79472624061527 58.809924922175426 59.82512360373558 60.56344991759751 61.64017579197949 62.65537447353964 63.36293719099066 64.34737227613991 65.27028016846731 66.1316608679729 66.65464200695843 67.20838674235489 67.94671305621681 68.68503937007873 69.36183849111885 70.03863761215894 70.71543673319906 71.11536348654093 71.54605383629371 72.22285295733383 72.86888848196301 73.57645119941402 74.03790514557772 74.68394067020691 75.17615821278153 75.85295733382165 76.49899285845083 76.96044680461453 77.66800952206555 78.19099066105107 79.1138985533785 79.66764328877494 80.09833363852775 81.02124153085515 81.48269547701886 81.97491301959349 82.62094854422267 83.29774766526276 83.94378318989196 84.55905511811024 84.95898187145211 85.54349020325947 85.91265336019043 86.46639809558688 86.92785204175058 87.23548800585974 87.66617835561252 88.00457791613258 88.2814502838308 88.55832265152901 88.86595861563816 89.05054019410363 89.32741256180186 89.48123054385643 89.81963010437647 90.0657388756638 90.21955685771836 90.37337483977294 90.58872001464934 90.71177440029297 90.98864676799121 91.35780992492217 91.69620948544222 92.00384544955136 92.18842702801683 92.46529939571508 92.61911737776964 92.80369895623511 92.95751693828969 93.01904413111153 93.14209851675518 93.203625709577 93.26515290239884 93.32668009522065 93.35744369163156 93.38820728804248 93.35744369163156 93.35744369163156 93.38820728804248 93.35744369163156 93.35744369163156 93.38820728804248 93.35744369163156 93.38820728804248 93.35744369163156 93.32668009522065 93.32668009522065 93.29591649880975 93.2343893059879 93.17286211316609 93.14209851675518 93.08057132393334 93.01904413111153 92.95751693828969 92.89598974546786 92.83446255264604 92.7421717634133 92.64988097418055 92.58835378135873 92.55759018494781 92.5268265885369 92.5268265885369 92.49606299212599 92.46529939571508 92.46529939571508 92.46529939571508 92.40377220289324 92.37300860648233 92.31148141366049 92.21919062442777 92.15766343160593 92.09613623878411 92.03460904596227 91.97308185314044 91.94231825672954 91.91155466031861 91.88079106390771 91.88079106390771 91.85002746749679 91.85002746749679 91.85002746749679 91.85002746749679 91.81926387108588 91.81926387108588 91.78850027467496 91.81926387108588 91.78850027467496 91.81926387108588 91.81926387108588 91.81926387108588 91.81926387108588 91.85002746749679 91.85002746749679 91.85002746749679 91.88079106390771 91.88079106390771 91.88079106390771 91.91155466031861 91.91155466031861 91.91155466031861 91.91155466031861 91.91155466031861 91.91155466031861 91.88079106390771 91.88079106390771 91.88079106390771 91.88079106390771 91.85002746749679 91.81926387108588 91.81926387108588 91.81926387108588 91.81926387108588 91.81926387108588 91.81926387108588 91.81926387108588 91.85002746749679 91.81926387108588 91.85002746749679 91.85002746749679 91.85002746749679 91.85002746749679 91.85002746749679 91.85002746749679 91.85002746749679 91.85002746749679 91.85002746749679 91.85002746749679 91.85002746749679 91.85002746749679 91.85002746749679 91.85002746749679 91.85002746749679 91.85002746749679 91.85002746749679 91.85002746749679 91.85002746749679 91.85002746749679 91.85002746749679 91.85002746749679 91.85002746749679 91.85002746749679 91.85002746749679 91.85002746749679 91.85002746749679 91.85002746749679 91.85002746749679 91.85002746749679 91.85002746749679 91.85002746749679 91.85002746749679 91.85002746749679 91.85002746749679 91.85002746749679 91.85002746749679 91.85002746749679 91.88079106390771 91.85002746749679 91.85002746749679 91.85002746749679 91.85002746749679 91.85002746749679 91.85002746749679 91.81926387108588 91.81926387108588 91.75773667826405 91.72697308185315 91.72697308185315 91.69620948544222 91.6654458890313 91.60391869620949 91.60391869620949 91.54239150338765 91.48086431056583 91.48086431056583 91.4501007141549 91.41933711774399 91.38857352133309 91.41933711774399 91.38857352133309 91.38857352133309 91.38857352133309 91.41933711774399 91.38857352133309 91.38857352133309 91.41933711774399 91.41933711774399 91.41933711774399 91.4501007141549 91.48086431056583 91.48086431056583 91.51162790697674 91.51162790697674 91.51162790697674 91.54239150338765 91.54239150338765 91.54239150338765 91.57315509979856 91.57315509979856 91.60391869620949 91.60391869620949 91.60391869620949 91.60391869620949 91.60391869620949 91.60391869620949 91.60391869620949 91.60391869620949 91.60391869620949 91.60391869620949 91.60391869620949 91.57315509979856 91.57315509979856 91.60391869620949 91.57315509979856 91.57315509979856 91.57315509979856 91.57315509979856 91.60391869620949 91.57315509979856 91.60391869620949 91.60391869620949 91.60391869620949 91.60391869620949 91.60391869620949 91.60391869620949 91.60391869620949 91.6346822926204 91.60391869620949 91.6346822926204 91.6654458890313 91.6654458890313 91.69620948544222 91.69620948544222 91.69620948544222 91.69620948544222 91.69620948544222 91.69620948544222 91.6654458890313 91.69620948544222 91.6654458890313 91.6654458890313 91.6654458890313 91.6654458890313 91.6654458890313 91.6654458890313 91.6654458890313 91.6654458890313 91.6346822926204 91.6654458890313 91.6346822926204 91.60391869620949 91.57315509979856 91.51162790697674 91.48086431056583 91.48086431056583 91.4501007141549 91.4501007141549 91.4501007141549 91.4501007141549 91.4501007141549 91.4501007141549 91.4501007141549 91.48086431056583 91.48086431056583 91.48086431056583 91.48086431056583 91.48086431056583 91.51162790697674 91.51162790697674 91.54239150338765 91.54239150338765 91.57315509979856 91.57315509979856 91.57315509979856 91.60391869620949 91.60391869620949 91.60391869620949 91.60391869620949 91.57315509979856 91.57315509979856 91.57315509979856 91.57315509979856 91.57315509979856 91.57315509979856 91.57315509979856 91.57315509979856 91.57315509979856 91.57315509979856 91.57315509979856 91.54239150338765 91.54239150338765 91.54239150338765 91.54239150338765 91.54239150338765 91.54239150338765 91.54239150338765 91.54239150338765 91.54239150338765 91.54239150338765 91.54239150338765 91.54239150338765 91.54239150338765 91.57315509979856 91.54239150338765 91.57315509979856 91.57315509979856 91.57315509979856 91.57315509979856 91.57315509979856 91.60391869620949 91.57315509979856 91.57315509979856 91.57315509979856 91.57315509979856 91.57315509979856 91.57315509979856 91.57315509979856 91.57315509979856 91.57315509979856 91.57315509979856 91.57315509979856 91.57315509979856 91.57315509979856 91.57315509979856 91.57315509979856 91.57315509979856 91.57315509979856 91.57315509979856 91.51162790697674 91.38857352133309 91.26551913568943 91.05017396081303 90.80406518952573 90.5271928218275 90.25032045412928 90.03497527925288 89.78886650796557 89.45046694744552 89.17359457974729 88.55832265152901 88.12763230177623 87.81999633766708 87.4200695843252 87.05090642739424 86.74327046328511 86.4971616919978 86.066471342245 85.69730818531404 85.32814502838306 85.02050906427394 84.62058231093206 84.282182750412 83.69767441860465 83.39003845449551 83.08240249038637 82.59018494781176 82.2517853872917 81.72880424830618 81.02124153085515 80.65207837392418 80.06757004211681 79.66764328877494 79.29848013184399 78.71397180003662 78.09869987181834 77.51419154001098 76.96044680461453 76.52975645486174 75.91448452664346 75.29921259842519 74.8377586522615 74.09943233839957 73.48416041018129 72.74583409631936 71.91521699322467 71.33070866141732 70.53085515473356 69.76176524446072 69.20802050906427 68.43893059879143 67.91594945980589 67.2391503387658 66.53158762131477 65.82402490386376 65.17798937923456 64.71653543307087 64.34737227613991 63.54751876945614 63.14759201611426 62.74766526277239 62.04010254532137 61.547885002746746 61.11719465299395 60.594213514008416 60.19428676066654 59.67130562168101 59.27137886833913 58.84068851858633 58.37923457242263 58.04083501190259 57.54861746932796 57.02563633034242 56.62570957700055 56.10272843801501 55.67203808826222 55.149056949276684 54.34920344259293 53.85698590001831 53.21095037538912 52.56491485075993 52.31880607947262 51.39589818714521 50.903680644570585 50.19611792711957 49.48855520966856 48.873283281450284 48.319538546053835 47.82732100347921 47.15052188243911 46.442959164988096 45.85845083318073 45.24317890496246 44.56637978392236 44.10492583775865 43.42812671671855 42.99743636696576 42.38216443874748 41.73612891411829 41.27467496795458 40.6286394433254 39.79802234023072 39.33656839406702 38.721296465848745 38.29060611609595 37.859915766343164 37.060062259659404 36.69089910272844 36.13715436733199 35.39882805347006 35.12195568577184 34.66050173960813 34.19904779344442 33.983702618568024 33.64530305804798 33.39919428676067 33.18384911188427 32.93774034059696 32.84544955136422 32.63010437648782 32.47628639443325 32.3532320087896 32.19941402673503 32.04559604468046 31.891778062625892 31.70719648416041 31.64566929133858 31.55337850210584 31.491851309284012 31.399560520051274 31.307269730818533 31.245742537996705 31.12268815235305 31.06116095953122 30.999633766709394 30.96887017029848 30.938106573887566 30.81505218824391 30.753524995422083 30.66123420618934 30.538179820545686 30.38436183849112 30.29207104925838 30.199780260025637 30.107489470792896 30.045962277971068 29.98443508514924 29.953671488738326 29.861380699505585 29.799853506683757 29.707562717451015 29.6767991210401 29.646035524629188 29.615271928218274 29.58450833180736 29.58450833180736 29.553744735396446 29.553744735396446 29.553744735396446 29.522981138985532 29.522981138985532 29.49221754257462 29.522981138985532 29.49221754257462 29.49221754257462 29.49221754257462 29.49221754257462 29.49221754257462 29.49221754257462 29.461453946163708 29.49221754257462 29.461453946163708 29.461453946163708 29.461453946163708 29.461453946163708 29.461453946163708 29.430690349752794 29.430690349752794 29.39992675334188 29.39992675334188 29.39992675334188 29.39992675334188 29.39992675334188 29.369163156930966 29.369163156930966 29.338399560520052 29.338399560520052 29.338399560520052 29.30763596410914 29.338399560520052 29.30763596410914 29.30763596410914 29.30763596410914 29.30763596410914 29.30763596410914 29.30763596410914 29.276872367698225 29.276872367698225 29.276872367698225 29.276872367698225 29.276872367698225 29.276872367698225 29.276872367698225 29.276872367698225 29.276872367698225 29.276872367698225 29.276872367698225 29.24610877128731 29.24610877128731 29.24610877128731 29.24610877128731 29.24610877128731 29.24610877128731 29.24610877128731 29.24610877128731 29.24610877128731 29.24610877128731 29.24610877128731 29.24610877128731 29.24610877128731 29.24610877128731 29.24610877128731 29.215345174876397 29.24610877128731 29.24610877128731 29.24610877128731 29.24610877128731 29.24610877128731 29.24610877128731 29.215345174876397 29.24610877128731 29.24610877128731 29.215345174876397 29.24610877128731 29.215345174876397 29.24610877128731 29.215345174876397 29.24610877128731 29.215345174876397 29.24610877128731 29.215345174876397 29.215345174876397 29.215345174876397 29.24610877128731 29.24610877128731 29.24610877128731 29.24610877128731 29.215345174876397 29.215345174876397 29.215345174876397 29.24610877128731 29.215345174876397 29.215345174876397 29.215345174876397 29.215345174876397 29.215345174876397 29.215345174876397 29.215345174876397 29.215345174876397 29.215345174876397 29.215345174876397 29.215345174876397 29.215345174876397 29.215345174876397 29.215345174876397 29.215345174876397 29.215345174876397 29.215345174876397 29.215345174876397 29.215345174876397 29.215345174876397 29.215345174876397 29.215345174876397 29.215345174876397 29.215345174876397 29.215345174876397 29.215345174876397 29.215345174876397 29.215345174876397 29.184581578465483 29.215345174876397 29.215345174876397 29.215345174876397 29.215345174876397 29.215345174876397 29.215345174876397 29.215345174876397 29.215345174876397 29.215345174876397 29.215345174876397 29.215345174876397 29.215345174876397 29.215345174876397 29.215345174876397 29.184581578465483 29.184581578465483 29.215345174876397 29.215345174876397 29.215345174876397 29.184581578465483 29.215345174876397 29.215345174876397 29.215345174876397 29.215345174876397 29.215345174876397 29.184581578465483 29.184581578465483 29.184581578465483 29.215345174876397 29.215345174876397 29.215345174876397 29.215345174876397 29.215345174876397 29.184581578465483 29.184581578465483 29.215345174876397 29.184581578465483 29.184581578465483 29.184581578465483 29.184581578465483 29.215345174876397 29.215345174876397 29.215345174876397 29.184581578465483 29.184581578465483 29.184581578465483 29.184581578465483 29.215345174876397 29.184581578465483 29.184581578465483 29.215345174876397 29.184581578465483 29.215345174876397 29.184581578465483 29.184581578465483 29.184581578465483 29.215345174876397 29.215345174876397 29.215345174876397 29.184581578465483 29.184581578465483 29.215345174876397 29.184581578465483 29.215345174876397 29.215345174876397 29.215345174876397 29.215345174876397 29.215345174876397 29.215345174876397 29.215345174876397 29.215345174876397 29.215345174876397 29.215345174876397 29.215345174876397 29.215345174876397 29.215345174876397 29.215345174876397 29.215345174876397 29.24610877128731 29.215345174876397 29.215345174876397 29.215345174876397 29.215345174876397 29.215345174876397 29.24610877128731 29.24610877128731 29.24610877128731 29.24610877128731 29.24610877128731 29.24610877128731 29.276872367698225 29.276872367698225 29.276872367698225 29.30763596410914 29.30763596410914 29.30763596410914 29.338399560520052 29.39992675334188 29.39992675334188 29.430690349752794 29.461453946163708 29.461453946163708 29.49221754257462 29.49221754257462 29.522981138985532 29.553744735396446 29.58450833180736 29.615271928218274 29.646035524629188 29.646035524629188 29.707562717451015 29.73832631386193 29.799853506683757 29.861380699505585 29.953671488738326 30.07672587438198 30.13825306720381 30.261307452847465 30.38436183849112 30.507416224134772 30.753524995422083 30.87657938106574 31.06116095953122 31.12268815235305 31.153451748763963 31.27650613440762 31.430324116462188 31.522614905694926 31.70719648416041 31.86101446621498 32.07635964109137 32.3532320087896 32.568577183665994 32.84544955136422 32.968503937007874 33.18384911188427 33.42995788317158 33.614539461637065 34.01446621497894 34.32210217908808 34.50668375755356 34.87584691448453 35.24501007141549 35.55264603552463 36.198681560153815 36.598608313495696 37.552279802234025 37.9522065555759 38.38289690532869 38.78282365867057 39.367331990477936 39.7364951474089 40.32100347921626 40.78245742537997 41.336202160776416 41.951474088994686 42.38216443874748 43.058963559787585 43.581944698773114 43.981871452114994 44.59714338033327 45.089360922907886 45.85845083318073 46.904413111151804 47.42739425013734 48.13495696758835 48.81175608862846 49.05786485991577 49.79619117377769 50.07306354147592 50.81138985533785 51.42666178355613 51.91887932613075 52.62644204358176 53.24171397180004 53.94927668925105 54.7183665995239 55.33363852774217 56.10272843801501 56.90258194469877 57.517853872917044 58.317707379600805 58.87145211499725 59.70206921809192 60.53268632118659 61.086431056583045 62.13239333455411 62.62461087712873 63.17835561252517 64.19355429408533 64.77806262589269 65.2395165720564 66.1624244643838 66.68540560336935 67.39296832082036 68.10053103827138 68.592748580846 69.300311298297 69.91558322651528 70.43856436550081 71.08459989013001 71.57681743270463 72.16132576451199 72.77659769273026 73.20728804248306 73.82255997070132 74.28401391686504 74.89928584508331 75.48379417689067 75.94524812305438 76.77586522614905 77.39113715436733 77.82182750412012 78.31404504669473 78.83702618568027 79.42153451748763 79.7906976744186 80.37520600622597 81.02124153085515 81.63651345907343 82.06720380882622 82.65171214063358 83.1439296832082 83.66691082219373 84.2514191540011 84.65134590734297 85.23585423915033 85.8511261673686 86.46639809558688 86.9586156381615 87.32777879509247 87.66617835561252 88.12763230177623 88.43526826588536 88.98901300128182 89.23512177256913 89.60428492950008 89.94268449002014 90.18879326130745 90.5271928218275 90.7425379967039 91.08093755722395 91.35780992492217 91.54239150338765 91.69620948544222 91.88079106390771 91.97308185314044 92.12689983519502 92.12689983519502 92.15766343160593 92.12689983519502 92.12689983519502 92.12689983519502 92.06537264237318 92.00384544955136 91.91155466031861 91.78850027467496 91.69620948544222 91.54239150338765 91.4501007141549 91.32704632851126 91.26551913568943 91.23475553927851 91.2039919428676 91.17322834645668 91.17322834645668 91.17322834645668 91.17322834645668 91.17322834645668 91.17322834645668 91.2039919428676 91.2039919428676 91.2039919428676 91.2039919428676 91.23475553927851 91.2039919428676 91.23475553927851 91.2039919428676 91.2039919428676 91.2039919428676 91.23475553927851 91.2039919428676 91.2039919428676 91.2039919428676 91.2039919428676 91.2039919428676 91.17322834645668 91.17322834645668 91.17322834645668 91.17322834645668 91.11170115363487 91.08093755722395 91.01941036440212 90.98864676799121 90.95788317158029 90.95788317158029 90.92711957516937 90.95788317158029 90.92711957516937 90.92711957516937 90.86559238234756 90.86559238234756 90.86559238234756 90.83482878593664 90.83482878593664 90.83482878593664 90.77330159311481 90.7425379967039 90.65024720747115 90.58872001464934 90.5579564182384 90.49642922541659 90.49642922541659 90.43490203259475 90.40413843618384 90.40413843618384 90.37337483977294 90.40413843618384 90.40413843618384 90.40413843618384 90.40413843618384 90.40413843618384 90.43490203259475 90.46566562900567 90.46566562900567 90.46566562900567 90.46566562900567 90.49642922541659 90.49642922541659 90.49642922541659 90.5271928218275 90.5271928218275 90.5579564182384 90.5579564182384 90.5579564182384 90.5579564182384 90.5579564182384 90.5579564182384 90.5579564182384 90.5579564182384 90.5579564182384 90.5579564182384 90.5579564182384 90.5579564182384 90.5579564182384 90.58872001464934 90.58872001464934 90.58872001464934 90.58872001464934 90.58872001464934 90.58872001464934 90.58872001464934 90.58872001464934 90.58872001464934 90.58872001464934 90.58872001464934 90.58872001464934 90.58872001464934 90.61948361106025 90.61948361106025 90.61948361106025 90.65024720747115 90.65024720747115 90.65024720747115 90.65024720747115 90.65024720747115 90.65024720747115 90.65024720747115 90.68101080388206 90.65024720747115 90.65024720747115 90.65024720747115 90.65024720747115 90.65024720747115 90.65024720747115 90.65024720747115 90.65024720747115 90.68101080388206 90.65024720747115 90.65024720747115 90.65024720747115 90.65024720747115 90.65024720747115 90.65024720747115 90.65024720747115 90.65024720747115 90.65024720747115 90.65024720747115 90.65024720747115 90.65024720747115 90.65024720747115 90.65024720747115 90.65024720747115 90.65024720747115 90.65024720747115 90.65024720747115 90.65024720747115 90.65024720747115 90.65024720747115 90.65024720747115 90.65024720747115 90.65024720747115 90.65024720747115 90.65024720747115 90.65024720747115 90.65024720747115 90.65024720747115 90.68101080388206 90.65024720747115 90.65024720747115 90.65024720747115 90.65024720747115 90.65024720747115 90.65024720747115 90.65024720747115 90.65024720747115 90.65024720747115 90.65024720747115 90.65024720747115 90.61948361106025 90.61948361106025 90.61948361106025 90.61948361106025 90.61948361106025 90.58872001464934 90.58872001464934 90.5579564182384 90.5579564182384 90.5271928218275 90.5271928218275 90.49642922541659 90.46566562900567 90.40413843618384 90.37337483977294 90.34261124336201 90.3118476469511 90.25032045412928 90.25032045412928 90.25032045412928 90.25032045412928 90.25032045412928 90.25032045412928 90.25032045412928 90.25032045412928 90.25032045412928 90.21955685771836 90.15802966489653 90.03497527925288 89.94268449002014 89.78886650796557 89.66581212232191 89.45046694744552 89.23512177256913 89.08130379051455 88.89672221204907 88.7429042299945 88.55832265152901 88.37374107306354 88.25068668741989 88.12763230177623 88.00457791613258 87.91228712689983 87.69694195202344 87.51236037355795 87.35854239150339 87.08167002380517 86.83556125251785 86.40487090276505 86.09723493865592 85.60501739608131 85.08203625709577 84.55905511811024 84.18989196117926 83.63614722578282 83.20545687603003 82.4671305621681 81.94414942318257 81.54422266984068 81.05200512726607 80.59055118110236 79.94451565647316 79.36000732466582 78.71397180003662 78.16022706464017 77.72953671488739 77.29884636513458 76.46822926203993 76.12982970151987 75.29921259842519 74.59164988097417 74.09943233839957 73.39186962094854 72.93041567478483 71.97674418604652 71.5152902398828 70.99230910089727 70.28474638344625 69.54642006958431 68.96191173777697 68.25434902032595 67.54678630287492 67.05456876030031 66.3470060428493 65.85478850027468 64.93188060794725 64.37813587255081 63.916681926387106 63.08606482329243 62.59384728071782 62.16315693096502 61.27101263504852 60.87108588170665 60.19428676066654 59.579014832448266 59.17908807910639 58.563816150888115 58.22541659036806 57.6409082585607 57.08716352316425 56.656473173411456 56.10272843801501 55.51822010620765 54.933711774400294 54.53378502105841 53.918513092840136 53.518586339498256 52.96484160410181 52.53415125434902 51.826588536898 51.27284380150155 50.842153451748764 50.442226698406884 49.70390038454495 49.30397363120308 48.75022889580663 48.35030214246475 47.73503021424648 47.15052188243911 46.71983153268632 46.104559604468044 45.61234206189343 44.935542940853324 44.19721662699139 43.73576268082768 43.028199963376665 42.04376487822743 41.55154733565281 40.81322102179088 40.1979490935726 39.76725874381981 39.24427760483428 38.75206006225966 37.73686138069951 36.93700787401575 36.352499542208385 35.55264603552463 35.09119208936092 34.69126533601904 34.137520600622594 33.89141182933528 33.49148507599341 33.2453763047061 33.060794726240616 32.87621314777513 32.75315876213148 32.59934078007691 32.44552279802234 32.3532320087896 32.19941402673503 31.984068851858634 31.86101446621498 31.676432887749495 31.614905694927668 31.55337850210584 31.461087712873102 31.36879692364036 31.21497894158579 31.030397363120308 30.96887017029848 30.87657938106574 30.845815784654825 30.753524995422083 30.691997802600255 30.630470609778428 30.47665262772386 30.29207104925838 30.169016663614723 29.953671488738326 29.799853506683757 29.73832631386193 29.707562717451015 29.707562717451015 29.646035524629188 29.58450833180736 29.553744735396446 29.461453946163708 29.430690349752794 29.369163156930966 29.39992675334188 29.369163156930966 29.39992675334188 29.39992675334188 29.369163156930966 29.369163156930966 29.369163156930966 29.369163156930966 29.369163156930966 29.369163156930966 29.338399560520052 29.338399560520052 29.338399560520052 29.338399560520052 29.338399560520052 29.338399560520052 29.338399560520052 29.338399560520052 29.338399560520052 29.30763596410914 29.338399560520052 29.30763596410914 29.30763596410914 29.30763596410914 29.30763596410914 29.30763596410914 29.30763596410914 29.30763596410914 29.30763596410914 29.30763596410914 29.30763596410914 29.276872367698225 29.276872367698225 29.276872367698225 29.276872367698225 29.24610877128731 29.24610877128731 29.215345174876397 29.215345174876397 29.215345174876397 29.215345174876397 29.215345174876397 29.215345174876397 29.215345174876397 29.215345174876397 29.215345174876397 29.215345174876397 29.215345174876397 29.215345174876397 29.215345174876397 29.215345174876397 29.215345174876397 29.215345174876397 29.215345174876397 29.215345174876397 29.215345174876397 29.215345174876397 29.215345174876397 29.215345174876397 29.215345174876397 29.215345174876397 29.215345174876397 29.215345174876397 29.215345174876397 29.215345174876397 29.215345174876397 29.215345174876397 29.215345174876397 29.215345174876397 29.215345174876397 29.215345174876397 29.215345174876397 29.215345174876397 29.215345174876397 29.215345174876397 29.215345174876397 29.215345174876397 29.215345174876397 29.215345174876397 29.215345174876397 29.215345174876397 29.215345174876397 29.215345174876397 29.215345174876397 29.215345174876397 29.215345174876397 29.215345174876397 29.184581578465483 29.215345174876397 29.215345174876397 29.215345174876397 29.215345174876397 29.215345174876397 29.215345174876397 29.215345174876397 29.215345174876397 29.215345174876397 29.215345174876397 29.215345174876397 29.215345174876397 29.215345174876397 29.215345174876397 29.215345174876397 29.215345174876397 29.215345174876397 29.215345174876397 29.215345174876397 29.215345174876397 29.215345174876397 29.215345174876397 29.215345174876397 29.215345174876397 29.215345174876397 29.215345174876397 29.215345174876397 29.215345174876397 29.215345174876397 29.215345174876397 29.215345174876397 29.215345174876397 29.215345174876397 29.184581578465483 29.215345174876397 29.215345174876397 29.215345174876397 29.215345174876397 29.215345174876397 29.215345174876397 29.215345174876397 29.215345174876397 29.215345174876397 29.215345174876397 29.184581578465483 29.215345174876397 29.215345174876397 29.215345174876397 29.215345174876397 29.215345174876397 29.215345174876397 29.215345174876397 29.215345174876397 29.215345174876397 29.215345174876397 29.215345174876397 29.215345174876397 29.215345174876397 29.184581578465483 29.184581578465483 29.184581578465483 29.215345174876397 29.215345174876397 29.215345174876397 29.215345174876397 29.215345174876397 29.215345174876397 29.215345174876397 29.215345174876397 29.215345174876397 29.215345174876397 29.215345174876397 29.215345174876397 29.215345174876397 29.215345174876397 29.215345174876397 29.215345174876397 29.215345174876397 29.215345174876397 29.215345174876397 29.215345174876397 29.215345174876397 29.215345174876397 29.215345174876397 29.215345174876397 29.215345174876397 29.215345174876397 29.215345174876397 29.184581578465483 29.184581578465483 29.215345174876397 29.215345174876397 29.215345174876397 29.215345174876397 29.184581578465483 29.215345174876397 29.215345174876397 29.215345174876397 29.215345174876397 29.215345174876397 29.215345174876397 29.215345174876397 29.215345174876397 29.215345174876397 29.215345174876397 29.215345174876397 29.215345174876397 29.215345174876397 29.215345174876397 29.215345174876397 29.215345174876397 29.215345174876397 29.215345174876397 29.215345174876397 29.215345174876397 29.215345174876397 29.215345174876397 29.215345174876397 29.215345174876397 29.215345174876397 29.215345174876397 29.215345174876397 29.24610877128731 29.24610877128731 29.24610877128731 29.24610877128731 29.24610877128731 29.24610877128731 29.276872367698225 29.276872367698225 29.276872367698225 29.30763596410914 29.30763596410914 29.30763596410914 29.338399560520052 29.338399560520052 29.369163156930966 29.369163156930966 29.39992675334188 29.430690349752794 29.461453946163708 29.49221754257462 29.522981138985532 29.615271928218274 29.646035524629188 29.73832631386193 29.799853506683757 29.861380699505585 29.98443508514924 30.07672587438198 30.261307452847465 30.353598242080206 30.445889031312948 30.538179820545686 30.753524995422083 30.907342977476652 31.091924555942136 31.245742537996705 31.430324116462188 31.55337850210584 31.768723676982237 32.04559604468046 32.260941219556855 32.507049990844166 32.72239516572056 32.93774034059696 33.30690349752793 33.49148507599341 33.79912104010255 34.10675700421168 34.35286577549899 34.8143197216627 35.30653726423732 35.706464017579194 36.32173594579747 36.84471708478301 37.459989013001284 38.22907892327412 39.028932429957884 39.82878593664164 40.35176707562717 40.90551181102362 41.67460172129647 42.22834645669291 43.0897271561985 44.135689434169564 44.68943416956601 45.52005127266068 46.13532320087896 46.658304339864486 47.519685039370074 48.35030214246475 49.21168284197033 50.01153634865409 50.596044680461446 51.42666178355613 52.288042483061716 52.9340780076909 53.88774949642922 54.68760300311298 55.54898370261857 56.56418238417872 57.302508698040654 58.65610694012086 59.39443325398278 60.00970518220106 60.994140267350296 61.64017579197949 62.53232008789599 63.70133675151071 64.31660867972897 65.14722578282365 65.94707928950741 66.19318806079472 67.2391503387658 67.73136788134042 68.43893059879143 69.14649331624244 69.63871085881706 70.34627357626809 70.8384911188427 71.45376304706097 72.06903497527925 72.46896172862114 73.05347006042848 73.69950558505768 74.13019593481047 74.77623145943966 75.39150338765793 75.7606665445889 76.34517487639626 76.74510162973814 77.51419154001098 78.09869987181834 78.52939022157113 79.02160776414576 79.39077092107672 79.7906976744186 80.4674967954587 80.83665995238968 81.32887749496429 81.85185863394983 82.22102179088078 82.74400292986633 83.08240249038637 83.57462003296098 84.09760117194652 84.43600073246657 84.92821827504119 85.42043581761581 85.91265336019043 86.34334370994324 86.52792528840871 86.83556125251785 87.29701519868155 87.48159677714705 87.81999633766708 88.06610510895439 88.21992309100898 88.34297747665262 88.46603186229628 88.55832265152901 88.61984984435085 88.68137703717267 88.71214063358359 88.71214063358359 88.71214063358359 88.71214063358359 88.71214063358359 88.71214063358359 88.68137703717267 88.68137703717267 88.68137703717267 88.68137703717267 88.68137703717267 88.68137703717267 88.68137703717267 88.68137703717267 88.68137703717267 88.68137703717267 88.68137703717267 88.68137703717267 88.68137703717267 88.71214063358359 88.68137703717267 88.68137703717267 88.7429042299945 88.80443142281632 88.83519501922726 88.86595861563816 88.89672221204907 88.92748580845998 88.95824940487088 89.01977659769273 89.01977659769273 89.05054019410363 89.05054019410363 89.05054019410363 89.05054019410363 89.05054019410363 89.08130379051455 89.08130379051455 89.11206738692547 89.14283098333638 89.14283098333638 89.14283098333638 89.14283098333638 89.14283098333638 89.14283098333638 89.14283098333638 89.14283098333638 89.14283098333638 89.17359457974729 89.17359457974729 89.17359457974729 89.20435817615821 89.17359457974729 89.17359457974729 89.17359457974729 89.17359457974729 89.17359457974729 89.17359457974729 89.17359457974729 89.17359457974729 89.17359457974729 89.17359457974729 89.17359457974729 89.14283098333638 89.17359457974729 89.17359457974729 89.17359457974729 89.14283098333638 89.17359457974729 89.14283098333638 89.17359457974729 89.14283098333638 89.14283098333638 89.17359457974729 89.14283098333638 89.17359457974729 89.17359457974729 89.17359457974729 89.17359457974729 89.17359457974729 89.20435817615821 89.17359457974729 89.20435817615821 89.17359457974729 89.20435817615821 89.20435817615821 89.20435817615821 89.20435817615821 89.17359457974729 89.20435817615821 89.20435817615821 89.17359457974729 89.17359457974729 89.17359457974729 89.17359457974729 89.17359457974729 89.17359457974729 89.17359457974729 89.17359457974729 89.17359457974729 89.20435817615821 89.17359457974729 89.17359457974729 89.20435817615821 89.17359457974729 89.20435817615821 89.20435817615821 89.23512177256913 89.20435817615821 89.23512177256913 89.26588536898004 89.26588536898004 89.26588536898004 89.26588536898004 89.26588536898004 89.26588536898004 89.26588536898004 89.26588536898004 89.26588536898004 89.26588536898004 89.26588536898004 89.26588536898004 89.26588536898004 89.26588536898004 89.26588536898004 89.26588536898004 89.26588536898004 89.26588536898004 89.26588536898004 89.26588536898004 89.26588536898004 89.26588536898004 89.26588536898004 89.26588536898004 89.26588536898004 89.26588536898004 89.26588536898004 89.26588536898004 89.26588536898004 89.26588536898004 89.26588536898004 89.23512177256913 89.23512177256913 89.17359457974729 89.17359457974729 89.14283098333638 89.11206738692547 89.08130379051455 89.08130379051455 89.05054019410363 89.05054019410363 89.01977659769273 89.01977659769273 89.01977659769273 89.01977659769273 89.01977659769273 89.01977659769273 89.01977659769273 89.01977659769273 89.01977659769273 89.05054019410363 89.08130379051455 89.08130379051455 89.08130379051455 89.05054019410363 89.05054019410363 89.05054019410363 89.08130379051455 89.05054019410363 89.05054019410363 89.05054019410363 89.05054019410363 89.08130379051455 89.05054019410363 89.05054019410363 89.05054019410363 89.05054019410363 89.05054019410363 89.05054019410363 89.05054019410363 88.95824940487088 88.83519501922726 88.7429042299945 88.7429042299945 88.7429042299945 88.7429042299945 88.7429042299945 88.7429042299945 88.7429042299945 88.7429042299945 88.77366782640541 88.77366782640541 88.77366782640541 88.80443142281632 88.83519501922726 88.83519501922726 88.86595861563816 88.86595861563816 88.86595861563816 88.86595861563816 88.86595861563816 88.86595861563816 88.86595861563816 88.89672221204907 88.89672221204907 88.89672221204907 88.89672221204907 88.89672221204907 88.89672221204907 88.92748580845998 88.92748580845998 88.98901300128182 89.01977659769273 89.05054019410363 89.11206738692547 89.11206738692547 89.14283098333638 89.14283098333638 89.17359457974729 89.20435817615821 89.20435817615821 89.23512177256913 89.23512177256913 89.23512177256913 89.23512177256913 89.26588536898004 89.23512177256913 89.23512177256913 89.23512177256913 89.23512177256913 89.23512177256913 89.23512177256913 89.23512177256913 89.23512177256913 89.23512177256913 89.23512177256913 89.23512177256913 89.23512177256913 89.23512177256913 89.23512177256913 89.23512177256913 89.23512177256913 89.23512177256913 89.23512177256913 89.23512177256913 89.23512177256913 89.23512177256913 89.23512177256913 89.23512177256913 89.23512177256913 89.23512177256913 89.23512177256913 89.23512177256913 89.23512177256913 89.23512177256913 89.23512177256913 89.23512177256913 89.23512177256913 89.23512177256913 89.23512177256913 89.26588536898004 89.26588536898004 89.23512177256913 89.23512177256913 89.23512177256913 89.23512177256913 89.26588536898004 89.26588536898004 89.26588536898004 89.26588536898004 89.26588536898004 89.26588536898004 89.23512177256913 89.23512177256913 89.23512177256913 89.23512177256913 89.20435817615821 89.14283098333638 88.98901300128182 88.80443142281632 88.65061344076176 88.40450466947445 88.12763230177623 87.91228712689983 87.54312396996886 87.26625160227064 86.74327046328511 86.2818165171214 85.97418055301226 85.57425379967039 85.29738143197216 84.98974546786303 84.49752792528841 84.18989196117926 83.78996520783738 83.42080205090642 83.1439296832082 82.74400292986633 82.34407617652444 82.06720380882622 81.63651345907343 81.32887749496429 80.86742354880059 80.40596960263687 79.91375206006225 79.39077092107672 79.0831349569676 78.71397180003662 78.28328145028382 77.91411829335286 77.20655557590185 76.62204724409449 76.1913568943417 75.66837575535615 75.05310382713789 74.653177073796 74.28401391686504 73.69950558505768 73.11499725325032 72.49972532503205 72.03827137886833 71.33070866141732 70.77696392602087 70.16169199780259 69.42336568394066 68.93114814136604 68.19282182750412 67.45449551364219 66.86998718183483 65.73173411463102 65.11646218641275 64.47042666178355 63.516755173045226 62.83995605200513 61.947811756088626 60.932613074528476 60.440395531953854 59.79436000732467 59.27137886833913 58.87145211499725 58.1023622047244 57.6409082585607 56.93334554110969 56.25654642006958 55.76432887749496 55.087529756454856 54.53378502105841 54.0415674784838 53.33400476103277 52.84178721845816 52.16498809741805 51.42666178355613 50.87291704815968 50.16535433070866 49.39626442043581 48.9040468778612 48.28877494964292 47.82732100347921 47.02746749679545 46.62754074345358 45.950741622413474 45.36623329060612 44.874015748031496 44.25874381981322 43.612708295184035 43.15125434902033 42.505218824391136 41.92071049258377 41.5207837392419 40.90551181102362 40.38253067203809 39.921076725874386 39.15198681560154 38.721296465848745 38.35213330891778 37.89067936275407 37.398461820179456 36.93700787401575 36.62937190990661 36.1679179637429 35.89104559604468 35.55264603552463 34.87584691448453 34.537447353964474 34.16828419703351 33.860648232924376 33.614539461637065 33.368430690349754 33.15308551547336 33.0300311298297 32.84544955136422 32.75315876213148 32.59934078007691 32.414759201611425 32.168650430324114 32.1378868339132 32.014832448269544 31.922541659036806 31.79948727339315 31.70719648416041 31.55337850210584 31.399560520051274 31.27650613440762 31.21497894158579 31.12268815235305 31.06116095953122 30.96887017029848 30.938106573887566 30.87657938106574 30.784288591832997 30.691997802600255 30.599707013367514 30.538179820545686 30.415125434902034 30.29207104925838 30.23054385643655 30.107489470792896 30.045962277971068 30.015198681560154 29.953671488738326 29.922907892327412 29.861380699505585 29.799853506683757 29.73832631386193 29.6767991210401 29.646035524629188 29.615271928218274 29.553744735396446 29.522981138985532 29.522981138985532 29.49221754257462 29.49221754257462 29.461453946163708 29.461453946163708 29.461453946163708 29.461453946163708 29.461453946163708 29.461453946163708 29.430690349752794 29.461453946163708 29.430690349752794 29.430690349752794 29.430690349752794 29.39992675334188 29.39992675334188 29.39992675334188 29.39992675334188 29.39992675334188 29.369163156930966 29.369163156930966 29.369163156930966 29.369163156930966 29.369163156930966 29.369163156930966 29.369163156930966 29.369163156930966 29.338399560520052 29.338399560520052 29.338399560520052 29.369163156930966 29.338399560520052 29.338399560520052 29.338399560520052 29.369163156930966 29.338399560520052 29.338399560520052 29.338399560520052 29.369163156930966 29.338399560520052 29.338399560520052 29.338399560520052 29.338399560520052 29.338399560520052 29.338399560520052 29.338399560520052 29.338399560520052 29.338399560520052 29.338399560520052 29.338399560520052 29.338399560520052 29.338399560520052 29.338399560520052 29.338399560520052 29.338399560520052 29.338399560520052 29.338399560520052 29.338399560520052 29.338399560520052 29.338399560520052 29.338399560520052 29.338399560520052 29.338399560520052 29.338399560520052 29.338399560520052 29.338399560520052 29.338399560520052 29.338399560520052 29.338399560520052 29.338399560520052 29.338399560520052 29.338399560520052 29.338399560520052 29.338399560520052 29.338399560520052 29.338399560520052 29.338399560520052 29.338399560520052 29.30763596410914 29.338399560520052 29.338399560520052 29.338399560520052 29.338399560520052 29.338399560520052 29.338399560520052 29.338399560520052 29.338399560520052 29.338399560520052 29.338399560520052 29.338399560520052 29.338399560520052 29.338399560520052 29.338399560520052 29.338399560520052 29.338399560520052 29.338399560520052 29.338399560520052 29.338399560520052 29.338399560520052 29.338399560520052 29.338399560520052 29.338399560520052 29.338399560520052 29.338399560520052 29.338399560520052 29.338399560520052 29.338399560520052 29.338399560520052 29.338399560520052 29.338399560520052 29.338399560520052 29.338399560520052 29.338399560520052 29.338399560520052 29.338399560520052 29.338399560520052 29.338399560520052 29.338399560520052 29.338399560520052 29.338399560520052 29.338399560520052 29.338399560520052 29.338399560520052 29.30763596410914 29.338399560520052 29.338399560520052 29.338399560520052 29.338399560520052 29.338399560520052 29.338399560520052 29.30763596410914 29.30763596410914 29.338399560520052 29.338399560520052 29.30763596410914 29.338399560520052 29.338399560520052 29.338399560520052 29.338399560520052 29.338399560520052 29.338399560520052 29.338399560520052 29.338399560520052 29.338399560520052 29.338399560520052 29.338399560520052 29.338399560520052 29.338399560520052 29.30763596410914 29.338399560520052 29.338399560520052 29.338399560520052 29.338399560520052 29.338399560520052 29.338399560520052 29.338399560520052 29.338399560520052 29.338399560520052 29.338399560520052 29.30763596410914 29.30763596410914 29.338399560520052 29.338399560520052 29.30763596410914 29.338399560520052 29.338399560520052 29.30763596410914 29.338399560520052 29.338399560520052 29.338399560520052 29.338399560520052 29.338399560520052 29.338399560520052 29.338399560520052 29.338399560520052 29.338399560520052 29.30763596410914 29.30763596410914 29.338399560520052 29.338399560520052 29.30763596410914 29.338399560520052 29.338399560520052 29.338399560520052 29.338399560520052 29.338399560520052 29.338399560520052 29.338399560520052 29.338399560520052 29.338399560520052 29.338399560520052 29.338399560520052 29.30763596410914 29.338399560520052 29.30763596410914 29.338399560520052 29.338399560520052 29.338399560520052 29.338399560520052 29.338399560520052 29.338399560520052 29.338399560520052 29.338399560520052 29.338399560520052 29.338399560520052 29.338399560520052 29.338399560520052 29.338399560520052 29.338399560520052 29.338399560520052 29.338399560520052 29.30763596410914 29.338399560520052 29.338399560520052 29.338399560520052 29.338399560520052 29.338399560520052 29.338399560520052 29.338399560520052 29.338399560520052 29.338399560520052 29.338399560520052 29.338399560520052 29.30763596410914 29.338399560520052 29.338399560520052 29.338399560520052 29.30763596410914 29.338399560520052 29.338399560520052 29.30763596410914 29.338399560520052 29.30763596410914 29.338399560520052 29.338399560520052 29.338399560520052 29.338399560520052 29.338399560520052 29.338399560520052 29.338399560520052 29.338399560520052 29.338399560520052 29.338399560520052 29.338399560520052 29.338399560520052 29.338399560520052 29.338399560520052 29.338399560520052 29.338399560520052 29.338399560520052 29.338399560520052 29.338399560520052 29.338399560520052 29.338399560520052 29.338399560520052 29.338399560520052 29.338399560520052 29.338399560520052 29.338399560520052 29.338399560520052 29.30763596410914 29.338399560520052 29.30763596410914 29.338399560520052 29.338399560520052 29.338399560520052 29.338399560520052 29.30763596410914 29.30763596410914 29.338399560520052 29.338399560520052 29.338399560520052 29.338399560520052 29.338399560520052 29.338399560520052 29.338399560520052 29.30763596410914 29.338399560520052 29.338399560520052 29.338399560520052 29.338399560520052 29.338399560520052 29.30763596410914 29.338399560520052 29.338399560520052 29.338399560520052 29.338399560520052 29.30763596410914 29.338399560520052 29.338399560520052 29.338399560520052 29.30763596410914 29.338399560520052 29.338399560520052 29.338399560520052 29.338399560520052 29.338399560520052 29.338399560520052 29.338399560520052 29.30763596410914 29.30763596410914 29.338399560520052 29.30763596410914 29.338399560520052 29.30763596410914 29.338399560520052 29.338399560520052 29.30763596410914 29.338399560520052 29.30763596410914 29.30763596410914 29.338399560520052 29.338399560520052 29.338399560520052 29.338399560520052 29.30763596410914 29.30763596410914 29.338399560520052 29.338399560520052 29.338399560520052 29.338399560520052 29.338399560520052 29.338399560520052 29.338399560520052 29.338399560520052 29.338399560520052 29.338399560520052 29.338399560520052 29.338399560520052 29.30763596410914 29.338399560520052 29.338399560520052 29.338399560520052 29.338399560520052 29.30763596410914 29.338399560520052 29.338399560520052 29.338399560520052 29.338399560520052 29.338399560520052 29.30763596410914 29.338399560520052 29.338399560520052 29.338399560520052 29.338399560520052 29.338399560520052 29.338399560520052 29.338399560520052 29.338399560520052 29.338399560520052 29.369163156930966 29.338399560520052 29.369163156930966 29.369163156930966 29.369163156930966 29.369163156930966 29.369163156930966 29.39992675334188 29.39992675334188 29.430690349752794 29.430690349752794 29.461453946163708 29.461453946163708 29.49221754257462 29.49221754257462 29.522981138985532 29.522981138985532 29.553744735396446 29.553744735396446 29.58450833180736 29.615271928218274 29.646035524629188 29.6767991210401 29.707562717451015 29.73832631386193 29.769089910272843 29.83061710309467 29.861380699505585 29.922907892327412 30.045962277971068 30.107489470792896 30.169016663614723 30.261307452847465 30.353598242080206 30.47665262772386 30.630470609778428 30.784288591832997 30.87657938106574 30.96887017029848 30.999633766709394 31.030397363120308 31.091924555942136 31.12268815235305 31.153451748763963 31.245742537996705 31.338033327229446 31.491851309284012 31.768723676982237 31.891778062625892 32.107123237502286 32.23017762314594 32.414759201611425 32.660867972898735 32.968503937007874 33.214612708295185 33.368430690349754 33.49148507599341 33.7068302508698 33.860648232924376 34.10675700421168 34.50668375755356 34.90661051089544 35.337300860648234 35.737227613990115 36.444790331441126 37.152353048892145 37.73686138069951 38.35213330891778 39.09045962277971 39.582677165354326 40.290239882805345 40.843984618201794 41.7668925105292 42.38216443874748 42.905145577733016 43.45889031312946 44.135689434169564 44.59714338033327 45.427760483427946 45.79692364035891 46.28914118293353 46.56601355063175 46.81212232191906 47.24281267167186 47.48892144295917 47.82732100347921 48.35030214246475 48.50412012451932 48.99633766709394 49.55008240249039 50.042299945065004 50.688335469694195 51.149789415857896 51.85735213330892 52.56491485075993 53.118659586156376 53.79545870719648 54.53378502105841 55.087529756454856 55.85661966672771 56.37960080571324 57.48709027650613 58.1023622047244 58.71763413294268 59.67130562168101 60.19428676066654 60.778795092473906 61.8862845632668 62.50155649148507 63.33217359457974 64.28584508331807 64.99340780076909 66.00860648232924 67.11609595312214 68.06976744186046 69.14649331624244 69.97711041933712 70.99230910089727 72.00750778245742 72.77659769273026 73.69950558505768 74.59164988097417 75.26844900201428 76.16059329793077 76.80662882255997 77.97564548617468 78.80626258926935 79.36000732466582 80.19062442776048 80.74436916315693 81.17505951290971 82.09796740523714 82.55942135140083 83.1439296832082 83.66691082219373 84.00531038271379 84.55905511811024 84.95898187145211 85.42043581761581 85.91265336019043 86.25105292071049 86.74327046328511 87.2047244094488 87.66617835561252 88.12763230177623 88.58908624793993 88.77366782640541 89.11206738692547 89.35817615821279 89.72733931514375 89.97344808643106 90.15802966489653 90.43490203259475 90.5579564182384 90.68101080388206 90.83482878593664 91.05017396081303 91.17322834645668 91.32704632851126 91.41933711774399 91.57315509979856 91.6346822926204 91.72697308185315 91.85002746749679 91.85002746749679 91.88079106390771 91.88079106390771 91.88079106390771 91.88079106390771 91.91155466031861 91.91155466031861 91.91155466031861 91.91155466031861 91.91155466031861 91.94231825672954 91.94231825672954 91.97308185314044 92.00384544955136 92.03460904596227 92.06537264237318 92.06537264237318 92.06537264237318 92.06537264237318 92.06537264237318 92.06537264237318 92.06537264237318 92.06537264237318 92.03460904596227 92.03460904596227 92.03460904596227 92.03460904596227 92.03460904596227 92.03460904596227 92.03460904596227 92.03460904596227 92.03460904596227 92.03460904596227 92.00384544955136 91.97308185314044 91.97308185314044 91.94231825672954 91.94231825672954 91.91155466031861 91.91155466031861 91.91155466031861 91.91155466031861 91.88079106390771 91.91155466031861 91.91155466031861 91.88079106390771 91.88079106390771 91.88079106390771 91.85002746749679 91.88079106390771 91.88079106390771 91.85002746749679 91.81926387108588 91.78850027467496 91.72697308185315 91.72697308185315 91.69620948544222 91.6654458890313 91.6346822926204 91.60391869620949 91.57315509979856 91.57315509979856 91.54239150338765 91.54239150338765 91.54239150338765 91.54239150338765 91.54239150338765 91.54239150338765 91.54239150338765 91.54239150338765 91.54239150338765 91.54239150338765 91.54239150338765 91.54239150338765 91.54239150338765 91.54239150338765 91.54239150338765 91.54239150338765 91.54239150338765 91.54239150338765 91.54239150338765 91.54239150338765 91.54239150338765 91.54239150338765 91.57315509979856 91.54239150338765 91.54239150338765 91.54239150338765 91.54239150338765 91.54239150338765 91.54239150338765 91.54239150338765 91.57315509979856 91.57315509979856 91.54239150338765 91.54239150338765 91.54239150338765 91.54239150338765 91.54239150338765 91.54239150338765 91.54239150338765 91.54239150338765 91.54239150338765 91.54239150338765 91.51162790697674 91.48086431056583 91.4501007141549 91.41933711774399 91.41933711774399 91.41933711774399 91.38857352133309 91.35780992492217 91.32704632851126 91.29628273210034 91.29628273210034 91.26551913568943 91.26551913568943 91.26551913568943 91.26551913568943 91.26551913568943 91.26551913568943 91.26551913568943 91.26551913568943 91.26551913568943 91.26551913568943 91.26551913568943 91.26551913568943 91.26551913568943 91.26551913568943 91.26551913568943 91.26551913568943 91.29628273210034 91.26551913568943 91.26551913568943 91.26551913568943 91.26551913568943 91.26551913568943 91.26551913568943 91.26551913568943 91.26551913568943 91.26551913568943 91.26551913568943 91.26551913568943 91.26551913568943 91.26551913568943 91.29628273210034 91.26551913568943 91.26551913568943 91.29628273210034 91.29628273210034 91.29628273210034 91.29628273210034 91.32704632851126 91.32704632851126 91.32704632851126 91.32704632851126 91.35780992492217 91.35780992492217 91.35780992492217 91.35780992492217 91.35780992492217 91.35780992492217 91.35780992492217 91.35780992492217 91.35780992492217 91.35780992492217 91.35780992492217 91.35780992492217 91.35780992492217 91.35780992492217 91.35780992492217 91.35780992492217 91.35780992492217 91.35780992492217 91.35780992492217 91.35780992492217 91.35780992492217 91.35780992492217 91.35780992492217 91.35780992492217 91.35780992492217 91.35780992492217 91.35780992492217 91.35780992492217 91.35780992492217 91.35780992492217 91.35780992492217 91.35780992492217 91.35780992492217 91.35780992492217 91.35780992492217 91.35780992492217 91.35780992492217 91.35780992492217 91.35780992492217 91.35780992492217 91.35780992492217 91.35780992492217 91.35780992492217 91.35780992492217 91.35780992492217 91.35780992492217 91.35780992492217 91.35780992492217 91.35780992492217 91.35780992492217 91.35780992492217 91.32704632851126 91.32704632851126 91.32704632851126 91.32704632851126 91.32704632851126 91.29628273210034 91.29628273210034 91.26551913568943 91.26551913568943 91.26551913568943 91.26551913568943 91.26551913568943 91.26551913568943 91.26551913568943 91.26551913568943 91.26551913568943 91.26551913568943 91.26551913568943 91.26551913568943 91.29628273210034 91.26551913568943 91.26551913568943 91.26551913568943 91.23475553927851 91.2039919428676 91.17322834645668 91.14246475004578 91.11170115363487 91.11170115363487 91.11170115363487 91.08093755722395 91.08093755722395 91.01941036440212 90.98864676799121 90.95788317158029 90.92711957516937 90.89635597875846 90.86559238234756 90.7425379967039 90.61948361106025 90.49642922541659 90.28108405054019 90.0965024720747 89.85039370078741 89.57352133308916 89.35817615821279 89.05054019410363 88.55832265152901 88.25068668741989 87.94305072331073 87.63541475920161 87.1739608130379 86.74327046328511 86.46639809558688 85.88188976377953 85.48196301043765 85.20509064273942 84.77440029298663 84.43600073246657 84.15912836476835 83.63614722578282 83.35927485808459 82.89782091192089 82.43636696575717 82.09796740523714 81.45193188060794 81.08276872367698 80.71360556674601 80.12909723493865 79.66764328877494 79.0831349569676 78.16022706464017 77.69877311847647 77.02197399743636 76.49899285845083 75.9760117194653 75.39150338765793 74.93004944149423 74.00714154916682 73.36110602453763 72.86888848196301 72.22285295733383 71.60758102911555 71.08459989013001 70.377037172679 69.85405603369347 69.11572971983153 68.53122138802416 67.88518586339498 67.14685954953305 66.37776963926021 65.63944332539828 64.87035341512544 64.31660867972897 63.79362754074345 63.239882805347 62.59384728071782 61.64017579197949 61.11719465299395 60.440395531953854 59.94817798937923 59.48672404321553 58.809924922175426 58.1023622047244 57.48709027650613 56.81029115546603 56.348837209302324 55.76432887749496 55.087529756454856 54.59531221388024 53.918513092840136 53.364768357443694 52.78026002563632 52.07269730818531 51.54971616919978 50.65757187328328 50.19611792711957 49.76542757736678 49.05786485991577 48.44259293169749 47.91961179271196 47.27357626808276 46.658304339864486 45.98150521882439 45.5508148690716 45.12012451931881 44.227980223402305 43.73576268082768 43.058963559787585 42.35140084233657 41.73612891411829 41.15162058231093 40.47482146127083 40.01336751510712 39.367331990477936 38.90587804431423 38.321369712506865 37.67533418787768 37.24464383812489 36.598608313495696 35.82951840322285 35.429591649880976 35.12195568577184 34.90661051089544 34.56821095037539 34.29133858267716 34.19904779344442 34.01446621497894 33.860648232924376 33.67606665445889 33.33766709393884 33.15308551547336 32.87621314777513 32.63010437648782 32.414759201611425 32.23017762314594 32.07635964109137 31.830250869804065 31.676432887749495 31.55337850210584 31.430324116462188 31.338033327229446 31.21497894158579 31.06116095953122 31.030397363120308 30.938106573887566 30.87657938106574 30.81505218824391 30.72276139901117 30.630470609778428 30.5689434169566 30.415125434902034 30.353598242080206 30.322834645669293 30.199780260025637 30.13825306720381 30.015198681560154 29.83061710309467 29.707562717451015 29.6767991210401 29.646035524629188 29.646035524629188 29.615271928218274 29.58450833180736 29.553744735396446 29.522981138985532 29.461453946163708 29.461453946163708 29.461453946163708 29.461453946163708 29.461453946163708 29.461453946163708 29.430690349752794 29.430690349752794 29.430690349752794 29.430690349752794 29.39992675334188 29.39992675334188 29.369163156930966 29.338399560520052 29.30763596410914 29.276872367698225 29.24610877128731 29.215345174876397 29.215345174876397 29.215345174876397 29.184581578465483 29.184581578465483 29.184581578465483 29.184581578465483 29.184581578465483 29.184581578465483 29.184581578465483 29.184581578465483 29.184581578465483 29.184581578465483 29.15381798205457 29.184581578465483 29.184581578465483 29.184581578465483 29.15381798205457 29.15381798205457 29.15381798205457 29.15381798205457 29.15381798205457 29.184581578465483 29.15381798205457 29.184581578465483 29.184581578465483 29.15381798205457 29.184581578465483 29.15381798205457 29.15381798205457 29.184581578465483 29.15381798205457 29.15381798205457 29.15381798205457 29.15381798205457 29.15381798205457 29.15381798205457 29.15381798205457 29.184581578465483 29.15381798205457 29.15381798205457 29.184581578465483 29.15381798205457 29.15381798205457 29.15381798205457 29.15381798205457 29.15381798205457 29.15381798205457 29.15381798205457 29.15381798205457 29.15381798205457 29.15381798205457 29.15381798205457 29.15381798205457 29.15381798205457 29.15381798205457 29.15381798205457 29.15381798205457 29.15381798205457 29.15381798205457 29.15381798205457 29.15381798205457 29.15381798205457 29.15381798205457 29.15381798205457 29.15381798205457 29.184581578465483 29.15381798205457 29.15381798205457 29.184581578465483 29.15381798205457 29.15381798205457 29.15381798205457 29.15381798205457 29.15381798205457 29.15381798205457 29.15381798205457 29.15381798205457 29.15381798205457 29.15381798205457 29.15381798205457 29.15381798205457 29.15381798205457 29.15381798205457 29.15381798205457 29.15381798205457 29.15381798205457 29.15381798205457 29.15381798205457 29.15381798205457 29.15381798205457 29.15381798205457 29.15381798205457 29.15381798205457 29.15381798205457 29.15381798205457 29.15381798205457 29.15381798205457 29.15381798205457 29.15381798205457 29.15381798205457 29.15381798205457 29.15381798205457 29.15381798205457 29.15381798205457 29.15381798205457 29.15381798205457 29.15381798205457 29.15381798205457 29.15381798205457 29.15381798205457 29.15381798205457 29.15381798205457 29.15381798205457 29.15381798205457 29.15381798205457 29.15381798205457 29.15381798205457 29.15381798205457 29.15381798205457 29.15381798205457 29.15381798205457 29.15381798205457 29.15381798205457 29.15381798205457 29.184581578465483 29.15381798205457 29.15381798205457 29.15381798205457 29.15381798205457 29.15381798205457 29.15381798205457 29.15381798205457 29.15381798205457 29.15381798205457 29.184581578465483 29.15381798205457 29.15381798205457 29.15381798205457 29.15381798205457 29.15381798205457 29.15381798205457 29.15381798205457 29.15381798205457 29.15381798205457 29.15381798205457 29.15381798205457 29.15381798205457 29.15381798205457 29.15381798205457 29.15381798205457 29.15381798205457 29.15381798205457 29.15381798205457 29.15381798205457 29.15381798205457 29.15381798205457 29.15381798205457 29.15381798205457 29.15381798205457 29.15381798205457 29.15381798205457 29.15381798205457 29.15381798205457 29.184581578465483 29.15381798205457 29.15381798205457 29.15381798205457 29.184581578465483 29.15381798205457 29.184581578465483 29.184581578465483 29.184581578465483 29.15381798205457 29.15381798205457 29.184581578465483 29.15381798205457 29.15381798205457 29.15381798205457 29.184581578465483 29.184581578465483 29.184581578465483 29.15381798205457 29.15381798205457 29.184581578465483 29.184581578465483 29.184581578465483 29.15381798205457 29.184581578465483 29.184581578465483 29.184581578465483 29.184581578465483 29.184581578465483 29.184581578465483 29.184581578465483 29.184581578465483 29.184581578465483 29.15381798205457 29.184581578465483 29.184581578465483 29.184581578465483 29.184581578465483 29.184581578465483 29.184581578465483 29.184581578465483 29.184581578465483 29.184581578465483 29.184581578465483 29.184581578465483 29.184581578465483 29.184581578465483 29.184581578465483 29.184581578465483 29.184581578465483 29.184581578465483 29.184581578465483 29.15381798205457 29.184581578465483 29.184581578465483 29.184581578465483 29.184581578465483 29.184581578465483 29.184581578465483 29.184581578465483 29.184581578465483 29.184581578465483 29.184581578465483 29.184581578465483 29.184581578465483 29.215345174876397 29.215345174876397 29.215345174876397 29.215345174876397 29.215345174876397 29.24610877128731 29.215345174876397 29.24610877128731 29.24610877128731 29.276872367698225 29.276872367698225 29.276872367698225 29.338399560520052 29.338399560520052 29.338399560520052 29.39992675334188 29.430690349752794 29.461453946163708 29.522981138985532 29.58450833180736 29.646035524629188 29.707562717451015 29.799853506683757 29.8921442959165 30.015198681560154 30.169016663614723 30.322834645669293 30.445889031312948 30.66123420618934 30.81505218824391 31.184215345174877 31.338033327229446 31.430324116462188 31.70719648416041 31.95330525544772 32.168650430324114 32.660867972898735 32.93774034059696 33.214612708295185 33.55301226881524 33.829884636513455 34.19904779344442 34.5989745467863 34.96813770371727 35.55264603552463 35.98333638527742 36.56784471708478 37.36769822376854 37.859915766343164 38.25984251968504 38.567478483794176 38.93664164072514 39.45962277971067 39.82878593664164 40.56711225050357 41.05932979307819 41.459256546420065 42.013001281816514 42.44369163156931 42.84361838491119 43.581944698773114 44.10492583775865 44.535616187511444 45.15088811572972 45.61234206189343 46.28914118293353 47.02746749679545 47.519685039370074 48.319538546053835 48.9040468778612 50.41146310199597 51.08826222303607 51.61124336202161 52.38033327229445 53.21095037538912 53.48782274308734 54.2876762497711 54.872184581578466 55.67203808826222 56.77952755905512 57.33327229445156 58.13312580113532 58.71763413294268 59.24061527192821 60.19428676066654 60.932613074528476 61.48635780992492 62.28621131660868 62.83995605200513 63.60904596227797 64.25508148690716 64.96264420435817 65.73173411463102 66.25471525361655 67.02380516388939 67.79289507416223 68.3466398095587 69.14649331624244 69.9463468229262 70.50009155832265 71.20765427577366 71.69987181834829 72.65354330708661 73.29957883171579 73.79179637429041 74.46859549533052 74.89928584508331 75.39150338765793 76.25288408716352 76.83739241897088 77.32960996154551 78.0064090825856 78.52939022157113 79.20618934261125 79.82146127082952 80.40596960263687 81.1135323200879 81.6057498626625 82.28254898370261 83.1439296832082 83.72843801501557 84.15912836476835 84.58981871452116 85.20509064273942 85.60501739608131 86.03570774583409 86.83556125251785 87.45083318073613 87.88152353048892 88.5275590551181 88.95824940487088 89.635048525911 90.3118476469511 90.80406518952573 91.32704632851126 91.88079106390771 92.24995422083867 92.92675334187877 93.14209851675518 93.48049807727523 93.81889763779527 94.03424281267166 94.28035158395897 94.46493316242446 94.64951474088994 94.7725691265336 94.80333272294452 94.83409631935542 94.83409631935542 94.83409631935542 94.80333272294452 94.80333272294452 94.80333272294452 94.7725691265336 94.7725691265336 94.68027833730086 94.64951474088994 94.61875114447903 94.5572239516572 94.49569675883538 94.46493316242446 94.43416956601355 94.43416956601355 94.43416956601355 94.43416956601355 94.43416956601355 94.43416956601355 94.43416956601355 94.43416956601355 94.43416956601355 94.43416956601355 94.43416956601355 94.43416956601355 94.43416956601355 94.43416956601355 94.43416956601355 94.37264237319172 94.37264237319172 94.37264237319172 94.3418787767808 94.37264237319172 94.37264237319172 94.3418787767808 94.3418787767808 94.3418787767808 94.3418787767808 94.3418787767808 94.3418787767808 94.3418787767808 94.37264237319172 94.3418787767808 94.3418787767808 94.3418787767808 94.3418787767808 94.3418787767808 94.3418787767808 94.3111151803699 94.3111151803699 94.28035158395897 94.24958798754807 94.18806079472624 94.12653360190441 94.06500640908259 94.03424281267166 94.00347921626076 93.94195202343893 93.91118842702802 93.84966123420618 93.78813404138435 93.72660684856253 93.69584325215162 93.6650796557407 93.6650796557407 93.6650796557407 93.63431605932979 93.63431605932979 93.63431605932979 93.63431605932979 93.6650796557407 93.6650796557407 93.6650796557407 93.6650796557407 93.6650796557407 93.69584325215162 93.69584325215162 93.72660684856253 93.72660684856253 93.72660684856253 93.75737044497345 93.75737044497345 93.75737044497345 93.78813404138435 93.78813404138435 93.78813404138435 93.78813404138435 93.81889763779527 93.81889763779527 93.81889763779527 93.84966123420618 93.84966123420618 93.88042483061712 93.88042483061712 93.88042483061712 93.88042483061712 93.88042483061712 93.88042483061712 93.88042483061712 93.91118842702802 93.91118842702802 93.91118842702802 93.91118842702802 93.91118842702802 93.88042483061712 93.91118842702802 93.88042483061712 93.88042483061712 93.88042483061712 93.91118842702802 93.88042483061712 93.88042483061712 93.88042483061712 93.88042483061712 93.88042483061712 93.88042483061712 93.88042483061712 93.88042483061712 93.88042483061712 93.88042483061712 93.88042483061712 93.88042483061712 93.88042483061712 93.88042483061712 93.88042483061712 93.88042483061712 93.88042483061712 93.88042483061712 93.88042483061712 93.88042483061712 93.88042483061712 93.88042483061712 93.88042483061712 93.88042483061712 93.88042483061712 93.88042483061712 93.88042483061712 93.88042483061712 93.88042483061712 93.84966123420618 93.84966123420618 93.84966123420618 93.84966123420618 93.84966123420618 93.84966123420618 93.84966123420618 93.84966123420618 93.88042483061712 93.84966123420618 93.88042483061712 93.84966123420618 93.84966123420618 93.88042483061712 93.88042483061712 93.88042483061712 93.88042483061712 93.88042483061712 93.88042483061712 93.88042483061712 93.88042483061712 93.88042483061712 93.88042483061712 93.88042483061712 93.84966123420618 93.84966123420618 93.88042483061712 93.88042483061712 93.88042483061712 93.88042483061712 93.88042483061712 93.88042483061712 93.88042483061712 93.88042483061712 93.88042483061712 93.84966123420618 93.84966123420618 93.84966123420618 93.84966123420618 93.84966123420618 93.84966123420618 93.81889763779527 93.81889763779527 93.81889763779527 93.81889763779527 93.81889763779527 93.81889763779527 93.81889763779527 93.81889763779527 93.81889763779527 93.84966123420618 93.81889763779527 93.84966123420618 93.84966123420618 93.84966123420618 93.84966123420618 93.84966123420618 93.84966123420618 93.84966123420618 93.84966123420618 93.88042483061712 93.88042483061712 93.88042483061712 93.88042483061712 93.88042483061712 93.84966123420618 93.88042483061712 93.88042483061712 93.88042483061712 93.84966123420618 93.84966123420618 93.84966123420618 93.84966123420618 93.84966123420618 93.84966123420618 93.88042483061712 93.88042483061712 93.84966123420618 93.84966123420618 93.84966123420618 93.84966123420618 93.84966123420618 93.84966123420618 93.84966123420618 93.84966123420618 93.84966123420618 93.84966123420618 93.84966123420618 93.84966123420618 93.84966123420618 93.84966123420618 93.84966123420618 93.84966123420618 93.84966123420618 93.84966123420618 93.88042483061712 93.84966123420618 93.84966123420618 93.88042483061712 93.88042483061712 93.84966123420618 93.84966123420618 93.84966123420618 93.84966123420618 93.84966123420618 93.84966123420618 93.84966123420618 93.84966123420618 93.84966123420618 93.84966123420618 93.84966123420618 93.84966123420618 93.84966123420618 93.84966123420618 93.84966123420618 93.84966123420618 93.84966123420618 93.81889763779527 93.84966123420618 93.84966123420618 93.84966123420618 93.84966123420618 93.84966123420618 93.84966123420618 93.84966123420618 93.84966123420618 93.84966123420618 93.84966123420618 93.84966123420618 93.84966123420618 93.84966123420618 93.84966123420618 93.84966123420618 93.84966123420618 93.84966123420618 93.84966123420618 93.84966123420618 93.84966123420618 93.84966123420618 93.84966123420618 93.84966123420618 93.84966123420618 93.84966123420618 93.84966123420618 93.84966123420618 93.84966123420618 93.84966123420618 93.84966123420618 93.84966123420618 93.84966123420618 93.84966123420618 93.84966123420618 93.81889763779527 93.78813404138435 93.72660684856253 93.63431605932979 93.54202527009704 93.29591649880975 93.11133492034425 92.95751693828969 92.71140816700239 92.55759018494781 92.37300860648233 92.03460904596227 91.85002746749679 91.60391869620949 91.32704632851126 91.11170115363487 90.83482878593664 90.49642922541659 90.3118476469511 90.00421168284197 89.78886650796557 89.4197033510346 88.89672221204907 88.58908624793993 88.12763230177623 87.75846914484526 87.45083318073613 87.02014283098333 86.7125068668742 85.97418055301226 85.42043581761581 85.05127266068484 84.4667643288775 84.0360739791247 83.45156564731735 82.83629371909906 82.34407617652444 81.66727705548433 80.9289507416224 80.37520600622597 79.60611609595313 78.68320820362571 78.06793627540742 77.26808276872367 76.68357443691632 75.79143014099981 74.93004944149423 74.28401391686504 73.14576084966123 72.4074345357993 71.66910822193736 71.14612708295184 70.34627357626809 69.91558322651528 69.05420252700969 68.592748580846 67.91594945980589 67.45449551364219 66.74693279619117 66.07013367515107 65.60867972898737 65.02417139718 64.43966306537264 64.03973631203075 63.48599157663431 63.08606482329243 62.255447720197765 61.855520966855885 61.39406702069218 60.778795092473906 60.34810474272111 59.732832814502835 59.05603369346274 58.317707379600805 57.6409082585607 57.179454312397 56.68723676982238 55.73356528108405 55.27211133492034 54.626075810291155 53.980040285661964 53.518586339498256 52.9340780076909 52.34956967588353 51.91887932613075 51.33437099432338 50.78062625892693 50.31917231276323 49.76542757736678 49.334737227613985 48.780992492217536 48.22724775682109 47.82732100347921 47.24281267167186 46.84288591832997 45.98150521882439 45.30470609778429 44.6586705731551 43.981871452114994 43.39736312030763 42.8743819813221 41.73612891411829 41.15162058231093 40.290239882805345 39.49038637612159 38.967405237136056 38.25984251968504 37.64457059146676 37.24464383812489 36.66013550631752 36.106390770921074 35.55264603552463 34.66050173960813 34.29133858267716 33.860648232924376 33.614539461637065 33.368430690349754 32.99926753341879 32.814685954953305 32.568577183665994 32.29170481596777 32.1378868339132 31.984068851858634 31.79948727339315 31.676432887749495 31.55337850210584 31.461087712873102 31.338033327229446 31.27650613440762 31.21497894158579 31.12268815235305 31.091924555942136 30.999633766709394 30.907342977476652 30.81505218824391 30.753524995422083 30.66123420618934 30.5689434169566 30.47665262772386 30.415125434902034 30.353598242080206 30.29207104925838 30.23054385643655 30.169016663614723 30.13825306720381 30.07672587438198 30.015198681560154 29.98443508514924 29.953671488738326 29.922907892327412 29.861380699505585 29.83061710309467 29.799853506683757 29.769089910272843 29.769089910272843 29.73832631386193 29.707562717451015 29.707562717451015 29.6767991210401 29.6767991210401 29.6767991210401 29.646035524629188 29.6767991210401 29.646035524629188 29.646035524629188 29.646035524629188 29.646035524629188 29.646035524629188 29.646035524629188 29.646035524629188 29.646035524629188 29.646035524629188 29.615271928218274 29.615271928218274 29.615271928218274 29.615271928218274 29.615271928218274 29.615271928218274 29.615271928218274 29.58450833180736 29.615271928218274 29.615271928218274 29.615271928218274 29.58450833180736 29.58450833180736 29.58450833180736 29.58450833180736 29.58450833180736 29.58450833180736 29.58450833180736 29.58450833180736 29.58450833180736 29.58450833180736 29.58450833180736 29.58450833180736 29.58450833180736 29.58450833180736 29.58450833180736 29.58450833180736 29.58450833180736 29.58450833180736 29.58450833180736 29.58450833180736 29.58450833180736 29.58450833180736 29.58450833180736 29.58450833180736 29.58450833180736 29.58450833180736 29.58450833180736 29.58450833180736 29.58450833180736 29.58450833180736 29.58450833180736 29.58450833180736 29.58450833180736 29.58450833180736 29.58450833180736 29.58450833180736 29.58450833180736 29.58450833180736 29.58450833180736 29.58450833180736 29.58450833180736 29.58450833180736 29.58450833180736 29.553744735396446 29.58450833180736 29.553744735396446 29.553744735396446 29.58450833180736 29.58450833180736 29.58450833180736 29.58450833180736 29.553744735396446 29.58450833180736 29.58450833180736 29.553744735396446 29.58450833180736 29.553744735396446 29.553744735396446 29.553744735396446 29.553744735396446 29.553744735396446 29.553744735396446 29.553744735396446 29.553744735396446 29.553744735396446 29.58450833180736 29.553744735396446 29.553744735396446 29.553744735396446 29.553744735396446 29.553744735396446 29.553744735396446 29.553744735396446 29.553744735396446 29.553744735396446 29.553744735396446 29.553744735396446 29.522981138985532 29.522981138985532 29.522981138985532 29.522981138985532 29.553744735396446 29.522981138985532 29.522981138985532 29.522981138985532 29.522981138985532 29.522981138985532 29.522981138985532 29.522981138985532 29.522981138985532 29.522981138985532 29.522981138985532 29.522981138985532 29.522981138985532 29.522981138985532 29.522981138985532 29.522981138985532 29.522981138985532 29.522981138985532 29.522981138985532 29.522981138985532 29.522981138985532 29.522981138985532 29.522981138985532 29.522981138985532 29.522981138985532 29.522981138985532 29.522981138985532 29.522981138985532 29.522981138985532 29.522981138985532 29.522981138985532 29.522981138985532 29.522981138985532 29.522981138985532 29.522981138985532 29.522981138985532 29.522981138985532 29.522981138985532 29.522981138985532 29.49221754257462 29.522981138985532 29.522981138985532 29.522981138985532 29.522981138985532 29.49221754257462 29.522981138985532 29.522981138985532 29.522981138985532 29.522981138985532 29.522981138985532 29.522981138985532 29.522981138985532 29.522981138985532 29.522981138985532 29.522981138985532 29.522981138985532 29.522981138985532 29.522981138985532 29.522981138985532 29.522981138985532 29.522981138985532 29.522981138985532 29.522981138985532 29.522981138985532 29.522981138985532 29.522981138985532 29.553744735396446 29.553744735396446 29.553744735396446 29.58450833180736 29.58450833180736 29.615271928218274 29.615271928218274 29.646035524629188 29.6767991210401 29.6767991210401 29.707562717451015 29.769089910272843 29.799853506683757 29.83061710309467 29.861380699505585 29.98443508514924 30.107489470792896 30.29207104925838 30.415125434902034 30.507416224134772 30.691997802600255 30.81505218824391 30.96887017029848 31.153451748763963 31.245742537996705 31.399560520051274 31.584142098516754 31.70719648416041 31.922541659036806 32.1378868339132 32.414759201611425 32.72239516572056 33.0300311298297 33.33766709393884 33.64530305804798 33.89141182933528 34.32210217908808 34.66050173960813 34.937374107306354 35.27577366782641 35.61417322834646 35.98333638527742 36.62937190990661 36.998535066837576 37.4907526094122 37.859915766343164 38.19831532686321 38.93664164072514 39.30580479765611 39.890313129463465 40.47482146127083 40.96703900384545 41.490020142830986 41.92071049258377 42.62827321003479 43.305072331074896 43.88958066288225 44.535616187511444 45.21241530855154 45.76616004394799 46.504486357809924 47.33510346090459 47.95037538912287 48.75022889580663 49.45779161325764 50.50375389122871 51.33437099432338 51.91887932613075 52.78026002563632 53.364768357443694 53.94927668925105 54.99523896722212 55.54898370261857 56.37960080571324 57.179454312397 57.8562534334371 58.50228895806629 59.025270097051816 59.76359641091375 60.440395531953854 60.994140267350296 61.6709393883904 62.68613806995056 63.239882805347 63.978209119208934 64.25508148690716 65.2395165720564 65.85478850027468 66.3470060428493 67.20838674235489 67.88518586339498 68.40816700238051 69.08496612342061 69.54642006958431 70.16169199780259 70.86925471525362 71.33070866141732 72.03827137886833 72.6227797106757 73.14576084966123 73.91485075993407 74.34554110968686 74.93004944149423 75.39150338765793 75.729902948178 76.31441127998534 76.71433803332724 77.51419154001098 78.06793627540742 78.65244460721479 79.02160776414576 79.42153451748763 79.75993407800769 80.31367881340414 80.68284197033509 81.1135323200879 81.6057498626625 81.94414942318257 82.40560336934627 82.92858450833181 83.23622047244095 83.72843801501557 84.06683757553562 84.62058231093206 85.1743270463285 85.57425379967039 86.3125801135323 86.7125068668742 87.11243362021608 87.66617835561252 88.06610510895439 88.65061344076176 89.35817615821279 89.75810291155466 90.3118476469511 90.68101080388206 91.08093755722395 91.69620948544222 92.06537264237318 92.5268265885369 92.98828053470059 93.26515290239884 93.6650796557407 94.06500640908259 94.3418787767808 94.68027833730086 94.92638710858817 95.23402307269731 95.54165903680645 95.72624061527193 96.06464017579198 96.24922175425746 96.37227613990112 96.49533052554477 96.55685771836659 96.64914850759935 96.67991210401026 96.67991210401026 96.67991210401026 96.67991210401026 96.67991210401026 96.67991210401026 96.67991210401026 96.67991210401026 96.67991210401026 96.67991210401026 96.67991210401026 96.67991210401026 96.67991210401026 96.67991210401026 96.67991210401026 96.67991210401026 96.67991210401026 96.67991210401026 96.67991210401026 96.67991210401026 96.67991210401026 96.67991210401026 96.67991210401026 96.67991210401026 96.67991210401026 96.67991210401026 96.64914850759935 96.64914850759935 96.64914850759935 96.64914850759935 96.67991210401026 96.64914850759935 96.67991210401026 96.64914850759935 96.64914850759935 96.64914850759935 96.64914850759935 96.64914850759935 96.61838491118841 96.58762131477751 96.55685771836659 96.52609412195568 96.52609412195568 96.49533052554477 96.49533052554477 96.46456692913387 96.43380333272293 96.43380333272293 96.43380333272293 96.46456692913387 96.43380333272293 96.43380333272293 96.43380333272293 96.46456692913387 96.46456692913387 96.46456692913387 96.43380333272293 96.43380333272293 96.43380333272293 96.46456692913387 96.43380333272293 96.43380333272293 96.43380333272293 96.43380333272293 96.43380333272293 96.43380333272293 96.43380333272293 96.43380333272293 96.43380333272293 96.40303973631202 96.40303973631202 96.43380333272293 96.43380333272293 96.43380333272293 96.43380333272293 96.40303973631202 96.40303973631202 96.43380333272293 96.40303973631202 96.43380333272293 96.43380333272293 96.40303973631202 96.40303973631202 96.40303973631202 96.40303973631202 96.40303973631202 96.40303973631202 96.37227613990112 96.37227613990112 96.34151254349021 96.34151254349021 96.34151254349021 96.34151254349021 96.34151254349021 96.34151254349021 96.34151254349021 96.34151254349021 96.31074894707928 96.34151254349021 96.34151254349021 96.34151254349021 96.34151254349021 96.34151254349021 96.34151254349021 96.34151254349021 96.27998535066837 96.24922175425746 96.21845815784656 96.18769456143563 96.15693096502473 96.15693096502473 96.15693096502473 96.15693096502473 96.15693096502473 96.1261673686138 96.1261673686138 96.1261673686138 96.1261673686138 96.1261673686138 96.1261673686138 96.0954037722029 96.06464017579198 96.03387657938107 96.03387657938107 96.03387657938107 96.00311298297014 95.97234938655923 95.97234938655923 95.97234938655923 95.94158579014832 95.8800585973265 95.81853140450467 95.75700421168284 95.69547701886101 95.6647134224501 95.57242263321736 95.48013184398462 95.35707745834097 95.29555026551914 95.23402307269731 95.20325947628639 95.20325947628639 95.20325947628639 95.17249587987548 95.17249587987548 95.17249587987548 95.17249587987548 95.17249587987548 95.20325947628639 95.20325947628639 95.20325947628639 95.20325947628639 95.17249587987548 95.17249587987548 95.14173228346456 95.04944149423183 94.98791430141 94.92638710858817 94.89562351217725 94.80333272294452 94.74180553012269 94.68027833730086 94.61875114447903 94.58798754806811 94.52646035524629 94.49569675883538 94.49569675883538 94.43416956601355 94.43416956601355 94.40340596960263 94.37264237319172 94.37264237319172 94.40340596960263 94.37264237319172 94.37264237319172 94.37264237319172 94.40340596960263 94.40340596960263 94.37264237319172 94.37264237319172 94.3418787767808 94.24958798754807 94.09577000549349 93.97271561984984 93.78813404138435 93.57278886650798 93.14209851675518 92.86522614905695 92.49606299212599 92.21919062442777 91.81926387108588 91.38857352133309 91.08093755722395 90.61948361106025 90.3118476469511 89.81963010437647 89.38893975462369 89.05054019410363 88.34297747665262 88.00457791613258 87.63541475920161 87.11243362021608 86.74327046328511 86.15876213147774 85.54349020325947 84.89745467863028 84.2514191540011 83.72843801501557 83.20545687603003 82.28254898370261 81.75956784471708 81.02124153085515 80.2213880241714 79.69840688518586 78.99084416773485 78.28328145028382 77.7603003112983 77.08350119025819 76.62204724409449 75.9760117194653 75.14539461637062 74.6224134773851 74.1917231276323 73.7610327778795 73.33034242812671 72.71507049990844 72.25361655374473 71.17689067936274 70.71543673319906 70.22321919062442 69.45412928035158 68.90038454495513 68.3466398095587 67.30067753158761 66.74693279619117 65.88555209668559 64.96264420435817 64.31660867972897 63.424464383812484 62.5630836843069 61.947811756088626 61.086431056583045 60.50192272477568 59.70206921809192 58.62534334370994 57.94854422266984 57.39479948727339 56.93334554110969 56.441127998535066 55.79509247390588 55.11829335286578 54.53378502105841 53.980040285661964 53.54934993590917 52.99560520051273 52.56491485075993 52.16498809741805 51.42666178355613 50.995971433803334 50.380699505585056 49.79619117377769 49.365500824024906 48.565647317341146 48.165720563999265 47.765793810657385 47.212049075260936 46.78135872550815 46.16608679728987 45.61234206189343 44.96630653726424 44.32027101263505 43.85881706647134 43.42812671671855 42.812854788500275 42.32063724592565 41.459256546420065 40.81322102179088 40.38253067203809 39.7364951474089 39.275041201245195 38.78282365867057 38.013733748397726 37.459989013001284 36.998535066837576 36.3832631386193 35.737227613990115 35.24501007141549 34.90661051089544 34.50668375755356 34.229811389855335 34.04522981138985 33.76835744369163 33.58377586522615 33.42995788317158 33.09155832265153 32.93774034059696 32.63010437648782 32.47628639443325 32.260941219556855 31.86101446621498 31.64566929133858 31.491851309284012 31.338033327229446 31.245742537996705 31.12268815235305 30.96887017029848 30.845815784654825 30.66123420618934 30.445889031312948 30.353598242080206 30.23054385643655 30.107489470792896 29.98443508514924 29.922907892327412 29.861380699505585 29.83061710309467 29.799853506683757 29.769089910272843 29.73832631386193 29.73832631386193 29.707562717451015 29.6767991210401 29.6767991210401 29.646035524629188 29.646035524629188 29.615271928218274 29.615271928218274 29.58450833180736 29.553744735396446 29.553744735396446 29.553744735396446 29.553744735396446 29.553744735396446 29.553744735396446 29.522981138985532 29.522981138985532 29.522981138985532 29.522981138985532 29.522981138985532 29.522981138985532 29.522981138985532 29.522981138985532 29.522981138985532 29.522981138985532 29.522981138985532 29.522981138985532 29.49221754257462 29.49221754257462 29.49221754257462 29.49221754257462 29.49221754257462 29.49221754257462 29.461453946163708 29.49221754257462 29.461453946163708 29.49221754257462 29.461453946163708 29.461453946163708 29.461453946163708 29.461453946163708 29.461453946163708 29.461453946163708 29.461453946163708 29.430690349752794 29.430690349752794 29.430690349752794 29.430690349752794 29.430690349752794 29.461453946163708 29.430690349752794 29.430690349752794 29.430690349752794 29.430690349752794 29.430690349752794 29.430690349752794 29.39992675334188 29.39992675334188 29.39992675334188 29.39992675334188 29.430690349752794 29.39992675334188 29.39992675334188 29.39992675334188 29.39992675334188 29.39992675334188 29.39992675334188 29.369163156930966 29.369163156930966 29.369163156930966 29.369163156930966 29.338399560520052 29.338399560520052 29.369163156930966 29.369163156930966 29.369163156930966 29.369163156930966 29.369163156930966 29.338399560520052 29.338399560520052 29.369163156930966 29.369163156930966 29.369163156930966 29.369163156930966 29.338399560520052 29.369163156930966 29.369163156930966 29.369163156930966 29.369163156930966 29.369163156930966 29.369163156930966 29.369163156930966 29.369163156930966 29.369163156930966 29.369163156930966 29.369163156930966 29.369163156930966 29.369163156930966 29.369163156930966 29.369163156930966 29.369163156930966 29.369163156930966 29.369163156930966 29.369163156930966 29.369163156930966 29.369163156930966 29.369163156930966 29.369163156930966 29.369163156930966 29.369163156930966 29.369163156930966 29.369163156930966 29.369163156930966 29.369163156930966 29.39992675334188 29.369163156930966 29.369163156930966 29.39992675334188 29.369163156930966 29.39992675334188 29.39992675334188 29.39992675334188 29.39992675334188 29.39992675334188 29.39992675334188 29.39992675334188 29.39992675334188 29.39992675334188 29.39992675334188 29.39992675334188 29.430690349752794 29.430690349752794 29.430690349752794 29.430690349752794 29.430690349752794 29.461453946163708 29.461453946163708 29.49221754257462 29.49221754257462 29.49221754257462 29.522981138985532 29.553744735396446 29.58450833180736 29.615271928218274 29.6767991210401 29.73832631386193 29.799853506683757 29.953671488738326 30.045962277971068 30.07672587438198 30.169016663614723 30.199780260025637 30.261307452847465 30.38436183849112 30.47665262772386 30.630470609778428 30.72276139901117 30.81505218824391 30.96887017029848 31.091924555942136 31.307269730818533 31.461087712873102 31.55337850210584 31.676432887749495 31.830250869804065 31.86101446621498 32.07635964109137 32.19941402673503 32.3532320087896 32.63010437648782 32.78392235854239 32.99926753341879 33.39919428676067 33.7068302508698 33.95293902215711 34.19904779344442 34.537447353964474 34.937374107306354 35.24501007141549 35.82951840322285 36.198681560153815 36.47555392785204 36.998535066837576 37.33693462735763 38.13678813404138 38.75206006225966 39.24427760483428 40.01336751510712 40.47482146127083 41.243911371543675 42.013001281816514 42.72056399926753 43.366599523896724 44.135689434169564 44.72019776597693 45.52005127266068 46.104559604468044 46.965940303973625 47.82732100347921 48.44259293169749 49.27321003479216 50.41146310199597 51.08826222303607 51.73429774766526 52.503387657938106 53.118659586156376 53.918513092840136 54.81065738875664 55.67203808826222 56.53341878776781 57.117927119575164 58.010071415491666 58.59457974729903 59.27137886833913 60.378868339132026 61.17872184581578 61.8862845632668 62.74766526277239 63.39370078740157 64.50119025819447 64.90111701153634 65.60867972898737 66.40853323567111 66.93151437465664 67.7006042849295 68.65427577366782 69.2695477018861 69.88481963010437 70.377037172679 71.05383629371909 71.4845266434719 71.9459805896356 72.80736128914117 73.69950558505768 73.97637795275591 74.46859549533052 74.89928584508331 75.66837575535615 76.25288408716352 76.49899285845083 76.99121040102546 77.32960996154551 77.88335469694195 78.68320820362571 79.0831349569676 79.69840688518586 80.09833363852775 80.49826039186962 81.1135323200879 81.54422266984068 82.34407617652444 82.86705731550998 83.20545687603003 83.60538362937191 83.85149240065923 84.12836476835744 84.68210950375389 84.92821827504119 85.1435634499176 85.358908624794 85.57425379967039 85.91265336019043 86.25105292071049 86.43563449917598 86.7125068668742 86.92785204175058 87.23548800585974 87.54312396996886 87.88152353048892 88.25068668741989 88.4967954587072 88.71214063358359 89.11206738692547 89.35817615821279 89.81963010437647 90.37337483977294 90.65024720747115 91.05017396081303 91.32704632851126 91.57315509979856 92.06537264237318 92.34224501007142 92.68064457059145 92.98828053470059 93.203625709577 93.54202527009704 93.88042483061712 94.18806079472624 94.37264237319172 94.58798754806811 94.89562351217725 95.14173228346456 95.32631386193005 95.57242263321736 95.72624061527193 95.78776780809376 95.8800585973265 95.94158579014832 96.03387657938107 96.0954037722029 