29.0 29.0 29.030763596410914 29.0 29.0 29.0 29.030763596410914 29.030763596410914 29.0 29.0 29.030763596410914 29.0 29.030763596410914 29.0 29.030763596410914 29.030763596410914 29.0 29.030763596410914 29.0 29.0 29.030763596410914 29.0 29.0 29.030763596410914 29.0 29.030763596410914 29.0 29.030763596410914 29.0 29.030763596410914 29.0 29.0 29.030763596410914 29.030763596410914 29.030763596410914 29.0 29.030763596410914 29.0 29.0 29.0 29.0 29.0 29.030763596410914 29.0 29.030763596410914 29.030763596410914 29.030763596410914 29.0 29.030763596410914 29.030763596410914 29.0 29.0 29.030763596410914 29.0 29.030763596410914 29.0 29.0 29.030763596410914 29.0 29.0 29.0 29.0 29.030763596410914 29.0 29.030763596410914 29.030763596410914 29.0 29.030763596410914 29.0 29.030763596410914 29.0 29.030763596410914 29.030763596410914 29.0 29.0 29.0 29.030763596410914 29.0 29.0 29.0 29.0 29.030763596410914 29.0 29.030763596410914 29.0 29.0 29.030763596410914 29.030763596410914 29.030763596410914 29.030763596410914 29.0 29.0 29.030763596410914 29.030763596410914 29.0 29.0 29.030763596410914 29.0 29.0 29.0 29.030763596410914 29.0 29.0 29.0 29.030763596410914 29.0 29.030763596410914 29.030763596410914 29.0 29.0 29.0 29.0 29.030763596410914 29.0 29.0 29.030763596410914 29.0 29.0 29.0 29.030763596410914 29.030763596410914 29.0 29.0 29.0 29.030763596410914 29.030763596410914 29.030763596410914 29.030763596410914 29.0 29.030763596410914 29.0 29.030763596410914 29.030763596410914 29.0 29.0 29.030763596410914 29.030763596410914 29.0 29.030763596410914 29.030763596410914 29.030763596410914 29.0 29.030763596410914 29.0 29.030763596410914 29.030763596410914 29.030763596410914 29.030763596410914 29.0 29.030763596410914 29.0 29.030763596410914 29.030763596410914 29.030763596410914 29.0 29.030763596410914 29.0 29.030763596410914 29.030763596410914 29.030763596410914 29.030763596410914 29.030763596410914 29.0 29.030763596410914 29.0 29.0 29.0 29.030763596410914 29.030763596410914 29.030763596410914 29.0 29.030763596410914 29.0 29.030763596410914 29.030763596410914 29.030763596410914 29.030763596410914 29.0 29.030763596410914 29.0 29.0 29.030763596410914 29.030763596410914 29.0 29.030763596410914 29.030763596410914 29.030763596410914 29.030763596410914 29.0 29.030763596410914 29.030763596410914 29.0 29.0 29.030763596410914 29.0 29.0 29.0 29.030763596410914 29.0 29.0 29.030763596410914 29.030763596410914 29.0 29.030763596410914 29.030763596410914 29.0 29.0 29.030763596410914 29.030763596410914 29.030763596410914 29.030763596410914 29.030763596410914 29.0 29.0 29.0 29.030763596410914 29.030763596410914 29.0 29.0 29.0 29.0 29.030763596410914 29.0 29.0 29.0 29.0 29.030763596410914 29.030763596410914 29.0 29.0 29.0 29.0 29.030763596410914 29.030763596410914 29.030763596410914 29.0 29.030763596410914 29.0 29.030763596410914 29.0 29.030763596410914 29.0 29.030763596410914 29.030763596410914 29.030763596410914 29.030763596410914 29.0 29.030763596410914 29.030763596410914 29.030763596410914 29.0 29.030763596410914 29.030763596410914 29.0 29.030763596410914 29.030763596410914 29.030763596410914 29.030763596410914 29.030763596410914 29.030763596410914 29.030763596410914 29.030763596410914 29.0 29.0 29.0 29.030763596410914 29.030763596410914 29.0 29.030763596410914 29.0 29.030763596410914 29.030763596410914 29.030763596410914 29.030763596410914 29.030763596410914 29.030763596410914 29.030763596410914 29.0 29.030763596410914 29.0 29.030763596410914 29.030763596410914 29.030763596410914 29.0 29.030763596410914 29.0 29.030763596410914 29.0 29.030763596410914 29.030763596410914 29.030763596410914 29.030763596410914 29.030763596410914 29.030763596410914 29.0 29.030763596410914 29.030763596410914 29.0 29.030763596410914 29.030763596410914 29.0 29.030763596410914 29.030763596410914 29.0 29.030763596410914 29.0 29.0 29.030763596410914 29.030763596410914 29.030763596410914 29.030763596410914 29.0 29.0 29.030763596410914 29.0 29.030763596410914 29.0 29.0 29.0 29.0 29.0 29.0 29.0 29.0 29.0 29.0 29.030763596410914 29.030763596410914 29.030763596410914 29.0 29.030763596410914 29.030763596410914 29.0 29.0 29.0 29.0 29.0 29.030763596410914 29.0 29.0 29.0 29.030763596410914 29.030763596410914 29.0 29.0 29.030763596410914 29.0 29.0 29.0 29.030763596410914 29.030763596410914 29.0 29.0 29.030763596410914 29.030763596410914 29.0 29.0 29.030763596410914 29.0 29.030763596410914 29.030763596410914 29.030763596410914 29.030763596410914 29.0 29.030763596410914 29.030763596410914 29.030763596410914 29.030763596410914 29.0 29.030763596410914 29.0 29.0 29.030763596410914 29.030763596410914 29.030763596410914 29.030763596410914 29.030763596410914 29.0 29.0 29.030763596410914 29.0 29.030763596410914 29.030763596410914 29.030763596410914 29.030763596410914 29.030763596410914 29.030763596410914 29.030763596410914 29.0 29.030763596410914 29.030763596410914 29.0 29.030763596410914 29.030763596410914 29.030763596410914 29.0 29.030763596410914 29.030763596410914 29.030763596410914 29.030763596410914 29.030763596410914 29.030763596410914 29.0 29.030763596410914 29.030763596410914 29.0 29.030763596410914 29.0 29.030763596410914 29.030763596410914 29.0 29.030763596410914 29.0 29.0 29.030763596410914 29.0 29.030763596410914 29.0 29.030763596410914 29.030763596410914 29.030763596410914 29.0 29.0 29.0 29.0 29.0 29.0 29.030763596410914 29.0 29.030763596410914 29.030763596410914 29.030763596410914 29.030763596410914 29.0 29.0 29.030763596410914 29.030763596410914 29.030763596410914 29.0 29.030763596410914 29.0 29.030763596410914 29.0 29.030763596410914 29.030763596410914 29.0 29.0 29.030763596410914 29.0 29.030763596410914 29.0 29.030763596410914 29.030763596410914 29.0 29.0 29.0 29.0 29.030763596410914 29.030763596410914 29.0 29.0 29.030763596410914 29.0 29.0 29.0 29.0 29.030763596410914 29.030763596410914 29.030763596410914 29.0 29.030763596410914 29.030763596410914 29.0 29.0 29.030763596410914 29.0 29.0 29.0 29.0 29.030763596410914 29.030763596410914 29.0 29.030763596410914 29.030763596410914 29.030763596410914 29.0 29.0 29.030763596410914 29.030763596410914 29.0 29.030763596410914 29.030763596410914 29.0 29.030763596410914 29.030763596410914 29.0 29.030763596410914 29.030763596410914 29.0 29.030763596410914 29.0 29.030763596410914 29.030763596410914 29.030763596410914 29.030763596410914 29.0 29.0 29.0 29.030763596410914 29.030763596410914 29.0 29.030763596410914 29.030763596410914 29.030763596410914 29.0 29.030763596410914 29.0 29.0 29.030763596410914 29.030763596410914 29.0 29.030763596410914 29.030763596410914 29.0 29.0 29.030763596410914 29.030763596410914 29.030763596410914 29.0 29.030763596410914 29.0 29.030763596410914 29.0 29.030763596410914 29.0 29.030763596410914 29.030763596410914 29.030763596410914 29.030763596410914 29.0 29.0 29.030763596410914 29.030763596410914 29.0 29.030763596410914 29.0 29.0 29.030763596410914 29.0 29.030763596410914 29.030763596410914 29.0 29.0 29.0 29.030763596410914 29.030763596410914 29.030763596410914 29.0 29.0 29.030763596410914 29.030763596410914 29.030763596410914 29.030763596410914 29.030763596410914 29.030763596410914 29.0 29.030763596410914 29.030763596410914 29.030763596410914 29.030763596410914 29.0 29.030763596410914 29.030763596410914 29.030763596410914 29.030763596410914 29.030763596410914 29.030763596410914 29.0 29.030763596410914 29.030763596410914 29.030763596410914 29.030763596410914 29.030763596410914 29.030763596410914 29.030763596410914 29.030763596410914 29.030763596410914 29.123054385643655 29.215345174876397 29.276872367698225 29.369163156930966 29.39992675334188 29.49221754257462 29.553744735396446 29.615271928218274 29.6767991210401 29.73832631386193 29.83061710309467 29.953671488738326 30.169016663614723 30.29207104925838 30.415125434902034 30.507416224134772 30.81505218824391 31.12268815235305 31.430324116462188 31.737960080571323 32.04559604468046 32.3532320087896 32.69163156930965 33.0300311298297 33.42995788317158 33.829884636513455 34.229811389855335 34.69126533601904 35.12195568577184 35.583409631935545 36.106390770921074 36.69089910272844 37.24464383812489 37.859915766343164 38.475187694561434 39.121223219190625 39.79802234023072 40.444057864859914 41.090093389489105 41.797656106940124 42.47445522798022 43.18201794543124 43.88958066288225 44.6586705731551 45.427760483427946 46.28914118293353 47.1197582860282 47.98113898553378 48.873283281450284 49.79619117377769 50.71909906610511 51.64200695843252 52.53415125434902 53.45705914667643 54.31843984618202 55.24134773850943 56.13349203442593 57.08716352316425 58.13312580113532 59.117560886284565 60.1019959714338 60.994140267350296 61.82475737044497 62.59384728071782 63.33217359457974 64.07049990844168 64.80882622230361 65.57791613257645 66.31624244643838 67.11609595312214 67.91594945980589 68.65427577366782 69.42336568394066 70.19245559421351 70.96154550448635 71.76139901117011 72.56125251785386 73.39186962094854 74.22248672404322 75.11463101995972 76.00677531587621 76.8989196117927 77.7603003112983 78.65244460721479 79.54458890313128 80.4674967954587 81.39040468778612 82.2517853872917 83.1439296832082 84.0360739791247 84.86669108221938 85.72807178172496 86.52792528840871 87.35854239150339 88.12763230177623 88.83519501922726 89.54275773667825 90.25032045412928 90.95788317158029 91.54239150338765 92.12689983519502 92.64988097418055 93.08057132393334 93.44973448086432 93.78813404138435 94.03424281267166 94.18806079472624 94.3418787767808 94.37264237319172 94.37264237319172 94.37264237319172 94.37264237319172 94.28035158395897 94.09577000549349 93.78813404138435 93.32668009522065 92.37300860648233 91.4501007141549 90.86559238234756 90.18879326130745 89.32741256180186 88.77366782640541 87.91228712689983 87.11243362021608 86.2818165171214 85.51272660684856 84.89745467863028 84.34370994323385 83.48232924372826 82.95934810474272 82.15949459805896 81.63651345907343 80.86742354880059 80.09833363852775 79.54458890313128 78.71397180003662 77.7910639077092 77.14502838308002 76.06830250869804 75.3299761948361 74.28401391686504 73.26881523530488 72.49972532503205 71.4845266434719 70.71543673319906 69.73100164804981 68.3466398095587 67.76213147775132 66.65464200695843 65.76249771104193 65.0549349935909 64.16279069767441 63.578282365867054 62.65537447353964 61.701702984801315 61.086431056583045 60.16352316425563 59.24061527192821 58.68687053653177 57.917780626258924 57.4255630836843 56.68723676982238 55.948910455960444 55.05676616004395 54.34920344259293 53.918513092840136 53.42629555026552 52.718732832814496 52.16498809741805 51.30360739791247 50.56528108405054 50.042299945065004 49.27321003479216 48.59641091375206 48.011902581944696 47.48892144295917 46.93517670756272 46.25837758652261 45.52005127266068 45.089360922907886 44.381798205456874 43.45889031312946 43.028199963376665 42.38216443874748 42.16681926387108 41.58231093206372 41.05932979307819 40.597875846914484 40.07489470792895 39.644204358176154 39.33656839406702 39.0596960263688 38.721296465848745 38.321369712506865 37.767624977110415 37.4907526094122 37.09082585607032 36.72166269913935 36.352499542208385 36.01409998168833 35.61417322834646 35.36806445705915 34.96813770371727 34.66050173960813 34.35286577549899 34.075993407800766 33.64530305804798 33.42995788317158 33.214612708295185 32.93774034059696 32.72239516572056 32.53781358725508 32.414759201611425 32.23017762314594 32.107123237502286 32.014832448269544 31.891778062625892 31.737960080571323 31.676432887749495 31.522614905694926 31.399560520051274 31.307269730818533 31.21497894158579 31.12268815235305 30.999633766709394 30.87657938106574 30.72276139901117 30.599707013367514 30.445889031312948 30.29207104925838 30.045962277971068 29.953671488738326 29.922907892327412 29.8921442959165 29.83061710309467 29.799853506683757 29.73832631386193 29.73832631386193 29.707562717451015 29.6767991210401 29.6767991210401 29.6767991210401 29.6767991210401 29.6767991210401 29.646035524629188 29.6767991210401 29.6767991210401 29.6767991210401 29.6767991210401 29.6767991210401 29.6767991210401 29.6767991210401 29.6767991210401 29.6767991210401 29.6767991210401 29.707562717451015 29.73832631386193 29.799853506683757 29.8921442959165 30.015198681560154 30.107489470792896 30.169016663614723 30.322834645669293 30.538179820545686 30.599707013367514 30.999633766709394 31.338033327229446 31.584142098516754 31.922541659036806 32.23017762314594 32.72239516572056 33.33766709393884 33.829884636513455 34.537447353964474 35.12195568577184 36.044863578099246 36.998535066837576 38.13678813404138 39.121223219190625 40.16718549716169 40.50558505768174 41.55154733565281 42.28987364951474 43.21278154184215 44.535616187511444 45.15088811572972 46.0122688152353 46.81212232191906 47.39663065372642 48.28877494964292 48.873283281450284 49.70390038454495 50.62680827687237 51.30360739791247 52.16498809741805 53.45705914667643 54.10309467130563 54.74913019593481 55.395165720563995 56.348837209302324 57.27174510162973 58.317707379600805 59.17908807910639 60.07123237502289 60.71726789965207 61.30177623145944 61.947811756088626 62.901483244826956 64.1320271012635 64.80882622230361 65.79326130745284 66.74693279619117 67.45449551364219 68.25434902032595 69.17725691265336 70.16169199780259 71.20765427577366 71.97674418604652 72.99194286760667 74.09943233839957 74.8685222486724 75.94524812305438 76.6528108405054 77.72953671488739 78.80626258926935 79.5753524995422 80.62131477751328 81.63651345907343 82.68247573704448 83.32851126167368 84.00531038271379 85.26661783556125 86.15876213147774 86.77403405969602 87.63541475920161 88.18915949459806 88.92748580845998 89.60428492950008 90.0657388756638 90.58872001464934 91.01941036440212 91.26551913568943 91.48086431056583 91.60391869620949 91.6346822926204 91.6346822926204 91.60391869620949 91.51162790697674 91.17322834645668 90.49642922541659 89.85039370078741 89.26588536898004 88.25068668741989 87.57388756637978 86.92785204175058 85.60501739608131 84.62058231093206 83.94378318989196 83.05163889397545 82.43636696575717 81.66727705548433 80.80589635597875 80.09833363852775 79.51382530672038 78.74473539644754 78.22175425746201 77.48342794360008 76.71433803332724 76.1913568943417 75.45303058047976 74.93004944149423 74.13019593481047 73.33034242812671 72.37667093938839 71.4845266434719 70.80772752243178 69.79252884087163 68.8388573521333 68.03900384544954 67.08533235671122 66.03937007874015 65.27028016846731 64.16279069767441 63.424464383812484 62.409265702252334 60.96337667093938 60.3173411463102 59.45596044680461 58.71763413294268 57.61014466214979 56.53341878776781 55.76432887749496 54.2876762497711 53.18018677897821 52.47262406152719 51.67277055484343 50.87291704815968 49.888481963010435 48.50412012451932 47.765793810657385 46.68906793627541 45.735396447537084 44.96630653726424 44.28950741622413 43.42812671671855 42.505218824391136 41.490020142830986 40.597875846914484 39.95184032228529 39.028932429957884 38.10602453763047 37.4907526094122 36.84471708478301 35.89104559604468 35.029664896539096 34.26057498626625 33.2453763047061 32.59934078007691 32.23017762314594 31.922541659036806 31.676432887749495 31.430324116462188 31.21497894158579 31.12268815235305 30.96887017029848 30.845815784654825 30.691997802600255 30.507416224134772 30.353598242080206 30.199780260025637 29.98443508514924 29.83061710309467 29.707562717451015 29.6767991210401 29.646035524629188 29.646035524629188 29.615271928218274 29.615271928218274 29.615271928218274 29.615271928218274 29.615271928218274 29.615271928218274 29.615271928218274 29.58450833180736 29.58450833180736 29.58450833180736 29.553744735396446 29.553744735396446 29.522981138985532 29.49221754257462 29.461453946163708 29.430690349752794 29.430690349752794 29.369163156930966 29.369163156930966 29.369163156930966 29.369163156930966 29.338399560520052 29.338399560520052 29.338399560520052 29.369163156930966 29.338399560520052 29.338399560520052 29.338399560520052 29.338399560520052 29.338399560520052 29.338399560520052 29.338399560520052 29.369163156930966 29.338399560520052 29.338399560520052 29.338399560520052 29.338399560520052 29.369163156930966 29.338399560520052 29.338399560520052 29.338399560520052 29.338399560520052 29.338399560520052 29.338399560520052 29.338399560520052 29.338399560520052 29.338399560520052 29.338399560520052 29.338399560520052 29.338399560520052 29.338399560520052 29.338399560520052 29.338399560520052 29.338399560520052 29.30763596410914 29.30763596410914 29.30763596410914 29.338399560520052 29.30763596410914 29.30763596410914 29.30763596410914 29.30763596410914 29.30763596410914 29.30763596410914 29.30763596410914 29.30763596410914 29.30763596410914 29.30763596410914 29.30763596410914 29.30763596410914 29.30763596410914 29.30763596410914 29.30763596410914 29.30763596410914 29.30763596410914 29.30763596410914 29.30763596410914 29.30763596410914 29.30763596410914 29.30763596410914 29.30763596410914 29.30763596410914 29.30763596410914 29.30763596410914 29.30763596410914 29.30763596410914 29.30763596410914 29.30763596410914 29.276872367698225 29.30763596410914 29.30763596410914 29.30763596410914 29.30763596410914 29.30763596410914 29.30763596410914 29.30763596410914 29.30763596410914 29.30763596410914 29.30763596410914 29.30763596410914 29.30763596410914 29.30763596410914 29.30763596410914 29.30763596410914 29.30763596410914 29.276872367698225 29.30763596410914 29.30763596410914 29.30763596410914 29.30763596410914 29.276872367698225 29.30763596410914 29.30763596410914 29.30763596410914 29.276872367698225 29.276872367698225 29.276872367698225 29.276872367698225 29.276872367698225 29.30763596410914 29.30763596410914 29.30763596410914 29.30763596410914 29.30763596410914 29.276872367698225 29.30763596410914 29.30763596410914 29.30763596410914 29.30763596410914 29.30763596410914 29.276872367698225 29.30763596410914 29.30763596410914 29.276872367698225 29.276872367698225 29.276872367698225 29.276872367698225 29.276872367698225 29.276872367698225 29.276872367698225 29.276872367698225 29.30763596410914 29.276872367698225 29.276872367698225 29.276872367698225 29.276872367698225 29.276872367698225 29.276872367698225 29.276872367698225 
