25.0 25.021973997436366 25.0 25.021973997436366 25.021973997436366 25.021973997436366 25.021973997436366 25.021973997436366 25.0 25.021973997436366 25.021973997436366 25.021973997436366 25.021973997436366 25.021973997436366 25.021973997436366 25.021973997436366 25.021973997436366 25.021973997436366 25.021973997436366 25.021973997436366 25.021973997436366 25.021973997436366 25.021973997436366 25.021973997436366 25.021973997436366 25.021973997436366 25.021973997436366 25.021973997436366 25.021973997436366 25.021973997436366 25.021973997436366 25.021973997436366 25.0 25.021973997436366 25.021973997436366 25.021973997436366 25.021973997436366 25.021973997436366 25.0 25.0 25.021973997436366 25.021973997436366 25.021973997436366 25.0 25.021973997436366 25.021973997436366 25.021973997436366 25.021973997436366 25.021973997436366 25.021973997436366 25.021973997436366 25.021973997436366 25.021973997436366 25.021973997436366 25.021973997436366 25.021973997436366 25.021973997436366 25.021973997436366 25.021973997436366 25.021973997436366 25.021973997436366 25.021973997436366 25.021973997436366 25.021973997436366 25.021973997436366 25.021973997436366 25.021973997436366 25.021973997436366 25.021973997436366 25.021973997436366 25.021973997436366 25.021973997436366 25.021973997436366 25.021973997436366 25.021973997436366 25.021973997436366 25.021973997436366 25.021973997436366 25.021973997436366 25.021973997436366 25.0 25.021973997436366 25.021973997436366 25.021973997436366 25.021973997436366 25.021973997436366 25.0 25.021973997436366 25.021973997436366 25.021973997436366 25.021973997436366 25.021973997436366 25.021973997436366 25.021973997436366 25.021973997436366 25.021973997436366 25.0 25.021973997436366 25.021973997436366 25.021973997436366 25.021973997436366 25.021973997436366 25.021973997436366 25.021973997436366 25.021973997436366 25.021973997436366 25.021973997436366 25.021973997436366 25.021973997436366 25.021973997436366 25.0 25.021973997436366 25.021973997436366 25.021973997436366 25.021973997436366 25.021973997436366 25.021973997436366 25.021973997436366 25.021973997436366 25.021973997436366 25.021973997436366 25.0 25.021973997436366 25.021973997436366 25.021973997436366 25.021973997436366 25.021973997436366 25.021973997436366 25.021973997436366 25.021973997436366 25.021973997436366 25.021973997436366 25.021973997436366 25.021973997436366 25.021973997436366 25.021973997436366 25.021973997436366 25.021973997436366 25.021973997436366 25.021973997436366 25.021973997436366 25.021973997436366 25.021973997436366 25.021973997436366 25.021973997436366 25.021973997436366 25.021973997436366 25.021973997436366 25.021973997436366 25.021973997436366 25.021973997436366 25.021973997436366 25.021973997436366 25.021973997436366 25.021973997436366 25.021973997436366 25.021973997436366 25.021973997436366 25.021973997436366 25.021973997436366 25.021973997436366 25.0 25.021973997436366 25.021973997436366 25.021973997436366 25.021973997436366 25.021973997436366 25.021973997436366 25.021973997436366 25.021973997436366 25.021973997436366 25.021973997436366 25.021973997436366 25.021973997436366 25.021973997436366 25.021973997436366 25.021973997436366 25.021973997436366 25.0 25.021973997436366 25.021973997436366 25.021973997436366 25.021973997436366 25.021973997436366 25.0 25.021973997436366 25.021973997436366 25.021973997436366 25.021973997436366 25.021973997436366 25.021973997436366 25.021973997436366 25.021973997436366 25.021973997436366 25.021973997436366 25.021973997436366 25.021973997436366 25.021973997436366 25.021973997436366 25.021973997436366 25.021973997436366 25.021973997436366 25.021973997436366 25.021973997436366 25.021973997436366 25.021973997436366 25.021973997436366 25.021973997436366 25.021973997436366 25.021973997436366 25.0 25.021973997436366 25.021973997436366 25.021973997436366 25.021973997436366 25.021973997436366 25.021973997436366 25.021973997436366 25.021973997436366 25.021973997436366 25.021973997436366 25.021973997436366 25.021973997436366 25.021973997436366 25.021973997436366 25.021973997436366 25.021973997436366 25.021973997436366 25.021973997436366 25.021973997436366 25.021973997436366 25.021973997436366 25.021973997436366 25.021973997436366 25.021973997436366 25.021973997436366 25.021973997436366 25.021973997436366 25.021973997436366 25.021973997436366 25.021973997436366 25.021973997436366 25.021973997436366 25.021973997436366 25.021973997436366 25.021973997436366 25.021973997436366 25.021973997436366 25.021973997436366 25.021973997436366 25.021973997436366 25.021973997436366 25.021973997436366 25.021973997436366 25.021973997436366 25.021973997436366 25.021973997436366 25.021973997436366 25.021973997436366 25.021973997436366 25.021973997436366 25.021973997436366 25.021973997436366 25.021973997436366 25.021973997436366 25.021973997436366 25.021973997436366 25.021973997436366 25.021973997436366 25.021973997436366 25.021973997436366 25.021973997436366 25.021973997436366 25.021973997436366 25.021973997436366 25.021973997436366 25.021973997436366 25.021973997436366 25.021973997436366 25.021973997436366 25.021973997436366 25.021973997436366 25.021973997436366 25.021973997436366 25.021973997436366 25.021973997436366 25.021973997436366 25.021973997436366 25.021973997436366 25.021973997436366 25.021973997436366 25.021973997436366 25.021973997436366 25.021973997436366 25.021973997436366 25.021973997436366 25.021973997436366 25.021973997436366 25.021973997436366 25.021973997436366 25.021973997436366 25.021973997436366 25.021973997436366 25.021973997436366 25.021973997436366 25.021973997436366 25.021973997436366 25.021973997436366 25.021973997436366 25.021973997436366 25.021973997436366 25.021973997436366 25.021973997436366 25.021973997436366 25.021973997436366 25.021973997436366 25.021973997436366 25.021973997436366 25.0 25.021973997436366 25.021973997436366 25.021973997436366 25.021973997436366 25.021973997436366 25.021973997436366 25.021973997436366 25.021973997436366 25.021973997436366 25.021973997436366 25.021973997436366 25.021973997436366 25.021973997436366 25.021973997436366 25.021973997436366 25.021973997436366 25.021973997436366 25.021973997436366 25.021973997436366 25.021973997436366 25.021973997436366 25.021973997436366 25.021973997436366 25.021973997436366 25.021973997436366 25.021973997436366 25.021973997436366 25.021973997436366 25.021973997436366 25.021973997436366 25.021973997436366 25.021973997436366 25.021973997436366 25.021973997436366 25.021973997436366 25.021973997436366 25.021973997436366 25.021973997436366 25.021973997436366 25.021973997436366 25.021973997436366 25.021973997436366 25.021973997436366 25.021973997436366 25.021973997436366 25.021973997436366 25.021973997436366 25.021973997436366 25.021973997436366 25.021973997436366 25.021973997436366 25.021973997436366 25.021973997436366 25.021973997436366 25.021973997436366 25.021973997436366 25.021973997436366 25.021973997436366 25.021973997436366 25.021973997436366 25.021973997436366 25.021973997436366 25.021973997436366 25.021973997436366 25.021973997436366 25.021973997436366 25.021973997436366 25.021973997436366 25.021973997436366 25.021973997436366 25.021973997436366 25.021973997436366 25.021973997436366 25.021973997436366 25.021973997436366 25.021973997436366 25.021973997436366 25.021973997436366 25.021973997436366 25.021973997436366 25.021973997436366 25.021973997436366 25.021973997436366 25.021973997436366 25.021973997436366 25.021973997436366 25.021973997436366 25.021973997436366 25.021973997436366 25.021973997436366 25.021973997436366 25.021973997436366 25.021973997436366 25.021973997436366 25.021973997436366 25.021973997436366 25.021973997436366 25.021973997436366 25.021973997436366 25.021973997436366 25.021973997436366 25.021973997436366 25.021973997436366 25.021973997436366 25.021973997436366 25.021973997436366 25.021973997436366 25.021973997436366 25.021973997436366 25.021973997436366 25.021973997436366 25.021973997436366 25.021973997436366 25.021973997436366 25.021973997436366 25.021973997436366 25.021973997436366 25.021973997436366 25.021973997436366 25.021973997436366 25.021973997436366 25.021973997436366 25.021973997436366 25.021973997436366 25.021973997436366 25.021973997436366 25.021973997436366 25.021973997436366 25.021973997436366 25.021973997436366 25.021973997436366 25.021973997436366 25.021973997436366 25.021973997436366 25.021973997436366 25.021973997436366 25.021973997436366 25.021973997436366 25.021973997436366 25.021973997436366 25.021973997436366 25.021973997436366 25.021973997436366 25.021973997436366 25.021973997436366 25.021973997436366 25.021973997436366 25.021973997436366 25.021973997436366 25.021973997436366 25.021973997436366 25.021973997436366 25.021973997436366 25.021973997436366 25.021973997436366 25.021973997436366 25.021973997436366 25.021973997436366 25.021973997436366 25.021973997436366 25.021973997436366 25.021973997436366 25.021973997436366 25.021973997436366 25.021973997436366 25.021973997436366 25.021973997436366 25.021973997436366 25.021973997436366 25.021973997436366 25.021973997436366 25.021973997436366 25.021973997436366 25.021973997436366 25.021973997436366 25.021973997436366 25.021973997436366 25.021973997436366 25.021973997436366 25.021973997436366 25.021973997436366 25.021973997436366 25.021973997436366 25.021973997436366 25.021973997436366 25.021973997436366 25.021973997436366 25.021973997436366 25.021973997436366 25.021973997436366 25.021973997436366 25.021973997436366 25.021973997436366 25.021973997436366 25.021973997436366 25.021973997436366 25.0 25.021973997436366 25.021973997436366 25.021973997436366 25.021973997436366 25.021973997436366 25.021973997436366 25.021973997436366 25.021973997436366 25.021973997436366 25.021973997436366 25.021973997436366 25.021973997436366 25.021973997436366 25.021973997436366 25.021973997436366 25.021973997436366 25.021973997436366 25.021973997436366 25.021973997436366 25.021973997436366 25.021973997436366 25.021973997436366 25.021973997436366 25.021973997436366 25.021973997436366 25.021973997436366 25.021973997436366 25.021973997436366 25.021973997436366 25.021973997436366 25.021973997436366 25.021973997436366 25.021973997436366 25.021973997436366 25.021973997436366 25.021973997436366 25.021973997436366 25.021973997436366 25.021973997436366 25.021973997436366 25.021973997436366 25.021973997436366 25.021973997436366 25.021973997436366 25.021973997436366 25.021973997436366 25.021973997436366 25.021973997436366 25.021973997436366 25.021973997436366 25.021973997436366 25.021973997436366 25.021973997436366 25.021973997436366 25.021973997436366 25.021973997436366 25.021973997436366 25.021973997436366 25.021973997436366 25.021973997436366 25.021973997436366 25.021973997436366 25.021973997436366 25.021973997436366 25.021973997436366 25.021973997436366 25.021973997436366 25.021973997436366 25.021973997436366 25.021973997436366 25.021973997436366 25.021973997436366 25.021973997436366 25.021973997436366 25.021973997436366 25.021973997436366 25.021973997436366 25.021973997436366 25.021973997436366 25.021973997436366 25.021973997436366 25.021973997436366 25.021973997436366 25.021973997436366 25.021973997436366 25.021973997436366 25.021973997436366 25.021973997436366 25.043947994872735 25.043947994872735 25.0659219923091 25.08789598974547 25.08789598974547 25.109869987181835 25.1318439846182 25.15381798205457 25.15381798205457 25.15381798205457 25.175791979490935 25.175791979490935 25.197765976927304 25.197765976927304 25.197765976927304 25.197765976927304 25.197765976927304 25.197765976927304 25.197765976927304 25.21973997436367 25.21973997436367 25.21973997436367 25.241713971800035 25.241713971800035 25.263687969236404 25.28566196667277 25.28566196667277 25.30763596410914 25.329609961545504 25.35158395898187 25.395531953854604 25.43947994872734 25.483427943600073 25.50540194103644 25.549349935909174 25.593297930781908 25.637245925654643 25.65921992309101 25.703167917963743 25.769089910272843 25.813037905145578 25.878959897454678 25.966855887200147 26.098699871818347 26.23054385643655 26.42830983336385 26.73594579747299 27.087529756454863 27.483061710309467 27.87859366416407 28.31807361289141 28.801501556491484 29.306903497527927 29.812305438564366 30.317707379600805 30.801135323200878 31.328511261673686 31.81193920527376 32.27339315143747 32.800769089910276 33.306171030946714 33.83354696941952 34.38289690532869 34.9102728438015 35.50357077458341 36.07489470792895 36.668192638710856 37.28346456692913 37.87676249771104 38.51400842336568 39.12928035158396 39.7665262772386 40.35982420802051 40.97509613623878 41.59036806445706 42.20563999267533 42.82091192089361 43.45815784654825 44.11737776963926 44.77659769273027 45.45779161325764 46.13898553378502 46.820179454312395 47.54532136971251 48.24848928767625 48.97363120307636 49.69877311847647 50.40194103644021 51.12708295184032 51.8082768723677 52.51144479033144 53.214612708295185 53.91778062625893 54.57700054934993 55.25819446987731 56.115180369895626 56.796374290423 57.76323017762314 58.40047610327779 59.367331990477936 60.312213880241714 61.30104376487823 62.20197765976927 62.79527559055118 63.388573521333086 64.22358542391504 64.7729353598242 65.56399926753342 66.55282915216993 67.01428309833364 67.71745101629739 68.17890496246109 68.61838491118843 69.21168284197034 69.73905878044314 70.24446072147958 70.79381065738875 71.14539461637062 71.65079655740706 72.1561984984435 72.44186046511629 72.85936641640725 73.12305438564366 73.4306903497528 73.67240432155283 73.8262223036074 74.04596227797106 74.11188427028017 74.15583226515291 74.17780626258927 74.17780626258927 74.17780626258927 74.17780626258927 74.17780626258927 74.15583226515291 74.15583226515291 74.15583226515291 74.13385826771653 74.13385826771653 74.13385826771653 74.11188427028017 74.13385826771653 74.13385826771653 74.13385826771653 74.13385826771653 74.13385826771653 74.13385826771653 74.11188427028017 74.11188427028017 74.08991027284381 74.06793627540745 74.04596227797106 74.0239882805347 73.98004028566197 73.95806628822561 73.91411829335286 73.91411829335286 73.8921442959165 73.87017029848013 73.84819630104377 73.8262223036074 73.73832631386193 73.6943783189892 73.60648232924373 73.47463834462553 73.38674235488006 73.25489837026186 73.16700238051638 73.05713239333456 72.94726240615272 72.90331441127998 72.8373924189709 72.79344442409815 72.77147042666178 72.74949642922542 72.72752243178905 72.72752243178905 72.72752243178905 72.70554843435269 72.68357443691632 72.66160043947995 72.63962644204358 72.61765244460722 72.59567844717085 72.59567844717085 72.59567844717085 72.59567844717085 72.59567844717085 72.59567844717085 72.57370444973449 72.59567844717085 72.59567844717085 72.59567844717085 72.59567844717085 72.59567844717085 72.59567844717085 72.59567844717085 72.59567844717085 72.59567844717085 72.59567844717085 72.59567844717085 72.59567844717085 72.59567844717085 72.59567844717085 72.59567844717085 72.59567844717085 72.59567844717085 72.59567844717085 72.59567844717085 72.59567844717085 72.59567844717085 72.59567844717085 72.59567844717085 72.59567844717085 72.59567844717085 72.59567844717085 72.59567844717085 72.59567844717085 72.59567844717085 72.59567844717085 72.59567844717085 72.59567844717085 72.59567844717085 72.59567844717085 72.59567844717085 72.59567844717085 72.59567844717085 72.59567844717085 72.59567844717085 72.59567844717085 72.59567844717085 72.59567844717085 72.59567844717085 72.59567844717085 72.59567844717085 72.59567844717085 72.59567844717085 72.59567844717085 72.59567844717085 72.59567844717085 72.59567844717085 72.59567844717085 72.59567844717085 72.61765244460722 72.59567844717085 72.61765244460722 72.61765244460722 72.61765244460722 72.61765244460722 72.61765244460722 72.61765244460722 72.61765244460722 72.61765244460722 72.59567844717085 72.57370444973449 72.57370444973449 72.52975645486175 72.52975645486175 72.52975645486175 72.52975645486175 72.50778245742538 72.50778245742538 72.50778245742538 72.50778245742538 72.50778245742538 72.50778245742538 72.50778245742538 72.50778245742538 72.50778245742538 72.50778245742538 72.50778245742538 72.50778245742538 72.50778245742538 72.48580845998902 72.50778245742538 72.48580845998902 72.48580845998902 72.48580845998902 72.48580845998902 72.48580845998902 72.48580845998902 72.46383446255265 72.48580845998902 72.48580845998902 72.48580845998902 72.48580845998902 72.48580845998902 72.48580845998902 72.48580845998902 72.48580845998902 72.48580845998902 72.46383446255265 72.46383446255265 72.44186046511629 72.44186046511629 72.44186046511629 72.44186046511629 72.44186046511629 72.44186046511629 72.44186046511629 72.44186046511629 72.44186046511629 72.44186046511629 72.44186046511629 72.44186046511629 72.4198864676799 72.39791247024354 72.37593847280718 72.37593847280718 72.35396447537082 72.31001648049809 72.2880424830617 72.26606848562534 72.26606848562534 72.24409448818898 72.24409448818898 72.24409448818898 72.26606848562534 72.26606848562534 72.24409448818898 72.24409448818898 72.26606848562534 72.24409448818898 72.26606848562534 72.26606848562534 72.26606848562534 72.26606848562534 72.26606848562534 72.26606848562534 72.26606848562534 72.26606848562534 72.26606848562534 72.20014649331624 72.09027650613442 72.00238051638894 71.84856253433438 71.58487456509798 71.27723860098882 70.92565464200696 70.68394067020692 70.28840871635232 69.87090276506135 69.51931880607947 69.07983885735213 68.59641091375207 68.26680095220655 67.78337300860647 67.27797106757004 66.88243911371544 66.377037172679 65.78373924189708 65.38820728804248 64.79490935726056 64.3774034059696 63.784105475187694 63.212781541842155 62.79527559055118 62.22395165720564 61.69657571873283 61.14722578282366 60.641823841787215 60.48800585973265 59.850759934078006 59.54312396996887 59.21351400842337 58.59824208020509 58.29060611609595 57.82915216993224 57.27980223402307 56.950192272477565 56.400842336568395 56.02728438015016 55.49990844167735 54.95055850576817 54.55502655191357 53.961728621131655 53.192638710858816 52.797106757004215 52.2038088262223 51.76432887749496 51.36879692364036 50.77549899285845 50.379967039003844 49.63285112616737 49.12744918513093 48.73191723127633 48.11664530305805 47.94085332356711 47.4134773850943 46.886101446621495 46.534517487639626 45.985167551730456 45.43581761582128 45.10620765427578 44.44698773118476 44.09540377220289 43.765793810657385 43.282365867057315 42.95275590551181 42.44735396447537 41.98590001831167 41.48049807727523 41.019044131111514 40.73338216443875 40.469694195202344 40.074162241347736 39.810474272111335 39.32704632851126 38.90954037722029 38.60190441311115 38.20637245925654 37.92071049258378 37.65702252334737 37.1076725874382 36.712140633583594 36.470426661783556 36.07489470792895 35.83318073612892 35.45962277971068 35.21790880791064 34.8443508514924 34.44881889763779 34.11920893609229 33.74565097967405 33.32814502838308 32.998535066837576 32.14154916681926 31.96575718732833 31.65812122321919 31.35048525911005 30.976927302691813 30.383629371909905 30.054019410364404 29.680461453946165 29.175059512909723 28.669657571873284 28.362021607764145 27.856619666727706 27.483061710309467 26.757919794909355 26.60410181285479 26.45028383080022 26.318439846182017 26.186595861563816 26.032777879509247 25.878959897454678 25.856985900018312 25.944881889763778 26.032777879509247 26.07672587438198 26.098699871818347 26.07672587438198 26.032777879509247 26.01080388207288 25.988829884636512 25.922907892327412 25.900933894891047 25.835011902581943 25.791063907709212 25.791063907709212 25.813037905145578 25.813037905145578 25.791063907709212 25.791063907709212 25.769089910272843 25.747115912836477 25.747115912836477 25.72514191540011 25.703167917963743 25.681193920527377 25.65921992309101 25.637245925654643 25.615271928218274 25.593297930781908 25.549349935909174 25.527375938472808 25.50540194103644 25.483427943600073 25.483427943600073 25.461453946163708 25.43947994872734 25.43947994872734 25.417505951290973 25.395531953854604 25.37355795641824 25.35158395898187 25.35158395898187 25.329609961545504 25.30763596410914 25.28566196667277 25.263687969236404 25.241713971800035 25.21973997436367 25.21973997436367 25.21973997436367 25.21973997436367 25.21973997436367 25.197765976927304 25.197765976927304 25.197765976927304 25.197765976927304 25.197765976927304 25.175791979490935 25.197765976927304 25.175791979490935 25.175791979490935 25.175791979490935 25.175791979490935 25.175791979490935 25.175791979490935 25.175791979490935 25.175791979490935 25.175791979490935 25.175791979490935 25.15381798205457 25.15381798205457 25.175791979490935 25.15381798205457 25.15381798205457 25.15381798205457 25.175791979490935 25.15381798205457 25.15381798205457 25.15381798205457 25.15381798205457 25.15381798205457 25.15381798205457 25.15381798205457 25.15381798205457 25.15381798205457 25.15381798205457 25.15381798205457 25.15381798205457 25.15381798205457 25.15381798205457 25.15381798205457 25.15381798205457 25.15381798205457 25.15381798205457 25.15381798205457 25.15381798205457 25.15381798205457 25.15381798205457 25.15381798205457 25.15381798205457 25.15381798205457 25.15381798205457 25.15381798205457 25.15381798205457 25.15381798205457 25.15381798205457 25.15381798205457 25.1318439846182 25.15381798205457 25.1318439846182 25.1318439846182 25.15381798205457 25.15381798205457 25.1318439846182 25.1318439846182 25.15381798205457 25.1318439846182 25.15381798205457 25.1318439846182 25.1318439846182 25.1318439846182 25.1318439846182 25.1318439846182 25.1318439846182 25.1318439846182 25.1318439846182 25.1318439846182 25.1318439846182 25.1318439846182 25.1318439846182 25.1318439846182 25.1318439846182 25.1318439846182 25.1318439846182 25.1318439846182 25.1318439846182 25.1318439846182 25.1318439846182 25.109869987181835 25.1318439846182 25.1318439846182 25.1318439846182 25.109869987181835 25.1318439846182 25.109869987181835 25.1318439846182 25.109869987181835 25.1318439846182 25.109869987181835 25.1318439846182 25.1318439846182 25.109869987181835 25.1318439846182 25.109869987181835 25.109869987181835 25.109869987181835 25.1318439846182 25.109869987181835 25.1318439846182 25.109869987181835 25.109869987181835 25.1318439846182 25.109869987181835 25.109869987181835 25.109869987181835 25.109869987181835 25.109869987181835 25.109869987181835 25.109869987181835 25.109869987181835 25.109869987181835 25.109869987181835 25.109869987181835 25.109869987181835 25.109869987181835 25.109869987181835 25.109869987181835 25.109869987181835 25.109869987181835 25.109869987181835 25.109869987181835 25.109869987181835 25.109869987181835 25.109869987181835 25.109869987181835 25.109869987181835 25.109869987181835 25.109869987181835 25.109869987181835 25.109869987181835 25.109869987181835 25.109869987181835 25.109869987181835 25.109869987181835 25.109869987181835 25.109869987181835 25.109869987181835 25.109869987181835 25.109869987181835 25.08789598974547 25.109869987181835 25.109869987181835 25.109869987181835 25.08789598974547 25.109869987181835 25.109869987181835 25.08789598974547 25.109869987181835 25.109869987181835 25.109869987181835 25.109869987181835 25.109869987181835 25.08789598974547 25.109869987181835 25.109869987181835 25.08789598974547 25.08789598974547 25.08789598974547 25.109869987181835 25.08789598974547 25.08789598974547 25.08789598974547 25.08789598974547 25.08789598974547 25.08789598974547 25.08789598974547 25.08789598974547 25.08789598974547 25.08789598974547 25.08789598974547 25.08789598974547 25.08789598974547 25.08789598974547 25.08789598974547 25.08789598974547 25.08789598974547 25.08789598974547 25.08789598974547 25.08789598974547 25.08789598974547 25.08789598974547 25.08789598974547 25.08789598974547 25.08789598974547 25.08789598974547 25.08789598974547 25.08789598974547 25.08789598974547 25.0659219923091 25.08789598974547 25.08789598974547 25.08789598974547 25.08789598974547 25.08789598974547 25.08789598974547 25.08789598974547 25.08789598974547 25.08789598974547 25.08789598974547 25.08789598974547 25.0659219923091 25.08789598974547 25.08789598974547 25.08789598974547 25.0659219923091 25.08789598974547 25.0659219923091 25.08789598974547 25.08789598974547 25.08789598974547 25.0659219923091 25.08789598974547 25.08789598974547 25.0659219923091 25.0659219923091 25.08789598974547 25.0659219923091 25.08789598974547 25.08789598974547 25.0659219923091 25.08789598974547 25.08789598974547 25.0659219923091 25.08789598974547 25.0659219923091 25.08789598974547 25.08789598974547 25.08789598974547 25.08789598974547 25.08789598974547 25.08789598974547 25.08789598974547 25.08789598974547 25.08789598974547 25.109869987181835 25.109869987181835 25.109869987181835 25.109869987181835 25.1318439846182 25.1318439846182 25.1318439846182 25.15381798205457 25.175791979490935 25.197765976927304 25.197765976927304 25.21973997436367 25.241713971800035 25.28566196667277 25.329609961545504 25.395531953854604 25.50540194103644 25.571323933345543 25.747115912836477 25.856985900018312 25.988829884636512 26.186595861563816 26.42830983336385 26.867789782091194 27.373191723127633 27.724775682109502 28.34004761032778 29.19703351034609 29.680461453946165 30.163889397546235 30.823109320637247 31.28456326680095 32.0536531770738 32.55905511811024 33.54788500274675 34.27302691814686 34.75645486174693 35.52554477201978 36.03094671305622 36.73411463101996 37.48123054385644 38.03058047976561 38.66782640542025 39.4369163156931 39.964292254165905 40.99707013367515 41.32668009522065 42.05182201062077 42.864859915766345 43.414209851675515 44.271195751693824 45.41384361838491 46.380699505585056 46.86412744918513 47.457425379967034 48.05072331074895 48.90770921076726 49.786669108221936 50.68760300311298 51.28090093389489 52.1378868339132 53.03882072880425 53.654092657022524 54.62094854422267 55.74162241347739 56.13715436733199 57.016114264786665 57.65336019044131 58.62021607764146 59.872733931514375 60.509979857169014 61.14722578282366 61.9822376854056 62.57553561618751 63.432521516205824 63.95989745467863 65.01464933162424 65.717817249588 66.20124519318806 66.88243911371544 67.27797106757004 67.67350302142464 68.42061893426111 68.75022889580663 69.2336568394067 69.6951107855704 70.00274674967955 70.42025270097052 70.79381065738875 71.0355246291888 71.32118659586156 71.4969785753525 71.67277055484342 71.80461453946164 71.84856253433438 71.91448452664348 71.93645852407984 71.93645852407984 71.91448452664348 71.91448452664348 71.91448452664348 71.91448452664348 71.93645852407984 71.93645852407984 71.91448452664348 71.91448452664348 71.8925105292071 71.87053653177074 71.8925105292071 71.8925105292071 71.8925105292071 71.87053653177074 71.8925105292071 71.8925105292071 71.8925105292071 71.8925105292071 71.87053653177074 71.87053653177074 71.87053653177074 71.87053653177074 71.82658853689802 71.80461453946164 71.73869254715254 71.67277055484342 71.51895257278886 71.40908258560702 71.32118659586156 71.21131660867974 71.12342061893426 71.05749862662516 70.99157663431606 70.9696026368797 70.92565464200696 70.85973264969786 70.81578465482514 70.79381065738875 70.74986266251602 70.68394067020692 70.66196667277055 70.63999267533418 70.63999267533418 70.61801867789782 70.59604468046146 70.57407068302508 70.57407068302508 70.50814869071598 70.46420069584326 70.42025270097052 70.39827870353415 70.39827870353415 70.39827870353415 70.37630470609778 70.35433070866142 70.33235671122506 70.26643471891595 70.24446072147958 70.20051272660686 70.15656473173412 70.13459073429775 70.09064273942502 70.06866874198866 70.04669474455227 70.02472074711591 70.02472074711591 70.00274674967955 69.98077275224318 69.93682475737045 69.91485075993407 69.87090276506135 69.8269547701886 69.7610327778795 69.71708478300678 69.65116279069767 69.60721479582494 69.58524079838858 69.58524079838858 69.5632668009522 69.54129280351583 69.51931880607947 69.51931880607947 69.4973448086431 69.4973448086431 69.47537081120674 69.45339681377037 69.431422816334 69.431422816334 69.431422816334 69.431422816334 69.40944881889763 69.40944881889763 69.38747482146127 69.34352682658854 69.2995788317158 69.27760483427943 69.25563083684307 69.21168284197034 69.18970884453397 69.16773484709759 69.14576084966123 69.12378685222487 69.1018128547885 69.1018128547885 69.07983885735213 69.07983885735213 69.05786485991577 69.03589086247939 69.01391686504303 68.9699688701703 68.94799487273393 68.90404687786119 68.90404687786119 68.88207288042483 68.88207288042483 68.86009888298847 68.86009888298847 68.86009888298847 68.8381248855521 68.8381248855521 68.8381248855521 68.81615088811573 68.81615088811573 68.81615088811573 68.81615088811573 68.81615088811573 68.79417689067935 68.79417689067935 68.77220289324299 68.72825489837027 68.72825489837027 68.68430690349753 68.66233290606115 68.64035890862479 68.64035890862479 68.64035890862479 68.66233290606115 68.64035890862479 68.64035890862479 68.64035890862479 68.64035890862479 68.66233290606115 68.64035890862479 68.66233290606115 68.66233290606115 68.66233290606115 68.66233290606115 68.66233290606115 68.66233290606115 68.66233290606115 68.66233290606115 68.64035890862479 68.64035890862479 68.64035890862479 68.64035890862479 68.64035890862479 68.64035890862479 68.64035890862479 68.64035890862479 68.64035890862479 68.64035890862479 68.64035890862479 68.61838491118843 68.61838491118843 68.59641091375207 68.59641091375207 68.57443691631569 68.57443691631569 68.55246291887933 68.55246291887933 68.57443691631569 68.57443691631569 68.57443691631569 68.57443691631569 68.57443691631569 68.57443691631569 68.59641091375207 68.57443691631569 68.57443691631569 68.57443691631569 68.57443691631569 68.57443691631569 68.57443691631569 68.57443691631569 68.57443691631569 68.57443691631569 68.57443691631569 68.57443691631569 68.59641091375207 68.57443691631569 68.57443691631569 68.57443691631569 68.57443691631569 68.59641091375207 68.57443691631569 68.57443691631569 68.57443691631569 68.57443691631569 68.59641091375207 68.57443691631569 68.57443691631569 68.57443691631569 68.57443691631569 68.57443691631569 68.57443691631569 68.57443691631569 68.57443691631569 68.57443691631569 68.57443691631569 68.57443691631569 68.57443691631569 68.57443691631569 68.57443691631569 68.57443691631569 68.57443691631569 68.57443691631569 68.57443691631569 68.59641091375207 68.57443691631569 68.57443691631569 68.57443691631569 68.57443691631569 68.57443691631569 68.57443691631569 68.57443691631569 68.59641091375207 68.59641091375207 68.59641091375207 68.59641091375207 68.59641091375207 68.61838491118843 68.61838491118843 68.64035890862479 68.66233290606115 68.66233290606115 68.66233290606115 68.66233290606115 68.66233290606115 68.66233290606115 68.66233290606115 68.66233290606115 68.66233290606115 68.66233290606115 68.64035890862479 68.66233290606115 68.64035890862479 68.64035890862479 68.59641091375207 68.55246291887933 68.50851492400659 68.44259293169749 68.39864493682475 68.28877494964291 68.22285295733383 68.09100897271563 67.95916498809743 67.80534700604285 67.60758102911555 67.40981505218824 67.12415308551547 66.7725691265336 66.53085515473356 66.13532320087896 65.69584325215162 65.38820728804248 64.81688335469694 64.61911737776964 64.2455594213514 63.80607947262406 63.542391503387655 63.146859549533055 62.66343160593298 62.39974363669658 62.00421168284197 61.74052371360557 61.45486174693279 60.99340780076909 60.663797839223584 59.982603918696206 59.4552279802234 59.08167002380517 58.53232008789599 58.18073612891412 57.80717817249588 57.191906244277604 56.8622962827321 56.444790331441126 56.00531038271379 55.60977842885919 55.30214246475005 55.01648049807727 54.64292254165903 54.269364585240794 54.00567661600439 53.412378685222485 53.104742721113354 52.57736678264054 52.09393883904047 51.7423548800586 51.39077092107672 50.79747299029482 50.182201062076544 49.76469511078557 48.92968320820363 48.53415125434902 47.91887932613075 47.56729536714887 47.017945431239696 46.468595495330526 46.117011536348656 45.58963559787585 45.04028566196667 44.6887017029848 44.18329976194836 43.787767808093754 43.370261856802784 42.95275590551181 42.68906793627541 42.31550997985717 41.94195202343893 41.70023805163889 41.30470609778429 40.90917414392968 40.601538179820544 40.162058231093205 39.722578282365866 39.28309833363853 39.01941036440212 38.62387841054752 38.20637245925654 37.96465848745651 37.5691265336019 37.1735945797473 36.887932613074526 36.470426661783556 36.14081670023805 35.59146676432888 34.99816883354697 34.44881889763779 33.657754989928584 33.108405054019414 32.84471708478301 32.53708112067387 32.2514191540011 31.833913202710125 31.174693279619117 30.625343343709943 29.944149423182566 29.61453946163706 28.889397546236953 28.03241164621864 27.417139718000367 26.36238784105475 25.21973997436367 24.472624061527192 23.98919611792712 23.461820179454314 22.692730269181467 22.451016297381432 22.165354330708663 21.87969236403589 21.418238417872185 21.330342428126716 21.176524446072147 21.22047244094488 21.176524446072147 21.24244643838125 21.330342428126716 21.418238417872185 21.46218641274492 21.44021241530855 21.46218641274492 21.418238417872185 21.418238417872185 21.418238417872185 21.418238417872185 21.44021241530855 21.44021241530855 21.46218641274492 21.44021241530855 21.44021241530855 21.44021241530855 21.44021241530855 21.46218641274492 21.46218641274492 21.484160410181286 21.46218641274492 21.46218641274492 21.484160410181286 21.484160410181286 21.46218641274492 21.46218641274492 21.46218641274492 21.550082402490386 21.550082402490386 21.61600439479949 21.61600439479949 21.637978392235855 21.637978392235855 21.68192638710859 21.68192638710859 21.65995238967222 21.68192638710859 21.68192638710859 21.68192638710859 21.65995238967222 21.65995238967222 21.68192638710859 21.65995238967222 21.68192638710859 21.65995238967222 21.65995238967222 21.68192638710859 21.703900384544955 21.703900384544955 21.703900384544955 21.74784837941769 21.68192638710859 21.703900384544955 21.74784837941769 21.74784837941769 21.769822376854055 21.74784837941769 21.769822376854055 21.769822376854055 21.769822376854055 21.791796374290424 21.769822376854055 21.769822376854055 21.81377037172679 21.81377037172679 21.81377037172679 21.81377037172679 21.90166636147226 21.87969236403589 21.923640358908624 22.03351034609046 22.055484343526828 22.165354330708663 22.18732832814503 22.25325032045413 22.385094305072332 22.385094305072332 22.385094305072332 22.385094305072332 22.385094305072332 22.385094305072332 22.385094305072332 22.385094305072332 22.407068302508698 22.385094305072332 22.385094305072332 22.385094305072332 22.385094305072332 22.385094305072332 22.385094305072332 22.385094305072332 22.385094305072332 22.385094305072332 22.385094305072332 22.407068302508698 22.429042299945067 22.429042299945067 22.472990294817798 22.582860281999633 22.604834279436 22.648782274308736 22.714704266617836 22.82457425379967 22.97839223585424 23.242080205090645 23.32997619483611 23.527742171763414 23.61563816150888 23.659586156381614 23.813404138436184 23.967222120490753 24.186962094854422 24.450650064090826 24.538546053836292 24.62644204358176 24.758286028199965 24.91210401025453 25.175791979490935 25.21973997436367 25.241713971800035 25.28566196667277 25.329609961545504 25.37355795641824 25.395531953854604 25.43947994872734 25.461453946163708 25.483427943600073 25.50540194103644 25.527375938472808 25.527375938472808 25.527375938472808 25.527375938472808 25.527375938472808 25.527375938472808 25.527375938472808 25.549349935909174 25.527375938472808 25.527375938472808 25.549349935909174 25.549349935909174 25.549349935909174 25.549349935909174 25.549349935909174 25.549349935909174 25.549349935909174 25.549349935909174 25.549349935909174 25.549349935909174 25.549349935909174 25.549349935909174 25.571323933345543 25.571323933345543 25.571323933345543 25.549349935909174 25.571323933345543 25.571323933345543 25.571323933345543 25.593297930781908 25.571323933345543 25.571323933345543 25.593297930781908 25.593297930781908 25.571323933345543 25.593297930781908 25.593297930781908 25.593297930781908 25.593297930781908 25.593297930781908 25.593297930781908 25.593297930781908 25.593297930781908 25.593297930781908 25.593297930781908 25.593297930781908 25.593297930781908 25.593297930781908 25.593297930781908 25.593297930781908 25.593297930781908 25.593297930781908 25.571323933345543 25.593297930781908 25.571323933345543 25.593297930781908 25.571323933345543 25.571323933345543 25.571323933345543 25.571323933345543 25.571323933345543 25.571323933345543 25.571323933345543 25.571323933345543 25.549349935909174 25.549349935909174 25.549349935909174 25.549349935909174 25.549349935909174 25.549349935909174 25.527375938472808 25.527375938472808 25.527375938472808 25.527375938472808 25.527375938472808 25.50540194103644 25.50540194103644 25.50540194103644 25.483427943600073 25.461453946163708 25.461453946163708 25.43947994872734 25.417505951290973 25.417505951290973 25.395531953854604 25.395531953854604 25.37355795641824 25.37355795641824 25.35158395898187 25.35158395898187 25.329609961545504 25.329609961545504 25.329609961545504 25.329609961545504 25.329609961545504 25.30763596410914 25.30763596410914 25.28566196667277 25.28566196667277 25.28566196667277 25.263687969236404 25.241713971800035 25.241713971800035 25.21973997436367 25.21973997436367 25.21973997436367 25.21973997436367 25.21973997436367 25.21973997436367 25.21973997436367 25.197765976927304 25.197765976927304 25.197765976927304 25.197765976927304 25.197765976927304 25.197765976927304 25.197765976927304 25.197765976927304 25.197765976927304 25.197765976927304 25.175791979490935 25.175791979490935 25.197765976927304 25.175791979490935 25.175791979490935 25.175791979490935 25.175791979490935 25.175791979490935 25.175791979490935 25.197765976927304 25.175791979490935 25.197765976927304 25.175791979490935 25.175791979490935 25.197765976927304 25.175791979490935 25.197765976927304 25.175791979490935 25.175791979490935 25.175791979490935 25.175791979490935 25.175791979490935 25.175791979490935 25.175791979490935 25.175791979490935 25.175791979490935 25.197765976927304 25.197765976927304 25.197765976927304 25.197765976927304 25.21973997436367 25.21973997436367 25.21973997436367 25.241713971800035 25.241713971800035 25.263687969236404 25.263687969236404 25.28566196667277 25.30763596410914 25.35158395898187 25.395531953854604 25.483427943600073 25.549349935909174 25.65921992309101 25.791063907709212 25.900933894891047 26.054751876945616 26.318439846182017 26.472257828236586 26.73594579747299 26.999633766709394 27.351217725691264 27.834645669291337 28.362021607764145 28.91137154367332 29.526643471891596 29.944149423182566 30.603369346273574 31.042849295000916 31.74601721296466 32.3832631386193 32.84471708478301 34.03131294634682 34.55868888481963 35.08606482329244 35.72331074894708 36.22871268998352 36.756088628456325 37.52517853872917 38.05255447720198 38.79967039003846 39.854422266984066 40.42574620032961 41.23878410547519 41.76616004394799 42.35945797472991 43.150521882439115 43.721845815784654 44.820545687603 45.36989562351218 46.182933528657756 46.995971433803334 47.63321735945797 48.38033327229445 49.2153451748764 49.808643105658305 50.55575901849478 51.10510895440396 51.83025086980406 52.57736678264054 53.060794726240616 53.87383263138619 54.62094854422267 55.17029848013185 55.96136238784105 56.51071232375023 57.56546420069584 58.33455411096869 58.8619300494415 59.63101995971434 60.136421900750776 60.90551181102362 61.6526277238601 62.15802966489654 62.86119758286028 63.564365500824024 64.00384544955136 64.5751693828969 65.1684673136788 65.56399926753342 66.09137520600623 66.4429591649881 66.94836110602454 67.40981505218824 67.67350302142464 68.17890496246109 68.39864493682475 68.59641091375207 68.88207288042483 69.14576084966123 69.38747482146127 69.51931880607947 69.6951107855704 69.87090276506135 69.95879875480682 70.09064273942502 70.22248672404322 70.31038271378868 70.46420069584326 70.61801867789782 70.70591466764328 70.85973264969786 71.01355063175242 71.1014466214979 71.21131660867974 71.25526460355246 71.32118659586156 71.40908258560702 71.4310565830434 71.45303058047976 71.4969785753525 71.56290056766161 71.65079655740706 71.69474455227981 71.7606665445889 71.78264054202528 71.80461453946164 71.80461453946164 71.78264054202528 71.78264054202528 71.78264054202528 71.78264054202528 71.73869254715254 71.71671854971618 71.69474455227981 71.60684856253434 71.56290056766161 71.51895257278886 71.45303058047976 71.4310565830434 71.38710858817066 71.3651345907343 71.34316059329794 71.34316059329794 71.34316059329794 71.32118659586156 71.27723860098882 71.25526460355246 71.2332906061161 71.18934261124336 71.18934261124336 71.167368613807 71.167368613807 71.167368613807 71.12342061893426 71.1014466214979 71.0355246291888 71.01355063175242 70.99157663431606 70.94762863944334 70.92565464200696 70.9036806445706 70.85973264969786 70.85973264969786 70.8377586522615 70.79381065738875 70.77183665995238 70.74986266251602 70.74986266251602 70.74986266251602 70.74986266251602 70.72788866507966 70.72788866507966 70.74986266251602 70.74986266251602 70.72788866507966 70.74986266251602 70.72788866507966 70.70591466764328 70.70591466764328 70.68394067020692 70.70591466764328 70.68394067020692 70.66196667277055 70.66196667277055 70.63999267533418 70.63999267533418 70.63999267533418 70.63999267533418 70.63999267533418 70.63999267533418 70.63999267533418 70.63999267533418 70.61801867789782 70.59604468046146 70.59604468046146 70.59604468046146 70.57407068302508 70.59604468046146 70.59604468046146 70.59604468046146 70.59604468046146 70.59604468046146 70.59604468046146 70.59604468046146 70.57407068302508 70.57407068302508 70.57407068302508 70.57407068302508 70.59604468046146 70.59604468046146 70.59604468046146 70.57407068302508 70.57407068302508 70.57407068302508 70.55209668558872 70.55209668558872 70.55209668558872 70.55209668558872 70.55209668558872 70.55209668558872 70.53012268815235 70.53012268815235 70.55209668558872 70.53012268815235 70.53012268815235 70.53012268815235 70.53012268815235 70.53012268815235 70.53012268815235 70.53012268815235 70.55209668558872 70.53012268815235 70.53012268815235 70.50814869071598 70.50814869071598 70.48617469327962 70.48617469327962 70.46420069584326 70.46420069584326 70.46420069584326 70.46420069584326 70.46420069584326 70.46420069584326 70.46420069584326 70.46420069584326 70.46420069584326 70.46420069584326 70.46420069584326 70.46420069584326 70.46420069584326 70.46420069584326 70.46420069584326 70.44222669840688 70.44222669840688 70.44222669840688 70.42025270097052 70.42025270097052 70.42025270097052 70.39827870353415 70.42025270097052 70.42025270097052 70.39827870353415 70.39827870353415 70.39827870353415 70.42025270097052 70.39827870353415 70.39827870353415 70.39827870353415 70.37630470609778 70.37630470609778 70.35433070866142 70.35433070866142 70.33235671122506 70.33235671122506 70.31038271378868 70.28840871635232 70.28840871635232 70.28840871635232 70.28840871635232 70.28840871635232 70.28840871635232 70.28840871635232 70.26643471891595 70.26643471891595 70.26643471891595 70.26643471891595 70.26643471891595 70.26643471891595 70.26643471891595 70.26643471891595 70.26643471891595 70.26643471891595 70.26643471891595 70.26643471891595 70.26643471891595 70.26643471891595 70.26643471891595 70.28840871635232 70.26643471891595 70.26643471891595 70.26643471891595 70.26643471891595 70.26643471891595 70.26643471891595 70.26643471891595 70.26643471891595 70.26643471891595 70.26643471891595 70.26643471891595 70.26643471891595 70.26643471891595 70.26643471891595 70.28840871635232 70.28840871635232 70.26643471891595 70.28840871635232 70.28840871635232 70.28840871635232 70.28840871635232 70.28840871635232 70.28840871635232 70.28840871635232 70.28840871635232 70.28840871635232 70.28840871635232 70.26643471891595 70.24446072147958 70.24446072147958 70.24446072147958 70.24446072147958 70.24446072147958 70.24446072147958 70.24446072147958 70.26643471891595 70.26643471891595 70.26643471891595 70.24446072147958 70.26643471891595 70.26643471891595 70.26643471891595 70.24446072147958 70.26643471891595 70.26643471891595 70.24446072147958 70.24446072147958 70.26643471891595 70.26643471891595 70.26643471891595 70.26643471891595 70.26643471891595 70.26643471891595 70.26643471891595 70.26643471891595 70.26643471891595 70.26643471891595 70.26643471891595 70.26643471891595 70.22248672404322 70.20051272660686 70.15656473173412 70.13459073429775 70.11261673686138 70.06866874198866 70.06866874198866 70.04669474455227 70.00274674967955 69.98077275224318 69.91485075993407 69.87090276506135 69.7610327778795 69.6291887932613 69.47537081120674 69.32155282915217 69.12378685222487 68.94799487273393 68.68430690349753 68.28877494964291 68.09100897271563 67.78337300860647 67.56363303424281 67.23402307269731 66.92638710858817 66.70664713422451 66.377037172679 66.02545321369712 65.76176524446072 65.36623329060612 65.08057132393334 64.641091375206 64.1796374290423 63.87200146493316 63.410547518769455 62.927119575169385 62.61948361106025 61.9822376854056 61.60867972898736 61.25709577000549 60.86156381615089 60.422083867423545 60.004577916132575 59.60904596227797 59.34535799304157 58.94982603918696 58.66416407251419 58.24665812122322 57.82915216993224 57.54349020325947 57.125984251968504 56.70847830067753 56.400842336568395 55.917414392968325 55.58780443142282 54.99450650064091 54.401208569859 53.961728621131655 53.324482695477016 52.48947079289508 52.0719648416041 51.65445889031313 50.97326496978575 50.48983702618568 49.89653909540377 49.2153451748764 48.60007324665812 48.18256729536715 47.63321735945797 47.061893426112434 46.688335469694195 46.117011536348656 45.61160959531222 45.10620765427578 44.7546236952939 44.40303973631203 43.98553378502106 43.392235854239146 43.062625892693646 42.733015931148145 42.20563999267533 41.87603003112983 41.41457608496612 40.93114814136605 40.447720197765975 39.920344259293174 39.524812305438566 38.95348837209302 38.47006042849295 37.65702252334737 36.756088628456325 35.986998718183486 35.23988280534701 34.69053286943783 34.16315693096502 33.416041018128546 33.130379051455776 32.932613074528476 32.712873100164806 32.53708112067387 32.22944515656473 31.87786119758286 31.636147225782825 31.08679728987365 30.779161325764512 30.42757736678264 30.054019410364404 29.658487456509796 29.175059512909723 28.69163156930965 28.230177623145945 27.439113715436733 26.867789782091194 26.01080388207288 25.28566196667277 25.021973997436366 24.604468046145396 24.252884087163523 24.055118110236222 23.681560153817983 23.220106207654275 23.066288225599706 22.736678264054202 22.429042299945067 22.231276323017763 22.03351034609046 21.703900384544955 21.484160410181286 21.46218641274492 21.418238417872185 21.396264420435816 21.46218641274492 21.46218641274492 21.637978392235855 21.65995238967222 21.65995238967222 21.65995238967222 21.637978392235855 21.572056399926755 21.550082402490386 21.572056399926755 21.572056399926755 21.637978392235855 21.68192638710859 21.637978392235855 21.61600439479949 21.637978392235855 21.637978392235855 21.68192638710859 21.68192638710859 21.769822376854055 21.90166636147226 22.297198315326863 22.802600256363302 24.64841604101813 25.15381798205457 25.329609961545504 25.417505951290973 25.461453946163708 25.50540194103644 25.50540194103644 25.527375938472808 25.527375938472808 25.527375938472808 25.50540194103644 25.483427943600073 25.483427943600073 25.43947994872734 25.43947994872734 25.395531953854604 25.37355795641824 25.37355795641824 25.37355795641824 25.35158395898187 25.35158395898187 25.35158395898187 25.329609961545504 25.329609961545504 25.329609961545504 25.329609961545504 25.329609961545504 25.30763596410914 25.329609961545504 25.30763596410914 25.28566196667277 25.28566196667277 25.28566196667277 25.263687969236404 25.263687969236404 25.263687969236404 25.263687969236404 25.263687969236404 25.263687969236404 25.263687969236404 25.263687969236404 25.241713971800035 25.241713971800035 25.241713971800035 25.241713971800035 25.241713971800035 25.241713971800035 25.241713971800035 25.241713971800035 25.241713971800035 25.21973997436367 25.21973997436367 25.21973997436367 25.21973997436367 25.21973997436367 25.21973997436367 25.21973997436367 25.21973997436367 25.197765976927304 25.197765976927304 25.197765976927304 25.175791979490935 25.175791979490935 25.175791979490935 25.175791979490935 25.175791979490935 25.175791979490935 25.175791979490935 25.175791979490935 25.15381798205457 25.15381798205457 25.15381798205457 25.15381798205457 25.15381798205457 25.15381798205457 25.15381798205457 25.15381798205457 25.15381798205457 25.15381798205457 25.15381798205457 25.15381798205457 25.15381798205457 25.1318439846182 25.1318439846182 25.1318439846182 25.1318439846182 25.1318439846182 25.1318439846182 25.1318439846182 25.1318439846182 25.1318439846182 25.1318439846182 25.1318439846182 25.1318439846182 25.1318439846182 25.1318439846182 25.1318439846182 25.1318439846182 25.1318439846182 25.1318439846182 25.1318439846182 25.1318439846182 25.109869987181835 25.1318439846182 25.109869987181835 25.1318439846182 25.1318439846182 25.1318439846182 25.109869987181835 25.1318439846182 25.109869987181835 25.1318439846182 25.109869987181835 25.1318439846182 25.109869987181835 25.109869987181835 25.109869987181835 25.109869987181835 25.109869987181835 25.1318439846182 25.109869987181835 25.109869987181835 25.109869987181835 25.109869987181835 25.109869987181835 25.109869987181835 25.109869987181835 25.109869987181835 25.109869987181835 25.109869987181835 25.109869987181835 25.109869987181835 25.109869987181835 25.109869987181835 25.109869987181835 25.109869987181835 25.109869987181835 25.109869987181835 25.109869987181835 25.109869987181835 25.109869987181835 25.109869987181835 25.08789598974547 25.08789598974547 25.08789598974547 25.08789598974547 25.08789598974547 25.08789598974547 25.08789598974547 25.08789598974547 25.08789598974547 25.08789598974547 25.08789598974547 25.08789598974547 25.0659219923091 25.0659219923091 25.0659219923091 25.0659219923091 25.0659219923091 25.0659219923091 25.0659219923091 25.0659219923091 25.0659219923091 25.0659219923091 25.0659219923091 25.0659219923091 25.0659219923091 25.0659219923091 25.043947994872735 25.043947994872735 25.043947994872735 25.043947994872735 25.043947994872735 25.043947994872735 25.043947994872735 25.043947994872735 25.043947994872735 25.043947994872735 25.043947994872735 25.043947994872735 25.043947994872735 25.021973997436366 25.021973997436366 25.021973997436366 25.0 25.0 25.021973997436366 25.021973997436366 25.021973997436366 25.021973997436366 25.0 25.0 25.0 25.0 25.0 25.0 25.0 25.0 25.0 25.0 25.0 24.978026002563634 25.0 24.978026002563634 25.0 24.978026002563634 24.978026002563634 24.978026002563634 24.978026002563634 24.978026002563634 24.978026002563634 24.978026002563634 25.0 24.978026002563634 24.978026002563634 24.978026002563634 24.978026002563634 24.978026002563634 24.978026002563634 24.978026002563634 24.978026002563634 24.978026002563634 24.978026002563634 24.978026002563634 24.978026002563634 24.978026002563634 24.978026002563634 24.956052005127265 24.956052005127265 24.978026002563634 24.956052005127265 24.978026002563634 24.956052005127265 24.956052005127265 24.978026002563634 24.978026002563634 24.978026002563634 24.956052005127265 24.978026002563634 24.956052005127265 24.978026002563634 24.978026002563634 24.978026002563634 24.978026002563634 24.978026002563634 24.978026002563634 24.978026002563634 24.978026002563634 24.978026002563634 24.978026002563634 24.978026002563634 24.978026002563634 24.978026002563634 25.0 24.978026002563634 25.0 25.0 25.021973997436366 25.021973997436366 25.043947994872735 25.0659219923091 25.0659219923091 25.08789598974547 25.109869987181835 25.1318439846182 25.15381798205457 25.197765976927304 25.241713971800035 25.329609961545504 25.37355795641824 25.483427943600073 25.637245925654643 25.791063907709212 26.01080388207288 26.164621864127447 26.36238784105475 26.713971800036624 27.17542574620033 27.74674967954587 28.40596960263688 28.867423548800588 29.61453946163706 30.14191540010987 30.976927302691813 31.81193920527376 32.47115912836477 33.306171030946714 33.92144295916499 34.82237685405603 35.74528474638345 36.404504669474456 37.327412561801864 38.27229445156565 38.93151437465666 39.8324482695477 40.75535616187511 41.34865409265702 42.49130195934811 43.08459989013001 43.85368980040286 44.40303973631203 45.23805163889398 46.07306354147592 46.754257462003295 47.58926936458524 48.46822926203992 49.08350119025819 50.006409082585606 50.88536898004028 51.4786669108222 52.40157480314961 53.01684673136788 53.91778062625893 54.84068851858634 55.36806445705915 56.20307635964109 57.016114264786665 57.56546420069584 58.33455411096869 59.14759201611427 59.916681926387106 60.70774583409632 61.23512177256912 62.02618568027834 62.79527559055118 63.300677531587624 64.02581944698773 64.53122138802416 65.19044131111518 65.8496612342062 66.2451931880608 66.86046511627907 67.38784105475187 67.73942501373375 68.24482695477019 68.57443691631569 69.01391686504303 69.5632668009522 69.78300677531587 70.04669474455227 70.13459073429775 70.33235671122506 70.48617469327962 70.59604468046146 70.68394067020692 70.74986266251602 70.77183665995238 70.77183665995238 70.77183665995238 70.77183665995238 70.77183665995238 70.74986266251602 70.74986266251602 70.74986266251602 70.74986266251602 70.74986266251602 70.72788866507966 70.70591466764328 70.61801867789782 70.57407068302508 70.48617469327962 70.42025270097052 70.37630470609778 70.33235671122506 70.28840871635232 70.24446072147958 70.20051272660686 70.17853872917048 70.13459073429775 70.15656473173412 70.13459073429775 70.13459073429775 70.15656473173412 70.15656473173412 70.15656473173412 70.15656473173412 70.15656473173412 70.15656473173412 70.17853872917048 70.15656473173412 70.17853872917048 70.15656473173412 70.15656473173412 70.17853872917048 70.17853872917048 70.17853872917048 70.15656473173412 70.15656473173412 70.17853872917048 70.17853872917048 70.20051272660686 70.22248672404322 70.24446072147958 70.28840871635232 70.31038271378868 70.35433070866142 70.35433070866142 70.39827870353415 70.42025270097052 70.42025270097052 70.42025270097052 70.42025270097052 70.42025270097052 70.42025270097052 70.42025270097052 70.42025270097052 70.42025270097052 70.42025270097052 70.42025270097052 70.42025270097052 70.44222669840688 70.46420069584326 70.46420069584326 70.48617469327962 70.48617469327962 70.48617469327962 70.48617469327962 70.48617469327962 70.48617469327962 70.48617469327962 70.48617469327962 70.48617469327962 70.48617469327962 70.48617469327962 70.48617469327962 70.48617469327962 70.48617469327962 70.48617469327962 70.50814869071598 70.50814869071598 70.50814869071598 70.50814869071598 70.50814869071598 70.50814869071598 70.50814869071598 70.50814869071598 70.50814869071598 70.50814869071598 70.50814869071598 70.50814869071598 70.50814869071598 70.50814869071598 70.50814869071598 70.50814869071598 70.50814869071598 70.50814869071598 70.50814869071598 70.50814869071598 70.50814869071598 70.50814869071598 70.50814869071598 70.50814869071598 70.50814869071598 70.50814869071598 70.50814869071598 70.50814869071598 70.50814869071598 70.50814869071598 70.50814869071598 70.50814869071598 70.50814869071598 70.50814869071598 70.50814869071598 70.50814869071598 70.50814869071598 70.50814869071598 70.50814869071598 70.50814869071598 70.50814869071598 70.50814869071598 70.50814869071598 70.50814869071598 70.50814869071598 70.50814869071598 70.50814869071598 70.50814869071598 70.50814869071598 70.50814869071598 70.48617469327962 70.50814869071598 70.50814869071598 70.48617469327962 70.50814869071598 70.50814869071598 70.50814869071598 70.48617469327962 70.50814869071598 70.48617469327962 70.48617469327962 70.48617469327962 70.46420069584326 70.46420069584326 70.46420069584326 70.44222669840688 70.44222669840688 70.44222669840688 70.44222669840688 70.44222669840688 70.44222669840688 70.44222669840688 70.44222669840688 70.44222669840688 70.44222669840688 70.44222669840688 70.44222669840688 70.44222669840688 70.46420069584326 70.44222669840688 70.44222669840688 70.44222669840688 70.44222669840688 70.44222669840688 70.44222669840688 70.44222669840688 70.44222669840688 70.44222669840688 70.44222669840688 70.44222669840688 70.44222669840688 70.44222669840688 70.44222669840688 70.44222669840688 70.44222669840688 70.44222669840688 70.44222669840688 70.42025270097052 70.42025270097052 70.42025270097052 70.42025270097052 70.42025270097052 70.42025270097052 70.42025270097052 70.42025270097052 70.42025270097052 70.42025270097052 70.42025270097052 70.42025270097052 70.44222669840688 70.42025270097052 70.42025270097052 70.42025270097052 70.42025270097052 70.44222669840688 70.44222669840688 70.44222669840688 70.44222669840688 70.46420069584326 70.50814869071598 70.53012268815235 70.55209668558872 70.55209668558872 70.59604468046146 70.59604468046146 70.61801867789782 70.61801867789782 70.61801867789782 70.59604468046146 70.59604468046146 70.59604468046146 70.55209668558872 70.44222669840688 70.35433070866142 70.15656473173412 70.00274674967955 69.7610327778795 69.4973448086431 69.18970884453397 68.90404687786119 68.68430690349753 68.46456692913387 68.15693096502471 67.89324299578831 67.47573704449735 67.12415308551547 66.88243911371544 66.5088811572972 66.2451931880608 65.82768723676982 65.43215528291522 65.1684673136788 64.72898736495148 64.28950741622413 63.93792345724226 63.476469511078555 63.124885552096686 62.61948361106025 62.02618568027834 61.63065372642373 61.01538179820545 60.378135872550814 59.938655923823475 59.10364402124153 58.68613806995056 58.24665812122322 57.41164621864127 56.972166269913934 56.488738326313864 55.60977842885919 55.17029848013185 54.5330525544772 54.137520600622594 53.566196667277055 53.03882072880425 52.68723676982238 52.1378868339132 51.56656290056766 51.17103094671306 50.533785021058414 50.116279069767444 49.45705914667643 48.79783922358543 48.31441127998535 47.65519135689434 46.754257462003295 46.424647500457795 45.76542757736678 45.04028566196667 44.57883171580296 43.91961179271196 43.260391869620946 42.667093938839045 42.07379600805713 41.67826405420253 41.12891411829335 40.73338216443875 40.140084233656836 39.5687603003113 39.239150338765796 38.66782640542025 38.14045046694744 37.74491851309284 36.975828602819995 36.778062625892694 36.184764695110786 35.59146676432888 35.17396081303791 34.60263687969236 33.789598974546784 33.306171030946714 32.581029115546606 31.89983519501923 30.932979307819082 30.559421351400843 29.9880974180553 29.41677348470976 28.999267533418788 28.27412561801868 27.263321735945798 26.406335835927486 26.164621864127447 26.07672587438198 25.791063907709212 25.30763596410914 24.91210401025453 24.318806079472623 24.49459805896356 24.604468046145396 24.450650064090826 24.186962094854422 23.98919611792712 23.813404138436184 23.681560153817983 23.61563816150888 23.61563816150888 23.61563816150888 23.61563816150888 23.57169016663615 23.527742171763414 23.39589818714521 23.32997619483611 23.308002197399745 23.220106207654275 23.17615821278154 23.32997619483611 24.011170115363488 24.956052005127265 25.329609961545504 25.527375938472808 25.615271928218274 25.703167917963743 25.703167917963743 25.72514191540011 25.703167917963743 25.703167917963743 25.703167917963743 25.681193920527377 25.681193920527377 25.65921992309101 25.65921992309101 25.65921992309101 25.637245925654643 25.637245925654643 25.615271928218274 25.615271928218274 25.571323933345543 25.549349935909174 25.527375938472808 25.483427943600073 25.461453946163708 25.461453946163708 25.43947994872734 25.43947994872734 25.417505951290973 25.395531953854604 25.395531953854604 25.37355795641824 25.37355795641824 25.35158395898187 25.35158395898187 25.329609961545504 25.329609961545504 25.30763596410914 25.30763596410914 25.30763596410914 25.30763596410914 25.30763596410914 25.28566196667277 25.28566196667277 25.263687969236404 25.263687969236404 25.263687969236404 25.241713971800035 25.241713971800035 25.241713971800035 25.21973997436367 25.21973997436367 25.21973997436367 25.21973997436367 25.21973997436367 25.21973997436367 25.21973997436367 25.21973997436367 25.21973997436367 25.197765976927304 25.21973997436367 25.21973997436367 25.21973997436367 25.197765976927304 25.21973997436367 25.21973997436367 25.197765976927304 25.197765976927304 25.197765976927304 25.21973997436367 25.197765976927304 25.197765976927304 25.197765976927304 25.197765976927304 25.197765976927304 25.197765976927304 25.197765976927304 25.197765976927304 25.197765976927304 25.197765976927304 25.175791979490935 25.175791979490935 25.197765976927304 25.175791979490935 25.175791979490935 25.175791979490935 25.175791979490935 25.197765976927304 25.175791979490935 25.175791979490935 25.175791979490935 25.175791979490935 25.175791979490935 25.175791979490935 25.175791979490935 25.175791979490935 25.175791979490935 25.175791979490935 25.175791979490935 25.175791979490935 25.175791979490935 25.175791979490935 25.175791979490935 25.175791979490935 25.175791979490935 25.175791979490935 25.175791979490935 25.175791979490935 25.175791979490935 25.175791979490935 25.175791979490935 25.175791979490935 25.175791979490935 25.175791979490935 25.175791979490935 25.175791979490935 25.175791979490935 25.175791979490935 25.175791979490935 25.175791979490935 25.175791979490935 25.175791979490935 25.175791979490935 25.175791979490935 25.175791979490935 25.175791979490935 25.175791979490935 25.175791979490935 25.175791979490935 25.175791979490935 25.175791979490935 25.175791979490935 25.175791979490935 25.175791979490935 25.175791979490935 25.15381798205457 25.175791979490935 25.175791979490935 25.15381798205457 25.15381798205457 25.15381798205457 25.175791979490935 25.175791979490935 25.15381798205457 25.15381798205457 25.175791979490935 25.15381798205457 25.15381798205457 25.175791979490935 25.175791979490935 25.15381798205457 25.175791979490935 25.175791979490935 25.15381798205457 25.175791979490935 25.15381798205457 25.15381798205457 25.15381798205457 25.15381798205457 25.175791979490935 25.15381798205457 25.15381798205457 25.15381798205457 25.15381798205457 25.15381798205457 25.175791979490935 25.15381798205457 25.15381798205457 25.175791979490935 25.15381798205457 25.15381798205457 25.15381798205457 25.15381798205457 25.15381798205457 25.175791979490935 25.15381798205457 25.175791979490935 25.15381798205457 25.15381798205457 25.15381798205457 25.175791979490935 25.15381798205457 25.15381798205457 25.15381798205457 25.15381798205457 25.15381798205457 25.15381798205457 25.175791979490935 25.15381798205457 25.15381798205457 25.15381798205457 25.15381798205457 25.15381798205457 25.15381798205457 25.15381798205457 25.15381798205457 25.15381798205457 25.15381798205457 25.15381798205457 25.15381798205457 25.15381798205457 25.15381798205457 25.15381798205457 25.15381798205457 25.15381798205457 25.15381798205457 25.15381798205457 25.15381798205457 25.15381798205457 25.15381798205457 25.15381798205457 25.15381798205457 25.15381798205457 25.15381798205457 25.15381798205457 25.15381798205457 25.15381798205457 25.15381798205457 25.15381798205457 25.15381798205457 25.15381798205457 25.15381798205457 25.15381798205457 25.15381798205457 25.15381798205457 25.15381798205457 25.15381798205457 25.15381798205457 25.15381798205457 25.15381798205457 25.15381798205457 25.15381798205457 25.15381798205457 25.15381798205457 25.15381798205457 25.15381798205457 25.15381798205457 25.15381798205457 25.15381798205457 25.15381798205457 25.15381798205457 25.15381798205457 25.15381798205457 25.15381798205457 25.15381798205457 25.15381798205457 25.15381798205457 25.15381798205457 25.15381798205457 25.15381798205457 25.15381798205457 25.15381798205457 25.1318439846182 25.15381798205457 25.15381798205457 25.15381798205457 25.15381798205457 25.15381798205457 25.15381798205457 25.15381798205457 25.15381798205457 25.15381798205457 25.15381798205457 25.15381798205457 25.15381798205457 25.15381798205457 25.15381798205457 25.15381798205457 25.15381798205457 25.15381798205457 25.15381798205457 25.15381798205457 25.15381798205457 25.15381798205457 25.15381798205457 25.15381798205457 25.15381798205457 25.15381798205457 25.15381798205457 25.15381798205457 25.15381798205457 25.15381798205457 25.15381798205457 25.1318439846182 25.15381798205457 25.15381798205457 25.15381798205457 25.15381798205457 25.15381798205457 25.15381798205457 25.15381798205457 25.15381798205457 25.15381798205457 25.15381798205457 25.15381798205457 25.1318439846182 25.15381798205457 25.15381798205457 25.15381798205457 25.15381798205457 25.15381798205457 25.15381798205457 25.15381798205457 25.1318439846182 25.15381798205457 25.15381798205457 25.15381798205457 25.15381798205457 25.1318439846182 25.15381798205457 25.15381798205457 25.15381798205457 25.15381798205457 25.1318439846182 25.1318439846182 25.15381798205457 25.15381798205457 25.15381798205457 25.1318439846182 25.15381798205457 25.15381798205457 25.15381798205457 25.15381798205457 25.15381798205457 25.15381798205457 25.15381798205457 25.15381798205457 25.15381798205457 25.175791979490935 25.175791979490935 25.175791979490935 25.175791979490935 25.197765976927304 25.197765976927304 25.241713971800035 25.263687969236404 25.30763596410914 25.35158395898187 25.43947994872734 25.549349935909174 25.615271928218274 25.769089910272843 25.900933894891047 26.032777879509247 26.23054385643655 26.38436183849112 26.648049807727524 27.065555759018494 27.395165720564 27.944515656473172 28.55978758469145 28.955319538546053 29.790331441127996 30.22981138985534 30.911005310382713 31.614173228346456 32.33931514374657 32.84471708478301 33.416041018128546 34.16315693096502 34.93224684123787 35.45962277971068 36.294634682292624 37.4372825489837 38.07452847463834 38.66782640542025 39.41494231825673 40.008240249038636 40.86522614905695 41.43655008240249 42.27156198498443 43.392235854239146 43.98553378502106 44.57883171580296 45.47976561069402 46.09503753891229 47.30360739791247 47.94085332356711 48.70994323383995 49.63285112616737 50.094305072331075 50.90734297747665 51.4786669108222 52.2697308185314 53.060794726240616 53.632118659586155 54.44515656473173 55.28016846731368 55.85149240065922 56.950192272477565 57.47756821095037 58.00494414942318 58.79600805713239 59.34535799304157 60.092473905878045 61.08130379051456 61.56473173411463 62.24592565464201 62.61948361106025 63.080937557223955 63.630287493133125 64.00384544955136 64.641091375206 65.08057132393334 65.34425929316976 65.717817249588 65.93755722395166 66.26716718549716 66.53085515473356 66.70664713422451 66.92638710858817 67.10217908807911 67.19007507782457 67.34389305987915 67.40981505218824 67.45376304706097 67.49771104193371 67.51968503937007 67.56363303424281 67.60758102911555 67.62955502655191 67.62955502655191 67.62955502655191 67.62955502655191 67.62955502655191 67.60758102911555 67.62955502655191 67.60758102911555 67.60758102911555 67.60758102911555 67.60758102911555 67.60758102911555 67.60758102911555 67.60758102911555 67.60758102911555 67.60758102911555 67.60758102911555 67.60758102911555 67.60758102911555 67.60758102911555 67.60758102911555 67.60758102911555 67.60758102911555 67.60758102911555 67.58560703167919 67.58560703167919 67.60758102911555 67.60758102911555 67.58560703167919 67.60758102911555 67.60758102911555 67.58560703167919 67.60758102911555 67.60758102911555 67.60758102911555 67.60758102911555 67.60758102911555 67.58560703167919 67.60758102911555 67.58560703167919 67.60758102911555 67.60758102911555 67.58560703167919 67.58560703167919 67.58560703167919 67.58560703167919 67.58560703167919 67.58560703167919 67.58560703167919 67.58560703167919 67.58560703167919 67.58560703167919 67.56363303424281 67.58560703167919 67.58560703167919 67.58560703167919 67.58560703167919 67.56363303424281 67.58560703167919 67.58560703167919 67.58560703167919 67.58560703167919 67.58560703167919 67.58560703167919 67.58560703167919 67.58560703167919 67.58560703167919 67.58560703167919 67.58560703167919 67.58560703167919 67.58560703167919 67.58560703167919 67.58560703167919 67.58560703167919 67.58560703167919 67.58560703167919 67.58560703167919 67.58560703167919 67.58560703167919 67.58560703167919 67.58560703167919 67.60758102911555 67.60758102911555 67.60758102911555 67.62955502655191 67.62955502655191 67.62955502655191 67.62955502655191 67.62955502655191 67.62955502655191 67.62955502655191 67.60758102911555 67.62955502655191 67.62955502655191 67.62955502655191 67.60758102911555 67.62955502655191 67.62955502655191 67.60758102911555 67.60758102911555 67.60758102911555 67.62955502655191 67.60758102911555 67.60758102911555 67.60758102911555 67.60758102911555 67.60758102911555 67.60758102911555 67.60758102911555 67.60758102911555 67.58560703167919 67.60758102911555 67.58560703167919 67.60758102911555 67.60758102911555 67.60758102911555 67.60758102911555 67.60758102911555 67.60758102911555 67.60758102911555 67.60758102911555 67.60758102911555 67.60758102911555 67.60758102911555 67.60758102911555 67.60758102911555 67.60758102911555 67.60758102911555 67.60758102911555 67.60758102911555 67.60758102911555 67.60758102911555 67.60758102911555 67.60758102911555 67.60758102911555 67.60758102911555 67.60758102911555 67.60758102911555 67.60758102911555 67.60758102911555 67.60758102911555 67.60758102911555 67.60758102911555 67.60758102911555 67.60758102911555 67.60758102911555 67.60758102911555 67.60758102911555 67.60758102911555 67.60758102911555 67.58560703167919 67.58560703167919 67.56363303424281 67.54165903680644 67.54165903680644 67.54165903680644 67.51968503937007 67.54165903680644 67.51968503937007 67.54165903680644 67.54165903680644 67.54165903680644 67.54165903680644 67.54165903680644 67.54165903680644 67.54165903680644 67.54165903680644 67.54165903680644 67.54165903680644 67.54165903680644 67.54165903680644 67.51968503937007 67.49771104193371 67.47573704449735 67.45376304706097 67.45376304706097 67.43178904962461 67.43178904962461 67.43178904962461 67.43178904962461 67.43178904962461 67.43178904962461 67.43178904962461 67.43178904962461 67.43178904962461 67.43178904962461 67.43178904962461 67.43178904962461 67.43178904962461 67.43178904962461 67.43178904962461 67.43178904962461 67.43178904962461 67.43178904962461 67.43178904962461 67.43178904962461 67.43178904962461 67.43178904962461 67.43178904962461 67.43178904962461 67.43178904962461 67.43178904962461 67.43178904962461 67.43178904962461 67.43178904962461 67.43178904962461 67.43178904962461 67.43178904962461 67.43178904962461 67.38784105475187 67.32191906244277 67.25599707013367 67.19007507782457 67.10217908807911 66.99230910089727 66.92638710858817 66.81651712140633 66.70664713422451 66.55282915216993 66.35506317524263 66.20124519318806 65.95953122138803 65.76176524446072 65.47610327778796 65.14649331624244 64.9047793444424 64.39937740340596 64.15766343160593 63.89397546236953 63.322651529023986 63.01501556491485 62.68540560336935 62.20197765976927 61.63065372642373 61.08130379051456 60.509979857169014 60.070499908441676 59.521149972532506 59.1256180186779 58.51034609045962 57.69730818531404 57.47756821095037 56.840322285295734 56.22505035707746 55.60977842885919 55.19227247756821 54.79674052371361 54.203442592931694 53.61014466214979 53.236586705731554 52.68723676982238 52.006042849295 51.6764328877495 51.30287493133126 50.81944698773118 50.445889031312944 49.720747115912836 49.32521516205823 48.73191723127633 48.07269730818531 47.63321735945797 47.061893426112434 46.64438747482146 46.00714154916682 45.36989562351218 44.93041567478484 44.31514374656656 43.787767808093754 43.172495879875484 42.60117194652994 42.20563999267533 41.87603003112983 41.41457608496612 41.06299212598425 40.62351217725691 40.052188243911374 39.788500274674966 39.34902032594763 39.04138436183849 38.68980040285662 38.25032045412928 37.74491851309284 37.21754257462003 36.822010620765425 36.22871268998352 35.48159677714705 34.93224684123787 33.81157297198315 33.284197033510345 33.020509064273945 32.62497711041934 32.29536714887384 31.87786119758286 31.262589269364586 30.691265336019043 30.22981138985534 29.61453946163706 29.087163523164257 28.230177623145945 27.285295733382164 25.856985900018312 25.28566196667277 24.802234023072696 24.164988097418057 24.099066105108953 23.791430140999818 23.32997619483611 23.220106207654275 22.89049624610877 22.758652261490568 22.538912287126898 22.407068302508698 22.209302325581394 22.25325032045413 22.297198315326863 22.31917231276323 22.385094305072332 22.209302325581394 22.209302325581394 22.18732832814503 22.165354330708663 22.077458340963194 22.055484343526828 22.055484343526828 22.03351034609046 22.03351034609046 22.011536348654094 21.96758835378136 21.94561435634499 21.94561435634499 21.94561435634499 21.96758835378136 21.94561435634499 21.96758835378136 21.96758835378136 22.011536348654094 21.94561435634499 21.96758835378136 21.989562351217725 21.94561435634499 21.96758835378136 21.989562351217725 21.989562351217725 22.03351034609046 22.03351034609046 22.077458340963194 22.31917231276323 22.385094305072332 22.516938289690533 22.714704266617836 22.868522248672406 23.76945614356345 24.27485808459989 24.758286028199965 25.021973997436366 25.175791979490935 25.30763596410914 25.395531953854604 25.461453946163708 25.50540194103644 25.50540194103644 25.527375938472808 25.549349935909174 25.571323933345543 25.549349935909174 25.549349935909174 25.571323933345543 25.571323933345543 25.549349935909174 25.549349935909174 25.549349935909174 25.549349935909174 25.549349935909174 25.549349935909174 25.549349935909174 25.549349935909174 25.527375938472808 25.527375938472808 25.527375938472808 25.527375938472808 25.527375938472808 25.527375938472808 25.527375938472808 25.50540194103644 25.50540194103644 25.50540194103644 25.50540194103644 25.50540194103644 25.50540194103644 25.50540194103644 25.50540194103644 25.483427943600073 25.50540194103644 25.50540194103644 25.483427943600073 25.483427943600073 25.483427943600073 25.483427943600073 25.483427943600073 25.483427943600073 25.483427943600073 25.483427943600073 25.483427943600073 25.483427943600073 25.483427943600073 25.461453946163708 25.483427943600073 25.483427943600073 25.483427943600073 25.461453946163708 25.461453946163708 25.461453946163708 25.461453946163708 25.461453946163708 25.461453946163708 25.461453946163708 25.43947994872734 25.461453946163708 25.43947994872734 25.43947994872734 25.43947994872734 25.417505951290973 25.417505951290973 25.417505951290973 25.417505951290973 25.417505951290973 25.417505951290973 25.417505951290973 25.417505951290973 25.417505951290973 25.395531953854604 25.417505951290973 25.395531953854604 25.395531953854604 25.395531953854604 25.395531953854604 25.395531953854604 25.395531953854604 25.395531953854604 25.395531953854604 25.395531953854604 25.395531953854604 25.395531953854604 25.395531953854604 25.395531953854604 25.395531953854604 25.37355795641824 25.37355795641824 25.37355795641824 25.37355795641824 25.37355795641824 25.37355795641824 25.37355795641824 25.37355795641824 25.37355795641824 25.37355795641824 25.37355795641824 25.37355795641824 25.37355795641824 25.35158395898187 25.35158395898187 25.35158395898187 25.35158395898187 25.35158395898187 25.35158395898187 25.35158395898187 25.35158395898187 25.35158395898187 25.35158395898187 25.35158395898187 25.35158395898187 25.329609961545504 25.329609961545504 25.329609961545504 25.329609961545504 25.329609961545504 25.329609961545504 25.329609961545504 25.329609961545504 25.329609961545504 25.329609961545504 25.329609961545504 25.329609961545504 25.329609961545504 25.329609961545504 25.329609961545504 25.329609961545504 25.329609961545504 25.329609961545504 25.329609961545504 25.329609961545504 25.329609961545504 25.329609961545504 25.329609961545504 25.329609961545504 25.329609961545504 25.329609961545504 25.329609961545504 25.329609961545504 25.329609961545504 25.329609961545504 25.329609961545504 25.30763596410914 25.329609961545504 25.329609961545504 25.329609961545504 25.329609961545504 25.30763596410914 25.329609961545504 25.329609961545504 25.329609961545504 25.30763596410914 25.30763596410914 25.329609961545504 25.30763596410914 25.30763596410914 25.329609961545504 25.329609961545504 25.329609961545504 25.329609961545504 25.30763596410914 25.329609961545504 25.30763596410914 25.329609961545504 25.30763596410914 25.329609961545504 25.30763596410914 25.30763596410914 25.30763596410914 25.30763596410914 25.30763596410914 25.30763596410914 25.30763596410914 25.30763596410914 25.28566196667277 25.30763596410914 25.30763596410914 25.30763596410914 25.28566196667277 25.30763596410914 25.28566196667277 25.30763596410914 25.28566196667277 25.28566196667277 25.28566196667277 25.28566196667277 25.28566196667277 25.28566196667277 25.28566196667277 25.28566196667277 25.28566196667277 25.30763596410914 25.30763596410914 25.30763596410914 25.30763596410914 25.30763596410914 25.329609961545504 25.329609961545504 25.329609961545504 25.35158395898187 25.35158395898187 25.37355795641824 25.37355795641824 25.395531953854604 25.417505951290973 25.461453946163708 25.527375938472808 25.571323933345543 25.769089910272843 25.878959897454678 25.988829884636512 26.164621864127447 26.29646584874565 26.51620582310932 26.757919794909355 27.02160776414576 27.461087712873102 27.922541659036806 28.208203625709576 28.75755356161875 29.240981505218826 29.70243545138253 29.900201428309835 30.471525361655374 31.614173228346456 32.66892510529207 33.416041018128546 34.55868888481963 34.93224684123787 35.89910272843802 37.041750595129095 37.7668925105292 38.84361838491119 40.162058231093205 41.019044131111514 42.2276139901117 42.97472990294818 43.655923823475554 44.6227797106757 45.61160959531222 46.556491485075995 47.54532136971251 48.27046328511261 49.369163156930966 50.138253067203806 51.25892693645852 52.357626808276876 53.08276872367698 54.11554660318623 55.12635048525911 55.80754440578649 56.8622962827321 57.78520417505951 58.42245010071415 59.34535799304157 59.960629921259844 60.86156381615089 61.7185497161692 62.55356161875115 63.278703534151255 63.784105475187694 64.13568943416956 64.94872733931514 65.41018128547884 66.1133492034426 66.79454312396996 67.23402307269731 67.89324299578831 68.33272294451567 68.9699688701703 69.54129280351583 69.93682475737045 70.33235671122506 70.72788866507966 70.99157663431606 71.2992125984252 71.4969785753525 71.7606665445889 71.98040651895258 72.13422450100714 72.35396447537082 72.52975645486175 72.63962644204358 72.74949642922542 72.8373924189709 72.90331441127998 73.01318439846182 73.05713239333456 73.14502838308002 73.18897637795277 73.27687236769822 73.34279436000733 73.3647683574437 73.38674235488006 73.40871635231643 73.40871635231643 73.38674235488006 73.40871635231643 73.40871635231643 73.40871635231643 73.40871635231643 73.4306903497528 73.40871635231643 73.40871635231643 73.40871635231643 73.4306903497528 73.40871635231643 73.40871635231643 73.40871635231643 73.40871635231643 73.40871635231643 73.38674235488006 73.40871635231643 73.38674235488006 73.38674235488006 73.38674235488006 73.40871635231643 73.38674235488006 73.38674235488006 73.38674235488006 73.38674235488006 73.38674235488006 73.34279436000733 73.29884636513458 73.25489837026186 73.2329243728255 73.21095037538913 73.21095037538913 73.21095037538913 73.21095037538913 73.21095037538913 73.21095037538913 73.18897637795277 73.18897637795277 73.18897637795277 73.18897637795277 73.18897637795277 73.18897637795277 73.21095037538913 73.21095037538913 73.21095037538913 73.21095037538913 73.21095037538913 73.21095037538913 73.21095037538913 73.21095037538913 73.18897637795277 73.21095037538913 73.18897637795277 73.18897637795277 73.21095037538913 73.18897637795277 73.16700238051638 73.14502838308002 73.07910639077092 73.05713239333456 73.03515839589818 73.03515839589818 73.05713239333456 73.03515839589818 73.05713239333456 73.05713239333456 73.05713239333456 73.05713239333456 73.05713239333456 73.05713239333456 73.05713239333456 73.05713239333456 73.05713239333456 73.05713239333456 73.03515839589818 73.05713239333456 73.05713239333456 73.05713239333456 73.05713239333456 73.05713239333456 73.05713239333456 73.05713239333456 73.05713239333456 73.05713239333456 73.05713239333456 73.05713239333456 73.05713239333456 73.05713239333456 73.05713239333456 73.05713239333456 73.05713239333456 73.05713239333456 73.03515839589818 73.05713239333456 73.05713239333456 73.05713239333456 73.03515839589818 73.03515839589818 73.01318439846182 72.99121040102546 73.01318439846182 73.01318439846182 73.01318439846182 73.01318439846182 72.94726240615272 72.92528840871636 72.88134041384362 72.8373924189709 72.81541842153452 72.79344442409815 72.77147042666178 72.77147042666178 72.74949642922542 72.70554843435269 72.70554843435269 72.66160043947995 72.63962644204358 72.61765244460722 72.59567844717085 72.57370444973449 72.57370444973449 72.57370444973449 72.52975645486175 72.52975645486175 72.48580845998902 72.44186046511629 72.44186046511629 72.4198864676799 72.39791247024354 72.39791247024354 72.37593847280718 72.37593847280718 72.35396447537082 72.37593847280718 72.37593847280718 72.37593847280718 72.35396447537082 72.37593847280718 72.37593847280718 72.35396447537082 72.35396447537082 72.35396447537082 72.35396447537082 72.35396447537082 72.35396447537082 72.35396447537082 72.35396447537082 72.35396447537082 72.35396447537082 72.35396447537082 72.35396447537082 72.35396447537082 72.33199047793445 72.33199047793445 72.31001648049809 72.2880424830617 72.26606848562534 72.24409448818898 72.22212049075262 72.22212049075262 72.17817249587988 72.20014649331624 72.17817249587988 72.17817249587988 72.17817249587988 72.13422450100714 72.13422450100714 72.13422450100714 72.13422450100714 72.13422450100714 72.11225050357078 72.11225050357078 72.11225050357078 72.11225050357078 72.11225050357078 72.09027650613442 72.09027650613442 72.04632851126168 72.0243545138253 72.0243545138253 72.00238051638894 72.00238051638894 71.98040651895258 71.95843252151622 71.95843252151622 71.91448452664348 71.91448452664348 71.8925105292071 71.8925105292071 71.87053653177074 71.87053653177074 71.82658853689802 71.80461453946164 71.80461453946164 71.78264054202528 71.78264054202528 71.78264054202528 71.7606665445889 71.73869254715254 71.73869254715254 71.73869254715254 71.71671854971618 71.71671854971618 71.69474455227981 71.67277055484342 71.67277055484342 71.6288225599707 71.60684856253434 71.60684856253434 71.58487456509798 71.56290056766161 71.54092657022522 71.4969785753525 71.4969785753525 71.47500457791614 71.47500457791614 71.47500457791614 71.47500457791614 71.47500457791614 71.47500457791614 71.47500457791614 71.47500457791614 71.47500457791614 71.47500457791614 71.47500457791614 71.47500457791614 71.47500457791614 71.47500457791614 71.47500457791614 71.45303058047976 71.4310565830434 71.40908258560702 71.40908258560702 71.38710858817066 71.38710858817066 71.38710858817066 71.34316059329794 71.3651345907343 71.3651345907343 71.3651345907343 71.3651345907343 71.34316059329794 71.3651345907343 71.34316059329794 71.3651345907343 71.3651345907343 71.34316059329794 71.34316059329794 71.3651345907343 71.34316059329794 71.34316059329794 71.3651345907343 71.32118659586156 71.2992125984252 71.2332906061161 71.167368613807 71.07947262406154 70.94762863944334 70.8377586522615 70.77183665995238 70.85973264969786 70.9036806445706 70.74986266251602 70.48617469327962 70.26643471891595 69.93682475737045 69.58524079838858 69.32155282915217 68.92602087529757 68.66233290606115 68.31074894707929 67.93719099066105 67.65152902398827 67.21204907526095 66.79454312396996 66.48690715986083 66.00347921626076 65.67386925471524 65.19044131111518 64.70701336751512 64.3774034059696 63.718183482878594 63.344625526460355 62.971067570042116 62.20197765976927 61.76249771104193 61.23512177256912 60.663797839223584 60.246291887932614 59.69694195202344 59.34535799304157 58.81798205456876 58.18073612891412 57.74125618018678 57.125984251968504 56.33492034425929 55.52188243911371 54.86266251602271 54.203442592931694 53.500274674967955 53.060794726240616 52.75315876213148 52.22578282365867 51.69840688518586 51.36879692364036 51.083134956967584 50.46786302874931 50.028383080021975 49.3471891594946 48.81981322102179 48.05072331074895 47.30360739791247 46.754257462003295 45.89727156198498 45.30397363120308 44.71067570042116 44.16132576451199 43.87566379783922 43.348287859366415 42.842885918329976 42.53524995422084 41.76616004394799 41.70023805163889 41.15088811572972 40.62351217725691 40.27192821827504 39.656656290056766 39.04138436183849 38.62387841054752 38.03058047976561 37.65702252334737 37.415308551547334 36.931880607947264 36.58029664896539 36.20673869254715 35.76725874381981 35.50357077458341 35.0421168284197 34.7784288591833 34.207104925837754 33.61380699505585 33.350119025819446 33.020509064273945 32.800769089910276 32.66892510529207 32.36128914118294 32.20747115912837 32.185497161692 31.921809192455594 31.81193920527376 31.46035524629189 30.932979307819082 30.647317341146312 30.14191540010987 29.76835744369163 29.306903497527927 28.581761582127815 27.922541659036806 27.04358176158213 26.14264786669108 25.43947994872734 25.021973997436366 24.824208020509065 24.582494048709027 24.252884087163523 24.055118110236222 23.76945614356345 23.54971616919978 23.373924189708845 23.088262223036075 22.82457425379967 22.736678264054202 22.582860281999633 22.472990294817798 22.363120307635963 22.275224317890498 22.18732832814503 22.165354330708663 22.231276323017763 22.407068302508698 22.429042299945067 22.385094305072332 22.209302325581394 22.165354330708663 22.18732832814503 22.09943233839956 22.077458340963194 22.077458340963194 22.077458340963194 22.077458340963194 22.055484343526828 22.055484343526828 22.055484343526828 22.03351034609046 22.077458340963194 22.055484343526828 22.03351034609046 22.055484343526828 22.03351034609046 22.03351034609046 22.011536348654094 22.03351034609046 22.077458340963194 22.077458340963194 22.077458340963194 22.09943233839956 22.12140633583593 22.09943233839956 22.165354330708663 22.209302325581394 22.429042299945067 22.516938289690533 22.692730269181467 22.736678264054202 22.736678264054202 22.758652261490568 22.758652261490568 22.846548251236037 22.89049624610877 22.934444240981506 23.32997619483611 23.92327412561802 24.318806079472623 24.428676066654457 24.670390038454496 25.0 25.15381798205457 25.30763596410914 25.417505951290973 25.461453946163708 25.50540194103644 25.527375938472808 25.571323933345543 25.571323933345543 25.593297930781908 25.593297930781908 25.593297930781908 25.593297930781908 25.593297930781908 25.593297930781908 25.593297930781908 25.593297930781908 25.593297930781908 25.593297930781908 25.615271928218274 25.593297930781908 25.615271928218274 25.615271928218274 25.615271928218274 25.615271928218274 25.615271928218274 25.615271928218274 25.615271928218274 25.615271928218274 25.615271928218274 25.615271928218274 25.615271928218274 25.615271928218274 25.615271928218274 25.615271928218274 25.615271928218274 25.615271928218274 25.615271928218274 25.615271928218274 25.615271928218274 25.615271928218274 25.615271928218274 25.615271928218274 25.615271928218274 25.615271928218274 25.615271928218274 25.615271928218274 25.615271928218274 25.615271928218274 25.615271928218274 25.615271928218274 25.615271928218274 25.615271928218274 25.615271928218274 25.615271928218274 25.615271928218274 25.615271928218274 25.615271928218274 25.615271928218274 25.615271928218274 25.615271928218274 25.615271928218274 25.615271928218274 25.593297930781908 25.593297930781908 25.593297930781908 25.615271928218274 25.593297930781908 25.593297930781908 25.593297930781908 25.593297930781908 25.615271928218274 25.615271928218274 25.593297930781908 25.593297930781908 25.593297930781908 25.593297930781908 25.593297930781908 25.593297930781908 25.593297930781908 25.593297930781908 25.571323933345543 25.571323933345543 25.571323933345543 25.571323933345543 25.549349935909174 25.571323933345543 25.549349935909174 25.549349935909174 25.549349935909174 25.571323933345543 25.549349935909174 25.549349935909174 25.571323933345543 25.571323933345543 25.571323933345543 25.571323933345543 25.571323933345543 25.593297930781908 25.593297930781908 25.615271928218274 25.615271928218274 25.615271928218274 25.65921992309101 25.65921992309101 25.747115912836477 25.769089910272843 25.65921992309101 23.879326130745284 23.39589818714521 23.373924189708845 23.373924189708845 23.32997619483611 23.373924189708845 23.32997619483611 23.04431422816334 24.164988097418057 25.109869987181835 26.691997802600255 27.790697674418606 28.362021607764145 29.76835744369163 31.174693279619117 31.87786119758286 33.108405054019414 33.701702984801315 34.25105292071049 35.28383080021974 35.61344076176525 36.272660684856255 37.261490569492764 37.7668925105292 38.53598242080205 39.06335835927486 39.590734297747666 40.68943416956601 41.15088811572972 42.07379600805713 42.88683391320271 43.502105841420985 44.24922175425746 44.79857169016664 45.61160959531222 46.402673503021425 46.93004944149423 47.69913935176707 48.49020325947629 49.06152719282183 49.874565097967405 50.73155099798572 51.32484892876762 52.22578282365867 52.81908075444058 53.720014649331624 54.57700054934993 55.47793444424098 56.33492034425929 56.906244277604834 57.58743819813221 58.59824208020509 59.14759201611427 59.982603918696206 60.75169382896905 61.32301776231459 62.09210767258744 62.59750961362388 63.366599523896724 64.15766343160593 64.66306537264236 65.41018128547884 66.13532320087896 66.6407251419154 67.29994506500641 67.76139901117011 68.50851492400659 69.12378685222487 69.58524079838858 70.26643471891595 70.77183665995238 71.07947262406154 71.45303058047976 71.67277055484342 71.8925105292071 72.09027650613442 72.2880424830617 72.39791247024354 72.46383446255265 72.48580845998902 72.52975645486175 72.55173045229812 72.57370444973449 72.57370444973449 72.55173045229812 72.55173045229812 72.55173045229812 72.52975645486175 72.46383446255265 72.44186046511629 72.44186046511629 72.39791247024354 72.39791247024354 72.39791247024354 72.39791247024354 72.39791247024354 72.37593847280718 72.37593847280718 72.35396447537082 72.33199047793445 72.31001648049809 72.26606848562534 72.22212049075262 72.17817249587988 72.11225050357078 72.06830250869804 71.98040651895258 71.95843252151622 71.91448452664348 71.87053653177074 71.84856253433438 71.82658853689802 71.78264054202528 71.78264054202528 71.7606665445889 71.73869254715254 71.7606665445889 71.73869254715254 71.73869254715254 71.73869254715254 71.73869254715254 71.73869254715254 71.73869254715254 71.73869254715254 71.71671854971618 71.71671854971618 71.71671854971618 71.67277055484342 71.65079655740706 71.65079655740706 71.6288225599707 71.60684856253434 71.58487456509798 71.56290056766161 71.56290056766161 71.54092657022522 71.51895257278886 71.4969785753525 71.47500457791614 71.45303058047976 71.45303058047976 71.4310565830434 71.40908258560702 71.40908258560702 71.38710858817066 71.38710858817066 71.34316059329794 71.32118659586156 71.2992125984252 71.25526460355246 71.2332906061161 71.18934261124336 71.18934261124336 71.21131660867974 71.18934261124336 71.18934261124336 71.18934261124336 71.18934261124336 71.18934261124336 71.18934261124336 71.18934261124336 71.18934261124336 71.167368613807 71.167368613807 71.167368613807 71.12342061893426 71.1014466214979 71.05749862662516 71.0355246291888 71.0355246291888 70.99157663431606 70.99157663431606 70.9696026368797 70.94762863944334 70.92565464200696 70.92565464200696 70.92565464200696 70.92565464200696 70.92565464200696 70.92565464200696 70.92565464200696 70.92565464200696 70.92565464200696 70.92565464200696 70.92565464200696 70.92565464200696 70.92565464200696 70.92565464200696 70.92565464200696 70.92565464200696 70.9036806445706 70.9036806445706 70.9036806445706 70.9036806445706 70.9036806445706 70.9036806445706 70.9036806445706 70.9036806445706 70.88170664713422 70.85973264969786 70.85973264969786 70.8377586522615 70.79381065738875 70.77183665995238 70.77183665995238 70.72788866507966 70.70591466764328 70.68394067020692 70.66196667277055 70.66196667277055 70.63999267533418 70.63999267533418 70.63999267533418 70.63999267533418 70.61801867789782 70.61801867789782 70.61801867789782 70.59604468046146 70.57407068302508 70.53012268815235 70.44222669840688 70.39827870353415 70.35433070866142 70.31038271378868 70.26643471891595 70.24446072147958 70.20051272660686 70.17853872917048 70.15656473173412 70.15656473173412 70.15656473173412 70.15656473173412 70.15656473173412 70.15656473173412 70.15656473173412 70.15656473173412 70.13459073429775 70.15656473173412 70.15656473173412 70.15656473173412 70.15656473173412 70.15656473173412 70.15656473173412 70.15656473173412 70.15656473173412 70.15656473173412 70.15656473173412 70.13459073429775 70.13459073429775 70.13459073429775 70.13459073429775 70.11261673686138 70.11261673686138 70.09064273942502 70.06866874198866 70.04669474455227 70.04669474455227 70.02472074711591 70.00274674967955 70.00274674967955 69.98077275224318 69.98077275224318 69.93682475737045 69.91485075993407 69.91485075993407 69.87090276506135 69.87090276506135 69.87090276506135 69.8269547701886 69.80498077275224 69.7610327778795 69.67313678813403 69.58524079838858 69.3655008240249 69.12378685222487 69.03589086247939 68.79417689067935 68.50851492400659 68.33272294451567 67.95916498809743 67.73942501373375 67.38784105475187 67.05823109320637 66.83849111884271 66.46493316242447 66.1792711957517 65.73979124702436 65.23438930598792 64.88280534700604 64.28950741622413 63.67423548800586 63.058963559787585 62.42171763413294 62.18000366233291 61.586705731551 60.90551181102362 60.46603186229628 59.521149972532506 58.75206006225966 58.24665812122322 57.47756821095037 56.972166269913934 56.488738326313864 55.56583043398645 55.10437648782275 54.44515656473173 53.80791063907709 53.346456692913385 52.66526277238601 52.2038088262223 51.4786669108222 50.84142098516755 50.35799304156748 49.588903131294636 49.03955319538546 48.24848928767625 47.193737410730634 46.64438747482146 46.09503753891229 45.39186962094854 44.8864676799121 44.139351767075624 43.699871818348285 42.82091192089361 42.18366599523897 41.76616004394799 41.30470609778429 40.535616187511444 40.162058231093205 39.5687603003113 39.173228346456696 38.62387841054752 37.96465848745651 37.48123054385644 36.470426661783556 35.96502472074712 35.39370078740157 34.55868888481963 34.009338948910454 33.196301043764876 32.03167917963743 31.43838124885552 30.603369346273574 30.14191540010987 29.680461453946165 28.47189159494598 27.768723676982237 26.999633766709394 26.406335835927486 26.120673869254716 25.835011902581943 25.549349935909174 25.241713971800035 25.0659219923091 25.30763596410914 25.0 25.021973997436366 25.08789598974547 25.08789598974547 25.0 24.9340780076909 24.824208020509065 24.62644204358176 24.318806079472623 24.186962094854422 24.033144112799853 23.901300128181653 23.835378135872553 23.85735213330892 24.538546053836292 25.461453946163708 25.769089910272843 25.856985900018312 25.835011902581943 25.856985900018312 25.856985900018312 25.835011902581943 25.856985900018312 25.856985900018312 25.856985900018312 25.856985900018312 25.835011902581943 25.813037905145578 25.791063907709212 25.72514191540011 25.681193920527377 25.65921992309101 25.637245925654643 25.615271928218274 25.593297930781908 25.571323933345543 25.549349935909174 25.571323933345543 25.549349935909174 25.527375938472808 25.50540194103644 25.483427943600073 25.461453946163708 25.461453946163708 25.43947994872734 25.43947994872734 25.417505951290973 25.417505951290973 25.395531953854604 25.395531953854604 25.37355795641824 25.37355795641824 25.35158395898187 25.35158395898187 25.35158395898187 25.35158395898187 25.329609961545504 25.329609961545504 25.30763596410914 25.30763596410914 25.30763596410914 25.30763596410914 25.30763596410914 25.28566196667277 25.28566196667277 25.28566196667277 25.28566196667277 25.28566196667277 25.28566196667277 25.263687969236404 25.263687969236404 25.263687969236404 25.263687969236404 25.263687969236404 25.263687969236404 25.241713971800035 25.263687969236404 25.241713971800035 25.241713971800035 25.241713971800035 25.241713971800035 25.241713971800035 25.241713971800035 25.241713971800035 25.21973997436367 25.21973997436367 25.21973997436367 25.21973997436367 25.21973997436367 25.21973997436367 25.21973997436367 25.21973997436367 25.21973997436367 25.21973997436367 25.21973997436367 25.21973997436367 25.21973997436367 25.21973997436367 25.197765976927304 25.197765976927304 25.21973997436367 25.197765976927304 25.197765976927304 25.197765976927304 25.197765976927304 25.197765976927304 25.197765976927304 25.197765976927304 25.197765976927304 25.197765976927304 25.197765976927304 25.197765976927304 25.175791979490935 25.197765976927304 25.197765976927304 25.175791979490935 25.197765976927304 25.175791979490935 25.175791979490935 25.175791979490935 25.175791979490935 25.175791979490935 25.175791979490935 25.175791979490935 25.175791979490935 25.175791979490935 25.175791979490935 25.175791979490935 25.175791979490935 25.175791979490935 25.175791979490935 25.175791979490935 25.175791979490935 25.175791979490935 25.15381798205457 25.175791979490935 25.175791979490935 25.15381798205457 25.15381798205457 25.15381798205457 25.15381798205457 25.15381798205457 25.15381798205457 25.15381798205457 25.15381798205457 25.15381798205457 25.15381798205457 25.15381798205457 25.15381798205457 25.15381798205457 25.15381798205457 25.15381798205457 25.15381798205457 25.15381798205457 25.15381798205457 25.15381798205457 25.15381798205457 25.15381798205457 25.15381798205457 25.15381798205457 25.15381798205457 25.15381798205457 25.15381798205457 25.15381798205457 25.15381798205457 25.15381798205457 25.15381798205457 25.15381798205457 25.15381798205457 25.15381798205457 25.15381798205457 25.15381798205457 25.15381798205457 25.1318439846182 25.15381798205457 25.1318439846182 25.1318439846182 25.15381798205457 25.15381798205457 25.15381798205457 25.15381798205457 25.1318439846182 25.15381798205457 25.1318439846182 25.1318439846182 25.1318439846182 25.15381798205457 25.1318439846182 25.15381798205457 25.1318439846182 25.1318439846182 25.1318439846182 25.1318439846182 25.1318439846182 25.1318439846182 25.1318439846182 25.1318439846182 25.1318439846182 25.1318439846182 25.1318439846182 25.1318439846182 25.1318439846182 25.1318439846182 25.1318439846182 25.1318439846182 25.1318439846182 25.1318439846182 25.1318439846182 25.1318439846182 25.1318439846182 25.1318439846182 25.1318439846182 25.1318439846182 25.1318439846182 25.1318439846182 25.1318439846182 25.109869987181835 25.1318439846182 25.1318439846182 25.109869987181835 25.109869987181835 25.1318439846182 25.109869987181835 25.109869987181835 25.1318439846182 25.1318439846182 25.1318439846182 25.109869987181835 25.109869987181835 25.109869987181835 25.109869987181835 25.109869987181835 25.109869987181835 25.109869987181835 25.109869987181835 25.109869987181835 25.109869987181835 25.109869987181835 25.109869987181835 25.109869987181835 25.109869987181835 25.109869987181835 25.109869987181835 25.109869987181835 25.08789598974547 25.08789598974547 25.08789598974547 25.08789598974547 25.08789598974547 25.08789598974547 25.08789598974547 25.08789598974547 25.08789598974547 25.08789598974547 25.08789598974547 25.08789598974547 25.08789598974547 25.08789598974547 25.08789598974547 25.08789598974547 25.08789598974547 25.109869987181835 25.109869987181835 25.109869987181835 25.109869987181835 25.109869987181835 25.109869987181835 25.109869987181835 25.109869987181835 25.1318439846182 25.109869987181835 25.1318439846182 25.1318439846182 25.15381798205457 25.15381798205457 25.15381798205457 25.175791979490935 25.21973997436367 25.21973997436367 25.241713971800035 25.263687969236404 25.28566196667277 25.329609961545504 25.37355795641824 25.461453946163708 25.549349935909174 25.681193920527377 25.791063907709212 25.900933894891047 26.01080388207288 26.252517853872916 26.36238784105475 26.560153817982055 26.779893792345725 26.95568577183666 27.307269730818533 27.570957700054933 28.010437648782275 28.581761582127815 28.999267533418788 29.724409448818896 30.383629371909905 30.932979307819082 31.59219923091009 32.3832631386193 32.91063907709211 33.723676982237684 34.29500091558323 35.37172678996521 35.921076725874386 36.73411463101996 37.5691265336019 38.11847646951108 38.68980040285662 39.788500274674966 40.315876213147774 41.15088811572972 41.9639260208753 42.53524995422084 43.348287859366415 43.91961179271196 44.73264969785754 45.63358359274858 46.27082951840322 47.215711408167 47.98480131843985 49.32521516205823 50.050357077458344 50.81944698773118 51.9401208569859 53.060794726240616 53.829884636513455 55.25819446987731 55.983336385277426 57.060062259659404 58.04889214429592 58.73008606482329 59.4552279802234 60.641823841787215 61.23512177256912 62.07013367515107 62.57553561618751 63.256729536714886 63.915949459805894 64.53122138802416 64.92675334187878 65.47610327778796 65.8496612342062 66.39901117011536 66.75059512909723 67.40981505218824 67.82732100347921 68.09100897271563 68.35469694195203 68.68430690349753 68.92602087529757 69.3655008240249 69.58524079838858 69.8269547701886 70.02472074711591 70.11261673686138 70.22248672404322 70.24446072147958 70.26643471891595 70.26643471891595 70.26643471891595 70.24446072147958 70.24446072147958 70.24446072147958 70.20051272660686 70.17853872917048 70.13459073429775 70.09064273942502 70.09064273942502 70.06866874198866 70.04669474455227 70.06866874198866 70.06866874198866 70.06866874198866 70.06866874198866 70.06866874198866 70.04669474455227 70.04669474455227 70.02472074711591 70.00274674967955 69.95879875480682 69.93682475737045 69.91485075993407 69.87090276506135 69.84892876762498 69.8269547701886 69.8269547701886 69.84892876762498 69.8269547701886 69.8269547701886 69.8269547701886 69.8269547701886 69.8269547701886 69.8269547701886 69.8269547701886 69.84892876762498 69.8269547701886 69.84892876762498 69.84892876762498 69.8269547701886 69.8269547701886 69.8269547701886 69.8269547701886 69.8269547701886 69.8269547701886 69.8269547701886 69.8269547701886 69.8269547701886 69.8269547701886 69.8269547701886 69.8269547701886 69.8269547701886 69.8269547701886 69.84892876762498 69.8269547701886 69.8269547701886 69.84892876762498 69.84892876762498 69.84892876762498 69.84892876762498 69.84892876762498 69.84892876762498 69.8269547701886 69.84892876762498 69.8269547701886 69.80498077275224 69.80498077275224 69.78300677531587 69.78300677531587 69.78300677531587 69.7610327778795 69.73905878044314 69.73905878044314 69.71708478300678 69.71708478300678 69.6951107855704 69.6951107855704 69.6951107855704 69.67313678813403 69.65116279069767 69.6291887932613 69.6291887932613 69.60721479582494 69.58524079838858 69.5632668009522 69.54129280351583 69.51931880607947 69.51931880607947 69.4973448086431 69.47537081120674 69.47537081120674 69.47537081120674 69.431422816334 69.40944881889763 69.40944881889763 69.3655008240249 69.3655008240249 69.34352682658854 69.32155282915217 69.32155282915217 69.32155282915217 69.32155282915217 69.32155282915217 69.32155282915217 69.32155282915217 69.32155282915217 69.32155282915217 69.32155282915217 69.32155282915217 69.32155282915217 69.32155282915217 69.32155282915217 69.32155282915217 69.32155282915217 69.32155282915217 69.32155282915217 69.32155282915217 69.32155282915217 69.32155282915217 69.32155282915217 69.32155282915217 69.32155282915217 69.32155282915217 69.32155282915217 69.32155282915217 69.32155282915217 69.34352682658854 69.32155282915217 69.32155282915217 69.32155282915217 69.32155282915217 69.32155282915217 69.32155282915217 69.32155282915217 69.2995788317158 69.27760483427943 69.27760483427943 69.27760483427943 69.27760483427943 69.27760483427943 69.25563083684307 69.25563083684307 69.25563083684307 69.27760483427943 69.27760483427943 69.25563083684307 69.27760483427943 69.27760483427943 69.25563083684307 69.27760483427943 69.27760483427943 69.25563083684307 69.25563083684307 69.2336568394067 69.2336568394067 69.21168284197034 69.2336568394067 69.2336568394067 69.2336568394067 69.2336568394067 69.18970884453397 69.16773484709759 69.14576084966123 69.14576084966123 69.14576084966123 69.14576084966123 69.12378685222487 69.1018128547885 69.05786485991577 69.05786485991577 69.03589086247939 69.01391686504303 68.99194286760667 68.99194286760667 68.99194286760667 69.01391686504303 68.99194286760667 69.01391686504303 68.99194286760667 68.99194286760667 68.99194286760667 68.99194286760667 68.99194286760667 69.01391686504303 69.01391686504303 68.99194286760667 68.99194286760667 68.99194286760667 68.99194286760667 68.9699688701703 68.94799487273393 68.94799487273393 68.92602087529757 68.90404687786119 68.90404687786119 68.90404687786119 68.90404687786119 68.90404687786119 68.90404687786119 68.88207288042483 68.88207288042483 68.88207288042483 68.88207288042483 68.88207288042483 68.90404687786119 68.86009888298847 68.86009888298847 68.86009888298847 68.8381248855521 68.81615088811573 68.79417689067935 68.77220289324299 68.77220289324299 68.77220289324299 68.77220289324299 68.77220289324299 68.77220289324299 68.75022889580663 68.77220289324299 68.75022889580663 68.75022889580663 68.7062809009339 68.7062809009339 68.68430690349753 68.64035890862479 68.64035890862479 68.61838491118843 68.59641091375207 68.59641091375207 68.57443691631569 68.57443691631569 68.57443691631569 68.57443691631569 68.57443691631569 68.59641091375207 68.57443691631569 68.57443691631569 68.57443691631569 68.57443691631569 68.57443691631569 68.57443691631569 68.57443691631569 68.57443691631569 68.57443691631569 68.57443691631569 68.57443691631569 68.57443691631569 68.57443691631569 68.57443691631569 68.57443691631569 68.57443691631569 68.57443691631569 68.57443691631569 68.59641091375207 68.59641091375207 68.57443691631569 68.57443691631569 68.57443691631569 68.57443691631569 68.55246291887933 68.55246291887933 68.50851492400659 68.50851492400659 68.50851492400659 68.48654092657023 68.50851492400659 68.48654092657023 68.48654092657023 68.46456692913387 68.46456692913387 68.46456692913387 68.44259293169749 68.42061893426111 68.42061893426111 68.37667093938839 68.31074894707929 68.24482695477019 68.09100897271563 67.78337300860647 67.60758102911555 67.40981505218824 67.19007507782457 66.70664713422451 66.4429591649881 66.1792711957517 65.76176524446072 65.36623329060612 65.10254532136972 64.68503937007874 64.3774034059696 64.06976744186046 63.476469511078555 63.16883354696942 62.66343160593298 62.18000366233291 61.7844717084783 61.25709577000549 60.70774583409632 60.312213880241714 59.69694195202344 59.27943600073247 58.66416407251419 58.02691814685955 57.41164621864127 56.77440029298663 56.33492034425929 55.917414392968325 55.30214246475005 54.88463651345907 54.269364585240794 53.478300677531585 53.060794726240616 52.46749679545871 52.04999084416774 51.41274491851309 50.99523896722212 50.35799304156748 49.654825123603736 48.95165720563999 48.40230726973082 47.72111334920344 47.259659403039734 46.622413477385095 45.96319355429409 45.50173960813038 44.79857169016664 44.2931697491302 43.568027833730085 42.62314594396631 42.1616919978026 41.65629005676616 41.12891411829335 40.75535616187511 40.206006225965936 39.8324482695477 39.08533235671123 38.57993041567478 38.25032045412928 37.89873649514741 37.393334554110965 37.15162058231093 36.690166636147225 36.426478666910825 35.986998718183486 35.54751876945615 35.26185680278337 34.8443508514924 34.40487090276506 34.09723493865592 33.67972898736495 33.306171030946714 32.82274308734664 32.40523713605567 32.00970518220106 31.57022523347372 31.21864127449185 30.845083318073613 30.163889397546235 29.812305438564366 29.284929500091557 28.362021607764145 27.395165720564 26.164621864127447 25.835011902581943 25.527375938472808 25.109869987181835 24.9340780076909 24.71433803332723 24.121040102545322 23.98919611792712 23.835378135872553 23.791430140999818 23.61563816150888 23.48379417689068 23.461820179454314 23.308002197399745 23.220106207654275 23.154184215345175 23.000366233290606 22.912470243545137 22.868522248672406 22.736678264054202 22.802600256363302 22.780626258926937 22.692730269181467 22.538912287126898 22.429042299945067 22.31917231276323 22.297198315326863 22.25325032045413 22.25325032045413 22.25325032045413 22.231276323017763 22.297198315326863 22.297198315326863 22.25325032045413 22.297198315326863 22.275224317890498 22.297198315326863 22.385094305072332 22.407068302508698 22.385094305072332 22.429042299945067 22.407068302508698 22.429042299945067 22.429042299945067 22.429042299945067 22.516938289690533 22.582860281999633 22.670756271745102 22.736678264054202 22.82457425379967 22.97839223585424 23.17615821278154 23.63761215894525 24.71433803332723 25.043947994872735 25.109869987181835 25.175791979490935 25.197765976927304 25.241713971800035 25.35158395898187 25.417505951290973 25.50540194103644 25.571323933345543 25.593297930781908 25.615271928218274 25.615271928218274 25.615271928218274 25.615271928218274 25.615271928218274 25.593297930781908 25.593297930781908 25.593297930781908 25.593297930781908 25.593297930781908 25.593297930781908 25.593297930781908 25.593297930781908 25.593297930781908 25.593297930781908 25.593297930781908 25.593297930781908 25.571323933345543 25.593297930781908 25.593297930781908 25.571323933345543 25.571323933345543 25.571323933345543 25.571323933345543 25.571323933345543 25.571323933345543 25.571323933345543 25.549349935909174 25.571323933345543 25.571323933345543 25.571323933345543 25.549349935909174 25.571323933345543 25.549349935909174 25.549349935909174 25.549349935909174 25.549349935909174 25.549349935909174 25.549349935909174 25.549349935909174 25.549349935909174 25.549349935909174 25.549349935909174 25.549349935909174 25.549349935909174 25.549349935909174 25.549349935909174 25.549349935909174 25.549349935909174 25.549349935909174 25.549349935909174 25.527375938472808 25.549349935909174 25.549349935909174 25.527375938472808 25.527375938472808 25.527375938472808 25.527375938472808 25.527375938472808 25.527375938472808 25.527375938472808 25.527375938472808 25.527375938472808 25.527375938472808 25.50540194103644 25.50540194103644 25.50540194103644 25.50540194103644 25.50540194103644 25.50540194103644 25.50540194103644 25.483427943600073 25.483427943600073 25.483427943600073 25.50540194103644 25.483427943600073 25.483427943600073 25.50540194103644 25.483427943600073 25.50540194103644 25.50540194103644 25.483427943600073 25.483427943600073 25.483427943600073 25.483427943600073 25.483427943600073 25.483427943600073 25.483427943600073 25.483427943600073 25.483427943600073 25.483427943600073 25.483427943600073 25.483427943600073 25.483427943600073 25.483427943600073 25.483427943600073 25.483427943600073 25.483427943600073 25.483427943600073 25.483427943600073 25.483427943600073 25.483427943600073 25.461453946163708 25.461453946163708 25.483427943600073 25.461453946163708 25.461453946163708 25.461453946163708 25.461453946163708 25.461453946163708 25.461453946163708 25.461453946163708 25.461453946163708 25.461453946163708 25.461453946163708 25.461453946163708 25.461453946163708 25.461453946163708 25.461453946163708 25.43947994872734 25.43947994872734 25.461453946163708 25.43947994872734 25.43947994872734 25.43947994872734 25.43947994872734 25.43947994872734 25.43947994872734 25.417505951290973 25.417505951290973 25.417505951290973 25.417505951290973 25.417505951290973 25.417505951290973 25.417505951290973 25.417505951290973 25.395531953854604 25.417505951290973 25.417505951290973 25.395531953854604 25.395531953854604 25.395531953854604 25.395531953854604 25.395531953854604 25.395531953854604 25.395531953854604 25.395531953854604 25.395531953854604 25.395531953854604 25.395531953854604 25.395531953854604 25.417505951290973 25.417505951290973 25.395531953854604 25.395531953854604 25.395531953854604 25.395531953854604 25.395531953854604 25.417505951290973 25.395531953854604 25.395531953854604 25.395531953854604 25.395531953854604 25.395531953854604 25.395531953854604 25.417505951290973 25.395531953854604 25.417505951290973 25.417505951290973 25.417505951290973 25.417505951290973 25.43947994872734 25.43947994872734 25.43947994872734 25.43947994872734 25.43947994872734 25.43947994872734 25.461453946163708 25.461453946163708 25.461453946163708 25.483427943600073 25.483427943600073 25.50540194103644 25.527375938472808 25.527375938472808 25.549349935909174 25.593297930781908 25.637245925654643 25.703167917963743 25.791063907709212 25.878959897454678 25.966855887200147 26.032777879509247 26.14264786669108 26.274491851309286 26.38436183849112 26.494231825672955 26.560153817982055 26.648049807727524 26.779893792345725 27.04358176158213 27.483061710309467 28.142281633400476 28.515839589818714 29.284929500091557 29.394799487273392 29.944149423182566 30.932979307819082 31.50430324116462 32.27339315143747 33.064457059146676 33.591832997619484 34.42684490020143 34.95422083867423 35.78923274125618 36.624244643838125 37.195568577183664 38.05255447720198 38.90954037722029 39.5028383080022 40.381798205456874 41.28273210034792 41.87603003112983 42.776963926020876 43.392235854239146 44.40303973631203 45.32594762863944 46.314777513275956 47.325581395348834 48.05072331074895 48.75389122871269 50.248123054385644 50.99523896722212 52.04999084416774 53.08276872367698 53.763962644204355 55.01648049807727 55.32411646218641 56.181102362204726 56.950192272477565 57.52151620582311 58.11481413660502 58.73008606482329 59.1256180186779 59.674967954587075 60.04852591100531 60.597875846914484 61.14722578282366 61.5207837392419 62.24592565464201 62.773301593114816 63.124885552096686 63.542391503387655 63.828053470060425 64.13568943416956 64.75096136238784 65.0366233290606 65.43215528291522 65.67386925471524 65.69584325215162 66.00347921626076 66.09137520600623 66.42098516755172 66.72862113166087 66.94836110602454 67.21204907526095 67.34389305987915 67.60758102911555 67.78337300860647 67.91521699322467 68.00311298297015 68.09100897271563 68.11298297015199 68.11298297015199 68.11298297015199 68.09100897271563 68.09100897271563 68.09100897271563 68.06903497527925 68.02508698040651 68.00311298297015 67.95916498809743 67.91521699322467 67.82732100347921 67.73942501373375 67.62955502655191 67.54165903680644 67.47573704449735 67.43178904962461 67.36586705731551 67.34389305987915 67.34389305987915 67.34389305987915 67.34389305987915 67.34389305987915 67.36586705731551 67.38784105475187 67.45376304706097 67.54165903680644 67.65152902398827 67.69547701886101 67.73942501373375 67.76139901117011 67.76139901117011 67.76139901117011 67.73942501373375 67.73942501373375 67.73942501373375 67.73942501373375 67.73942501373375 67.71745101629739 67.69547701886101 67.69547701886101 67.62955502655191 67.58560703167919 67.56363303424281 67.49771104193371 67.47573704449735 67.45376304706097 67.45376304706097 67.43178904962461 67.40981505218824 67.38784105475187 67.34389305987915 67.34389305987915 67.32191906244277 67.32191906244277 67.32191906244277 67.25599707013367 67.23402307269731 67.21204907526095 67.1681010803882 67.08020509064274 67.03625709577 67.01428309833364 67.01428309833364 67.01428309833364 67.05823109320637 67.05823109320637 67.03625709577 67.03625709577 67.01428309833364 67.01428309833364 67.01428309833364 67.01428309833364 67.03625709577 67.03625709577 67.05823109320637 67.10217908807911 67.12415308551547 67.1681010803882 67.1681010803882 67.21204907526095 67.21204907526095 67.25599707013367 67.23402307269731 67.25599707013367 67.25599707013367 67.25599707013367 67.25599707013367 67.25599707013367 67.25599707013367 67.25599707013367 67.27797106757004 67.27797106757004 67.27797106757004 67.27797106757004 67.27797106757004 67.25599707013367 67.25599707013367 67.25599707013367 67.25599707013367 67.27797106757004 67.27797106757004 67.25599707013367 67.25599707013367 67.25599707013367 67.25599707013367 67.25599707013367 67.25599707013367 67.25599707013367 67.25599707013367 67.25599707013367 67.25599707013367 67.25599707013367 67.25599707013367 67.25599707013367 67.25599707013367 67.25599707013367 67.27797106757004 67.27797106757004 67.27797106757004 67.27797106757004 67.27797106757004 67.27797106757004 67.27797106757004 67.27797106757004 67.27797106757004 67.27797106757004 67.27797106757004 67.25599707013367 67.25599707013367 67.25599707013367 67.23402307269731 67.23402307269731 67.23402307269731 67.21204907526095 67.21204907526095 67.21204907526095 67.19007507782457 67.19007507782457 67.19007507782457 67.1681010803882 67.1681010803882 67.1681010803882 67.14612708295184 67.14612708295184 67.12415308551547 67.12415308551547 67.12415308551547 67.12415308551547 67.10217908807911 67.10217908807911 67.08020509064274 67.05823109320637 67.03625709577 66.99230910089727 66.92638710858817 66.88243911371544 66.83849111884271 66.81651712140633 66.79454312396996 66.7725691265336 66.7725691265336 66.7725691265336 66.75059512909723 66.75059512909723 66.75059512909723 66.75059512909723 66.7725691265336 66.79454312396996 66.81651712140633 66.83849111884271 66.86046511627907 66.86046511627907 66.86046511627907 66.86046511627907 66.86046511627907 66.86046511627907 66.86046511627907 66.86046511627907 66.88243911371544 66.92638710858817 66.94836110602454 66.97033510346091 66.99230910089727 67.01428309833364 67.01428309833364 67.03625709577 67.05823109320637 67.05823109320637 67.05823109320637 67.05823109320637 67.05823109320637 67.01428309833364 66.97033510346091 66.88243911371544 66.81651712140633 66.7725691265336 66.70664713422451 66.6407251419154 66.59677714704267 66.55282915216993 66.53085515473356 66.46493316242447 66.42098516755172 66.377037172679 66.26716718549716 66.13532320087896 66.02545321369712 65.8496612342062 65.69584325215162 65.52005127266068 65.10254532136972 64.9047793444424 64.5751693828969 64.2455594213514 64.00384544955136 63.652261490569494 63.300677531587624 63.036989562351216 62.64145760849661 62.35579564182384 61.9163156930965 61.43288774949643 60.90551181102362 60.33418787767808 59.674967954587075 59.27943600073247 58.81798205456876 58.31258011353232 57.609412195568574 56.620582310932065 56.13715436733199 55.43398644936825 54.95055850576817 54.48910455960447 53.632118659586155 53.192638710858816 52.53341878776781 52.09393883904047 51.43471891594946 50.709577000549345 50.226149056949275 49.50100714154917 48.84178721845816 48.35835927485809 47.61124336202161 47.061893426112434 46.358725508148694 45.41384361838491 44.8864676799121 44.271195751693824 43.436183849111885 42.90880791063908 41.98590001831167 41.65629005676616 40.206006225965936 39.39296832082036 38.86559238234756 38.07452847463834 37.59110053103827 37.261490569492764 36.80003662332906 36.470426661783556 36.052920710492586 35.65738875663798 35.37172678996521 34.88829884636513 34.40487090276506 34.03131294634682 33.459989013001284 33.372093023255815 33.240249038637614 32.95458707196484 32.712873100164806 32.29536714887384 32.09760117194653 31.81193920527376 31.262589269364586 30.911005310382713 30.251785387291704 29.460721479582496 28.867423548800588 27.570957700054933 25.856985900018312 25.28566196667277 24.582494048709027 24.186962094854422 24.033144112799853 23.26405420252701 22.912470243545137 22.560886284563267 22.385094305072332 22.209302325581394 21.90166636147226 21.769822376854055 21.46218641274492 21.44021241530855 21.35231642556308 21.418238417872185 21.46218641274492 21.637978392235855 21.96758835378136 22.209302325581394 