29.0 29.0 29.0 29.0 29.0 29.0 29.0 29.0 29.0 29.0 29.0 29.0 29.0 29.0 29.0 29.0 29.0 29.0 29.0 29.0 29.0 29.0 29.0 29.0 29.0 29.0 29.0 29.0 29.0 29.0 29.0 29.0 29.0 29.0 29.0 29.0 29.0 29.0 29.0 29.0 29.0 29.0 29.0 29.0 29.0 29.0 29.0 29.0 29.0 29.0 29.0 29.0 29.0 29.0 29.0 29.0 29.0 29.0 29.0 29.0 29.0 29.0 29.0 29.0 29.0 29.0 29.0 29.0 29.0 29.0 29.0 29.0 29.0 29.0 29.0 29.0 29.0 29.0 29.0 29.0 29.0 29.0 29.0 29.0 29.0 29.0 29.0 29.0 29.0 29.0 29.0 29.0 29.0 29.0 29.0 29.0 29.0 29.0 29.0 29.0 29.0 29.0 29.0 29.0 29.0 29.0 29.0 29.0 29.0 29.0 29.0 29.0 29.0 29.0 29.0 29.0 29.0 29.0 29.0 29.0 29.0 29.0 29.0 29.0 29.0 29.0 29.0 29.0 29.0 29.0 29.0 29.0 29.0 29.0 29.0 29.0 29.0 29.0 29.0 29.0 29.0 29.0 29.0 29.0 29.0 29.0 29.0 29.0 29.0 29.0 29.0 29.0 29.0 29.0 29.0 29.0 29.0 29.0 29.0 29.0 29.0 29.0 29.0 29.0 29.0 29.0 29.0 29.0 29.0 29.0 29.0 29.0 29.0 29.0 29.0 29.0 29.0 29.0 29.0 29.0 29.0 29.0 29.0 29.0 29.0 29.0 29.0 29.0 29.0 29.0 29.0 29.0 29.0 29.0 29.0 29.0 29.0 29.0 29.0 29.0 29.0 29.0 29.0 29.0 29.0 29.0 29.0 29.0 29.0 29.0 29.0 29.0 29.0 29.0 29.0 29.0 29.0 29.0 29.0 29.0 29.0 29.0 29.0 29.0 29.0 29.0 29.0 29.0 29.0 29.0 29.0 29.0 29.0 29.0 29.0 29.0 29.0 29.0 29.0 29.0 29.0 29.0 29.0 29.0 29.0 29.0 29.0 29.0 29.0 29.0 29.0 29.0 29.0 29.0 29.0 29.0 29.0 29.0 29.0 29.0 29.0 29.0 29.0 29.0 29.0 29.0 29.0 29.0 29.0 29.0 29.0 29.0 29.0 29.0 29.0 29.0 29.0 29.0 29.0 29.0 29.0 29.0 29.0 29.0 29.0 29.0 29.0 29.0 29.0 29.0 29.0 29.0 29.0 29.0 29.0 29.0 29.0 29.0 29.0 29.0 29.0 29.0 29.0 29.0 29.0 29.0 29.0 29.0 29.0 29.0 29.0 29.0 29.0 29.0 29.0 29.0 29.0 29.0 29.0 29.0 29.0 29.0 29.0 29.0 29.0 29.0 29.0 29.0 29.0 29.0 29.0 29.0 29.0 29.0 29.0 29.0 29.0 29.0 29.0 29.0 29.0 29.0 29.0 29.0 29.0 29.0 29.0 29.0 29.0 29.0 29.0 29.0 29.0 29.0 29.0 29.0 29.0 29.0 29.0 29.0 29.0 29.0 29.0 29.0 29.0 29.0 29.0 29.0 29.0 29.0 29.0 29.030763596410914 29.0 29.0 29.0 29.0 29.0 29.0 29.0 29.0 29.0 29.0 29.0 29.0 29.0 29.0 29.0 29.0 29.0 29.0 29.0 29.0 29.0 29.0 29.0 29.0 29.0 29.0 29.0 29.0 29.0 29.0 29.0 29.0 29.0 29.0 29.0 29.0 29.0 29.0 29.0 29.0 29.0 29.0 29.0 29.0 29.0 29.0 29.0 29.0 29.0 29.0 29.0 29.0 29.0 29.0 29.0 29.0 29.0 29.0 29.0 29.0 29.0 29.0 29.0 29.0 29.0 29.0 29.0 29.0 29.0 29.0 29.0 29.0 29.0 29.0 29.0 29.0 29.0 29.0 29.0 29.0 29.0 29.0 29.0 29.0 29.0 29.0 29.0 29.0 29.0 29.0 29.0 29.0 29.0 29.0 29.0 29.0 29.0 29.0 29.0 29.0 29.0 29.0 29.0 29.0 29.0 29.0 29.0 29.0 29.0 29.0 29.0 29.0 29.0 29.0 29.0 29.0 29.0 29.0 29.0 29.0 29.0 29.0 29.0 29.0 29.0 29.0 29.0 29.0 29.0 29.0 29.0 29.0 29.0 29.0 29.0 29.0 29.0 29.0 29.0 29.0 29.0 29.0 29.0 29.0 29.0 29.0 29.0 29.0 29.0 29.0 29.0 29.0 29.0 29.0 29.0 29.0 29.0 29.0 29.0 29.0 29.0 29.0 29.0 29.0 29.0 29.0 29.0 29.0 29.0 29.0 29.0 29.0 29.0 29.0 29.0 29.0 29.0 29.0 29.0 29.0 29.0 29.0 29.0 29.0 29.0 29.0 29.0 29.0 29.0 29.0 29.0 29.0 29.0 29.0 29.0 29.0 29.0 29.0 29.0 29.0 29.0 29.0 29.0 29.0 29.0 29.0 29.0 29.0 29.0 29.0 29.0 29.0 29.0 29.0 29.0 29.0 29.0 29.0 29.0 29.0 29.0 29.0 29.0 29.0 29.0 29.0 29.0 29.0 29.0 29.0 29.0 29.0 29.0 29.0 29.0 29.0 29.0 29.0 29.0 29.0 29.0 29.0 29.0 29.0 29.0 29.0 29.0 29.0 29.0 29.0 29.0 29.0 29.0 29.0 29.0 29.0 29.0 29.0 29.0 29.0 29.0 29.0 29.030763596410914 29.030763596410914 29.061527192821828 29.061527192821828 29.09229078923274 29.123054385643655 29.15381798205457 29.215345174876397 29.24610877128731 29.30763596410914 29.39992675334188 29.49221754257462 29.58450833180736 29.707562717451015 29.799853506683757 29.922907892327412 30.045962277971068 30.169016663614723 30.322834645669293 30.445889031312948 30.538179820545686 30.599707013367514 30.630470609778428 30.753524995422083 30.938106573887566 31.153451748763963 31.36879692364036 31.614905694927668 31.95330525544772 32.260941219556855 32.568577183665994 32.87621314777513 33.214612708295185 33.49148507599341 33.76835744369163 34.01446621497894 34.29133858267716 34.56821095037539 34.937374107306354 35.27577366782641 35.61417322834646 35.98333638527742 36.3832631386193 36.81395348837209 37.24464383812489 37.70609778428859 38.13678813404138 38.59824208020509 39.0596960263688 39.55191356894342 40.10565830433986 40.50558505768174 41.12085698590002 41.705365317707376 42.28987364951474 42.905145577733016 43.39736312030763 43.92034425929317 44.50485259110053 45.089360922907886 45.67386925471526 46.2276139901117 46.750595129097235 47.27357626808276 47.88884819630104 48.59641091375206 49.08862845632668 49.76542757736678 50.19611792711957 50.87291704815968 51.488188976377955 52.07269730818531 52.62644204358176 53.54934993590917 54.0415674784838 54.53378502105841 55.026002563633035 55.948910455960444 56.68723676982238 57.117927119575164 57.917780626258924 58.65610694012086 59.27137886833913 59.886650796557404 60.378868339132026 61.11719465299395 61.8862845632668 62.44002929866325 63.14759201611426 63.916681926387106 64.43966306537264 65.17798937923456 65.67020692180918 66.3470060428493 67.02380516388939 67.7006042849295 68.3466398095587 68.592748580846 69.39260208752975 69.82329243728255 70.22321919062442 70.86925471525362 71.33070866141732 71.57681743270463 71.91521699322467 72.06903497527925 72.28438015015564 72.46896172862114 72.5920161142648 72.77659769273026 72.93041567478483 73.02270646401757 73.23805163889398 73.29957883171579 73.36110602453763 73.42263321735945 73.48416041018129 73.5149240065922 73.5149240065922 73.5149240065922 73.5149240065922 73.5149240065922 73.5149240065922 73.5149240065922 73.5149240065922 73.5149240065922 73.5149240065922 73.5149240065922 73.48416041018129 73.45339681377037 73.39186962094854 73.33034242812671 73.20728804248306 73.11499725325032 73.02270646401757 72.96117927119576 72.89965207837392 72.83812488555209 72.77659769273026 72.77659769273026 72.74583409631936 72.77659769273026 72.74583409631936 72.77659769273026 72.77659769273026 72.77659769273026 72.80736128914117 72.80736128914117 72.80736128914117 72.83812488555209 72.80736128914117 72.83812488555209 72.83812488555209 72.80736128914117 72.80736128914117 72.83812488555209 72.80736128914117 72.83812488555209 72.83812488555209 72.80736128914117 72.80736128914117 72.80736128914117 72.80736128914117 72.80736128914117 72.80736128914117 72.80736128914117 72.80736128914117 72.77659769273026 72.74583409631936 72.68430690349753 72.65354330708661 72.6227797106757 72.65354330708661 72.6227797106757 72.6227797106757 72.5920161142648 72.5920161142648 72.5920161142648 72.5920161142648 72.56125251785386 72.5920161142648 72.5920161142648 72.5920161142648 72.5920161142648 72.6227797106757 72.6227797106757 72.6227797106757 72.6227797106757 72.6227797106757 72.6227797106757 72.65354330708661 72.65354330708661 72.65354330708661 72.65354330708661 72.65354330708661 72.65354330708661 72.65354330708661 72.65354330708661 72.68430690349753 72.68430690349753 72.68430690349753 72.68430690349753 72.71507049990844 72.71507049990844 72.71507049990844 72.71507049990844 72.71507049990844 72.71507049990844 72.71507049990844 72.74583409631936 72.74583409631936 72.77659769273026 72.77659769273026 72.77659769273026 72.77659769273026 72.77659769273026 72.77659769273026 72.77659769273026 72.80736128914117 72.80736128914117 72.80736128914117 72.80736128914117 72.80736128914117 72.80736128914117 72.80736128914117 72.80736128914117 72.80736128914117 72.83812488555209 72.83812488555209 72.86888848196301 72.83812488555209 72.83812488555209 72.83812488555209 72.83812488555209 72.83812488555209 72.83812488555209 72.83812488555209 72.83812488555209 72.83812488555209 72.83812488555209 72.86888848196301 72.83812488555209 72.83812488555209 72.83812488555209 72.83812488555209 72.83812488555209 72.83812488555209 72.83812488555209 72.83812488555209 72.83812488555209 72.83812488555209 72.83812488555209 72.83812488555209 72.83812488555209 72.83812488555209 72.83812488555209 72.86888848196301 72.83812488555209 72.83812488555209 72.83812488555209 72.83812488555209 72.83812488555209 72.83812488555209 72.86888848196301 72.83812488555209 72.83812488555209 72.86888848196301 72.83812488555209 72.83812488555209 72.83812488555209 72.83812488555209 72.83812488555209 72.83812488555209 72.83812488555209 72.83812488555209 72.83812488555209 72.83812488555209 72.83812488555209 72.83812488555209 72.83812488555209 72.83812488555209 72.83812488555209 72.83812488555209 72.83812488555209 72.83812488555209 72.83812488555209 72.83812488555209 72.86888848196301 72.89965207837392 72.93041567478483 72.96117927119576 72.96117927119576 72.99194286760667 72.99194286760667 72.99194286760667 72.99194286760667 72.99194286760667 72.96117927119576 72.96117927119576 72.99194286760667 72.99194286760667 72.96117927119576 72.99194286760667 72.96117927119576 72.96117927119576 72.96117927119576 72.93041567478483 72.96117927119576 72.93041567478483 72.93041567478483 72.89965207837392 72.89965207837392 72.89965207837392 72.86888848196301 72.86888848196301 72.89965207837392 72.86888848196301 72.89965207837392 72.89965207837392 72.89965207837392 72.89965207837392 72.89965207837392 72.93041567478483 72.93041567478483 72.93041567478483 72.96117927119576 72.96117927119576 72.96117927119576 72.99194286760667 73.02270646401757 73.02270646401757 73.02270646401757 73.02270646401757 73.02270646401757 73.02270646401757 73.02270646401757 73.02270646401757 73.02270646401757 73.02270646401757 72.99194286760667 72.99194286760667 72.99194286760667 72.99194286760667 72.99194286760667 72.99194286760667 72.99194286760667 72.99194286760667 73.02270646401757 73.02270646401757 72.99194286760667 73.02270646401757 73.02270646401757 73.02270646401757 72.99194286760667 73.02270646401757 72.99194286760667 73.02270646401757 72.99194286760667 73.02270646401757 72.99194286760667 72.99194286760667 72.99194286760667 72.99194286760667 72.99194286760667 72.99194286760667 73.02270646401757 72.99194286760667 72.99194286760667 73.02270646401757 72.99194286760667 73.02270646401757 73.02270646401757 72.99194286760667 72.99194286760667 72.99194286760667 72.99194286760667 72.96117927119576 72.83812488555209 72.6227797106757 72.43819813221022 72.13056216810108 71.91521699322467 71.54605383629371 71.11536348654093 70.77696392602087 70.28474638344625 69.76176524446072 69.36183849111885 68.8080937557224 68.3774034059696 67.7006042849295 67.08533235671122 66.62387841054752 65.97784288591834 65.11646218641275 64.68577183665994 64.1012635048526 63.85515473356528 63.055301226881525 62.62461087712873 62.255447720197765 61.45559421351401 60.96337667093938 60.40963193554294 59.76359641091375 59.30214246475004 58.68687053653177 58.04083501190259 57.57938106573887 56.87181834828786 56.37960080571324 55.61051089544039 54.65683940670207 54.10309467130563 53.42629555026552 52.99560520051273 52.503387657938106 51.826588536898 51.39589818714521 50.534517487639626 49.91924555942135 49.45779161325764 48.84251968503936 48.19648416041018 47.95037538912287 47.05823109320637 46.62754074345358 45.950741622413474 45.27394250137337 44.84325215162058 44.25874381981322 43.48965390954038 42.966672770554844 42.659036806445705 42.22834645669291 41.705365317707376 41.15162058231093 40.47482146127083 39.921076725874386 39.24427760483428 38.75206006225966 38.38289690532869 38.013733748397726 37.521516205823104 36.906244277604834 36.66013550631752 36.26020875297564 35.737227613990115 35.61417322834646 35.029664896539096 34.66050173960813 34.41439296832082 34.16828419703351 34.01446621497894 33.73759384728072 33.614539461637065 33.39919428676067 33.2453763047061 33.09155832265153 32.93774034059696 32.69163156930965 32.53781358725508 32.3532320087896 32.23017762314594 32.014832448269544 31.86101446621498 31.737960080571323 31.55337850210584 31.491851309284012 31.338033327229446 31.153451748763963 31.06116095953122 30.907342977476652 30.845815784654825 30.753524995422083 30.691997802600255 30.599707013367514 30.538179820545686 30.38436183849112 30.353598242080206 30.261307452847465 30.169016663614723 30.13825306720381 30.045962277971068 29.98443508514924 29.922907892327412 29.861380699505585 29.799853506683757 29.769089910272843 29.769089910272843 29.73832631386193 29.646035524629188 29.615271928218274 29.58450833180736 29.58450833180736 29.58450833180736 29.522981138985532 29.49221754257462 29.49221754257462 29.49221754257462 29.461453946163708 29.461453946163708 29.461453946163708 29.461453946163708 29.430690349752794 29.430690349752794 29.430690349752794 29.430690349752794 29.39992675334188 29.39992675334188 29.39992675334188 29.39992675334188 29.39992675334188 29.39992675334188 29.39992675334188 29.369163156930966 29.369163156930966 29.369163156930966 29.369163156930966 29.369163156930966 29.338399560520052 29.338399560520052 29.338399560520052 29.338399560520052 29.338399560520052 29.338399560520052 29.338399560520052 29.338399560520052 29.338399560520052 29.338399560520052 29.338399560520052 29.338399560520052 29.338399560520052 29.338399560520052 29.338399560520052 29.30763596410914 29.30763596410914 29.30763596410914 29.30763596410914 29.30763596410914 29.30763596410914 29.30763596410914 29.30763596410914 29.30763596410914 29.30763596410914 29.30763596410914 29.30763596410914 29.30763596410914 29.30763596410914 29.276872367698225 29.30763596410914 29.276872367698225 29.30763596410914 29.30763596410914 29.30763596410914 29.276872367698225 29.276872367698225 29.30763596410914 29.276872367698225 29.276872367698225 29.276872367698225 29.276872367698225 29.276872367698225 29.276872367698225 29.276872367698225 29.276872367698225 29.276872367698225 29.276872367698225 29.276872367698225 29.276872367698225 29.276872367698225 29.276872367698225 29.276872367698225 29.276872367698225 29.276872367698225 29.276872367698225 29.276872367698225 29.276872367698225 29.276872367698225 29.276872367698225 29.276872367698225 29.276872367698225 29.24610877128731 29.276872367698225 29.276872367698225 29.276872367698225 29.276872367698225 29.276872367698225 29.276872367698225 29.276872367698225 29.276872367698225 29.276872367698225 29.276872367698225 29.276872367698225 29.276872367698225 29.276872367698225 29.24610877128731 29.276872367698225 29.24610877128731 29.276872367698225 29.276872367698225 29.276872367698225 29.24610877128731 29.24610877128731 29.24610877128731 29.24610877128731 29.24610877128731 29.24610877128731 29.276872367698225 29.24610877128731 29.24610877128731 29.276872367698225 29.24610877128731 29.276872367698225 29.24610877128731 29.24610877128731 29.24610877128731 29.24610877128731 29.24610877128731 29.24610877128731 29.276872367698225 29.24610877128731 29.276872367698225 29.24610877128731 29.24610877128731 29.24610877128731 29.24610877128731 29.276872367698225 29.24610877128731 29.24610877128731 29.24610877128731 29.24610877128731 29.24610877128731 29.24610877128731 29.24610877128731 29.24610877128731 29.24610877128731 29.24610877128731 29.24610877128731 29.24610877128731 29.24610877128731 29.24610877128731 29.24610877128731 29.24610877128731 29.24610877128731 29.24610877128731 29.24610877128731 29.24610877128731 29.276872367698225 29.24610877128731 29.24610877128731 29.24610877128731 29.24610877128731 29.24610877128731 29.24610877128731 29.24610877128731 29.276872367698225 29.24610877128731 29.24610877128731 29.24610877128731 29.24610877128731 29.276872367698225 29.24610877128731 29.24610877128731 29.276872367698225 29.24610877128731 29.24610877128731 29.24610877128731 29.24610877128731 29.24610877128731 29.24610877128731 29.24610877128731 29.24610877128731 29.24610877128731 29.24610877128731 29.24610877128731 29.24610877128731 29.24610877128731 29.24610877128731 29.24610877128731 29.24610877128731 29.24610877128731 29.24610877128731 29.24610877128731 29.24610877128731 29.24610877128731 29.24610877128731 29.24610877128731 29.24610877128731 29.24610877128731 29.24610877128731 29.24610877128731 29.24610877128731 29.24610877128731 29.24610877128731 29.24610877128731 29.24610877128731 29.24610877128731 29.24610877128731 29.24610877128731 29.24610877128731 29.24610877128731 29.24610877128731 29.24610877128731 29.24610877128731 29.24610877128731 29.24610877128731 29.24610877128731 29.24610877128731 29.24610877128731 29.24610877128731 29.24610877128731 29.24610877128731 29.24610877128731 29.24610877128731 29.24610877128731 29.24610877128731 29.24610877128731 29.24610877128731 29.24610877128731 29.24610877128731 29.24610877128731 29.24610877128731 29.276872367698225 29.24610877128731 29.276872367698225 29.276872367698225 29.30763596410914 29.30763596410914 29.338399560520052 29.39992675334188 29.430690349752794 29.461453946163708 29.49221754257462 29.522981138985532 29.615271928218274 29.646035524629188 29.707562717451015 29.769089910272843 29.799853506683757 29.922907892327412 29.98443508514924 30.045962277971068 30.169016663614723 30.29207104925838 30.353598242080206 30.445889031312948 30.5689434169566 30.599707013367514 30.66123420618934 30.753524995422083 30.907342977476652 31.06116095953122 31.21497894158579 31.399560520051274 31.614905694927668 31.79948727339315 31.984068851858634 32.168650430324114 32.38399560520051 32.63010437648782 32.84544955136422 33.214612708295185 33.42995788317158 33.67606665445889 33.922175425746204 34.10675700421168 34.44515656473173 34.66050173960813 34.99890130012818 35.46035524629189 35.76799121040103 36.32173594579747 37.12158945248123 37.42922541659037 38.013733748397726 38.475187694561434 39.15198681560154 39.79802234023072 40.25947628639443 40.843984618201794 41.73612891411829 42.105292071049256 42.659036806445705 43.0897271561985 44.01263504852591 44.535616187511444 45.181651712140635 45.85845083318073 46.504486357809924 46.904413111151804 47.61197582860282 48.073429774766524 48.719465299395715 49.39626442043581 49.82695477018861 50.50375389122871 51.149789415857896 51.61124336202161 52.257278886650795 52.68796923640359 53.3955319538546 54.2876762497711 54.74913019593481 55.179820545687605 55.85661966672771 56.348837209302324 56.90258194469877 57.33327229445156 58.071598608313494 58.62534334370994 58.96374290422999 59.48672404321553 59.978941585790146 60.3173411463102 60.932613074528476 61.36330342428126 61.97857535249954 62.59384728071782 62.99377403405969 63.76286394433254 64.16279069767441 64.53195385460538 65.02417139718 65.39333455411096 65.9163156930965 66.5931148141366 66.96227797106756 67.48525911005311 67.88518586339498 68.25434902032595 68.71580296648965 69.05420252700969 69.66947445522797 70.16169199780259 70.46932796191174 70.96154550448635 71.33070866141732 71.76139901117011 72.19208936092289 72.43819813221022 72.74583409631936 73.02270646401757 73.17652444607214 73.36110602453763 73.48416041018129 73.5149240065922 73.5456876030031 73.5456876030031 73.5456876030031 73.5456876030031 73.5456876030031 73.5456876030031 73.5149240065922 73.5149240065922 73.48416041018129 73.48416041018129 73.45339681377037 73.42263321735945 73.42263321735945 73.42263321735945 73.39186962094854 73.36110602453763 73.33034242812671 73.29957883171579 73.26881523530488 73.23805163889398 73.23805163889398 73.23805163889398 73.23805163889398 73.20728804248306 73.20728804248306 73.23805163889398 73.20728804248306 73.20728804248306 73.23805163889398 73.23805163889398 73.20728804248306 73.23805163889398 73.23805163889398 73.23805163889398 73.23805163889398 73.23805163889398 73.26881523530488 73.26881523530488 73.26881523530488 73.26881523530488 73.23805163889398 73.23805163889398 73.23805163889398 73.23805163889398 73.23805163889398 73.23805163889398 73.23805163889398 73.23805163889398 73.23805163889398 73.23805163889398 73.23805163889398 73.23805163889398 73.23805163889398 73.23805163889398 73.23805163889398 73.20728804248306 73.20728804248306 73.20728804248306 73.17652444607214 73.17652444607214 73.17652444607214 73.17652444607214 73.17652444607214 73.17652444607214 73.17652444607214 73.17652444607214 73.17652444607214 73.17652444607214 73.17652444607214 73.14576084966123 73.14576084966123 73.14576084966123 73.11499725325032 73.0842336568394 73.0842336568394 73.05347006042848 73.05347006042848 73.02270646401757 73.02270646401757 73.02270646401757 73.05347006042848 73.02270646401757 73.02270646401757 73.02270646401757 73.02270646401757 73.05347006042848 73.05347006042848 73.05347006042848 73.0842336568394 73.0842336568394 73.0842336568394 73.0842336568394 73.0842336568394 73.0842336568394 73.0842336568394 73.0842336568394 73.0842336568394 73.0842336568394 73.0842336568394 73.0842336568394 73.05347006042848 73.0842336568394 73.0842336568394 73.05347006042848 73.05347006042848 73.02270646401757 73.02270646401757 73.02270646401757 73.02270646401757 73.02270646401757 73.02270646401757 73.02270646401757 73.02270646401757 73.02270646401757 73.02270646401757 73.02270646401757 73.02270646401757 73.02270646401757 73.02270646401757 73.02270646401757 73.02270646401757 73.02270646401757 73.02270646401757 73.02270646401757 73.02270646401757 72.99194286760667 72.99194286760667 72.96117927119576 72.93041567478483 72.89965207837392 72.89965207837392 72.89965207837392 72.89965207837392 72.89965207837392 72.89965207837392 72.89965207837392 72.89965207837392 72.89965207837392 72.89965207837392 72.89965207837392 72.89965207837392 72.89965207837392 72.89965207837392 72.89965207837392 72.86888848196301 72.77659769273026 72.68430690349753 72.5920161142648 72.46896172862114 72.37667093938839 72.34590734297747 72.31514374656656 72.31514374656656 72.31514374656656 72.31514374656656 72.28438015015564 72.28438015015564 72.31514374656656 72.31514374656656 72.31514374656656 72.34590734297747 72.37667093938839 72.4074345357993 72.4074345357993 72.4074345357993 72.43819813221022 72.43819813221022 72.43819813221022 72.43819813221022 72.46896172862114 72.46896172862114 72.46896172862114 72.49972532503205 72.49972532503205 72.49972532503205 72.49972532503205 72.46896172862114 72.49972532503205 72.49972532503205 72.46896172862114 72.49972532503205 72.46896172862114 72.49972532503205 72.49972532503205 72.46896172862114 72.49972532503205 72.49972532503205 72.49972532503205 72.49972532503205 72.46896172862114 72.46896172862114 72.46896172862114 72.49972532503205 72.49972532503205 72.49972532503205 72.49972532503205 72.49972532503205 72.49972532503205 72.49972532503205 72.49972532503205 72.46896172862114 72.46896172862114 72.49972532503205 72.49972532503205 72.49972532503205 72.46896172862114 72.46896172862114 72.46896172862114 72.49972532503205 72.46896172862114 72.46896172862114 72.49972532503205 72.46896172862114 72.46896172862114 72.49972532503205 72.49972532503205 72.49972532503205 72.46896172862114 72.46896172862114 72.49972532503205 72.46896172862114 72.49972532503205 72.49972532503205 72.49972532503205 72.46896172862114 72.46896172862114 72.49972532503205 72.49972532503205 72.46896172862114 72.49972532503205 72.46896172862114 72.46896172862114 72.46896172862114 72.46896172862114 72.46896172862114 72.49972532503205 72.46896172862114 72.46896172862114 72.46896172862114 72.49972532503205 72.46896172862114 72.46896172862114 72.49972532503205 72.46896172862114 72.49972532503205 72.49972532503205 72.46896172862114 72.49972532503205 72.49972532503205 72.49972532503205 72.53048892144295 72.53048892144295 72.53048892144295 72.53048892144295 72.56125251785386 72.56125251785386 72.56125251785386 72.56125251785386 72.5920161142648 72.5920161142648 72.5920161142648 72.5920161142648 72.5920161142648 72.6227797106757 72.6227797106757 72.65354330708661 72.65354330708661 72.71507049990844 72.71507049990844 72.74583409631936 72.77659769273026 72.80736128914117 72.80736128914117 72.83812488555209 72.83812488555209 72.83812488555209 72.83812488555209 72.83812488555209 72.83812488555209 72.83812488555209 72.80736128914117 72.80736128914117 72.80736128914117 72.80736128914117 72.80736128914117 72.80736128914117 72.77659769273026 72.77659769273026 72.74583409631936 72.65354330708661 72.56125251785386 72.46896172862114 72.28438015015564 72.16132576451199 71.91521699322467 71.7306354147592 71.42299945065005 71.08459989013001 70.68467313678812 70.22321919062442 69.82329243728255 69.39260208752975 69.02343893059879 68.65427577366782 67.91594945980589 67.2699139351767 66.74693279619117 66.00860648232924 65.14722578282365 64.40889946896172 63.76286394433254 63.08606482329243 62.255447720197765 61.48635780992492 60.84032228529573 60.16352316425563 59.2098516755173 58.779161325764505 58.25618018677898 57.763962644204355 57.056399926753336 56.31807361289141 55.76432887749496 54.933711774400294 54.226149056949275 53.70316791796374 53.21095037538912 52.59567844717085 52.13422450100714 51.149789415857896 50.65757187328328 49.91924555942135 49.119392052737595 48.38106573887566 47.67350302142465 47.05823109320637 46.196850393700785 45.396996887017025 44.84325215162058 44.074162241347736 43.21278154184215 42.812854788500275 42.44369163156931 42.105292071049256 41.61307452847464 41.12085698590002 40.75169382896905 40.290239882805345 39.7364951474089 39.18275041201245 38.81358725508149 38.44442409815052 37.767624977110415 36.998535066837576 36.69089910272844 36.3832631386193 36.07562717451016 35.737227613990115 35.24501007141549 35.12195568577184 34.84508331807361 34.629738143197216 34.383629371909905 34.26057498626625 34.10675700421168 33.95293902215711 33.76835744369163 33.64530305804798 33.460721479582496 33.2453763047061 33.0300311298297 32.814685954953305 32.75315876213148 32.47628639443325 32.32246841237868 32.107123237502286 31.830250869804065 31.614905694927668 31.491851309284012 31.338033327229446 31.245742537996705 31.21497894158579 31.184215345174877 31.153451748763963 31.091924555942136 31.030397363120308 30.96887017029848 30.87657938106574 30.784288591832997 30.72276139901117 30.66123420618934 30.630470609778428 30.507416224134772 30.38436183849112 30.261307452847465 30.169016663614723 30.07672587438198 29.98443508514924 29.922907892327412 29.8921442959165 29.861380699505585 29.861380699505585 29.83061710309467 29.83061710309467 29.799853506683757 29.769089910272843 29.73832631386193 29.707562717451015 29.6767991210401 29.646035524629188 29.615271928218274 29.615271928218274 29.615271928218274 29.58450833180736 29.615271928218274 29.615271928218274 29.615271928218274 29.615271928218274 29.615271928218274 29.615271928218274 29.615271928218274 29.615271928218274 29.58450833180736 29.615271928218274 29.58450833180736 29.58450833180736 29.58450833180736 29.58450833180736 29.615271928218274 29.58450833180736 29.58450833180736 29.58450833180736 29.615271928218274 29.58450833180736 29.58450833180736 29.58450833180736 29.58450833180736 29.58450833180736 29.58450833180736 29.58450833180736 29.615271928218274 29.58450833180736 29.58450833180736 29.553744735396446 29.553744735396446 29.58450833180736 29.553744735396446 29.553744735396446 29.553744735396446 29.553744735396446 29.553744735396446 29.553744735396446 29.553744735396446 29.553744735396446 29.553744735396446 29.553744735396446 29.553744735396446 29.553744735396446 29.553744735396446 29.553744735396446 29.553744735396446 29.553744735396446 29.553744735396446 29.553744735396446 29.553744735396446 29.553744735396446 29.553744735396446 29.553744735396446 29.553744735396446 29.553744735396446 29.553744735396446 29.522981138985532 29.522981138985532 29.522981138985532 29.522981138985532 29.522981138985532 29.522981138985532 29.522981138985532 29.522981138985532 29.522981138985532 29.522981138985532 29.522981138985532 29.522981138985532 29.522981138985532 29.49221754257462 29.49221754257462 29.522981138985532 29.49221754257462 29.49221754257462 29.49221754257462 29.49221754257462 29.49221754257462 29.49221754257462 29.49221754257462 29.49221754257462 29.49221754257462 29.49221754257462 29.49221754257462 29.49221754257462 29.49221754257462 29.49221754257462 29.49221754257462 29.461453946163708 29.49221754257462 29.49221754257462 29.49221754257462 29.49221754257462 29.461453946163708 29.461453946163708 29.49221754257462 29.461453946163708 29.461453946163708 29.461453946163708 29.461453946163708 29.461453946163708 29.461453946163708 29.461453946163708 29.461453946163708 29.461453946163708 29.461453946163708 29.461453946163708 29.461453946163708 29.461453946163708 29.461453946163708 29.461453946163708 29.461453946163708 29.461453946163708 29.461453946163708 29.461453946163708 29.461453946163708 29.461453946163708 29.461453946163708 29.461453946163708 29.461453946163708 29.461453946163708 29.461453946163708 29.461453946163708 29.461453946163708 29.461453946163708 29.461453946163708 29.461453946163708 29.461453946163708 29.461453946163708 29.461453946163708 29.461453946163708 29.461453946163708 29.461453946163708 29.461453946163708 29.461453946163708 29.461453946163708 29.461453946163708 29.461453946163708 29.461453946163708 29.461453946163708 29.461453946163708 29.461453946163708 29.461453946163708 29.461453946163708 29.461453946163708 29.461453946163708 29.461453946163708 29.461453946163708 29.461453946163708 29.461453946163708 29.461453946163708 29.461453946163708 29.461453946163708 29.461453946163708 29.461453946163708 29.461453946163708 29.461453946163708 29.461453946163708 29.461453946163708 29.461453946163708 29.461453946163708 29.461453946163708 29.461453946163708 29.461453946163708 29.461453946163708 29.461453946163708 29.461453946163708 29.461453946163708 29.461453946163708 29.461453946163708 29.461453946163708 29.461453946163708 29.461453946163708 29.461453946163708 29.461453946163708 29.461453946163708 29.461453946163708 29.461453946163708 29.461453946163708 29.461453946163708 29.461453946163708 29.461453946163708 29.461453946163708 29.461453946163708 29.461453946163708 29.461453946163708 29.461453946163708 29.461453946163708 29.461453946163708 29.461453946163708 29.461453946163708 29.461453946163708 29.461453946163708 29.461453946163708 29.461453946163708 29.461453946163708 29.461453946163708 29.461453946163708 29.461453946163708 29.461453946163708 29.461453946163708 29.461453946163708 29.461453946163708 29.461453946163708 29.461453946163708 29.461453946163708 29.461453946163708 29.461453946163708 29.461453946163708 29.461453946163708 29.461453946163708 29.461453946163708 29.461453946163708 29.461453946163708 29.49221754257462 29.49221754257462 29.49221754257462 29.49221754257462 29.49221754257462 29.49221754257462 29.49221754257462 29.49221754257462 29.49221754257462 29.49221754257462 29.49221754257462 29.49221754257462 29.49221754257462 29.49221754257462 29.49221754257462 29.49221754257462 29.49221754257462 29.49221754257462 29.49221754257462 29.522981138985532 29.49221754257462 29.49221754257462 29.49221754257462 29.49221754257462 29.49221754257462 29.49221754257462 29.49221754257462 29.49221754257462 29.49221754257462 29.49221754257462 29.49221754257462 29.49221754257462 29.49221754257462 29.49221754257462 29.49221754257462 29.49221754257462 29.49221754257462 29.49221754257462 29.522981138985532 29.49221754257462 29.49221754257462 29.522981138985532 29.522981138985532 29.522981138985532 29.553744735396446 29.553744735396446 29.553744735396446 29.58450833180736 29.58450833180736 29.58450833180736 29.615271928218274 29.615271928218274 29.615271928218274 29.646035524629188 29.6767991210401 29.6767991210401 29.707562717451015 29.73832631386193 29.799853506683757 29.861380699505585 29.8921442959165 29.953671488738326 30.015198681560154 30.07672587438198 30.199780260025637 30.29207104925838 30.507416224134772 30.66123420618934 30.81505218824391 31.030397363120308 31.091924555942136 31.245742537996705 31.399560520051274 31.491851309284012 31.64566929133858 31.86101446621498 32.04559604468046 32.38399560520051 32.63010437648782 32.84544955136422 33.060794726240616 33.27613990111701 33.522248672404324 33.983702618568024 34.229811389855335 34.629738143197216 34.87584691448453 35.30653726423732 35.61417322834646 35.98333638527742 36.47555392785204 37.18311664530306 37.552279802234025 38.10602453763047 38.50595129097235 39.09045962277971 39.921076725874386 40.22871268998352 40.81322102179088 41.459256546420065 41.951474088994686 42.59750961362388 43.028199963376665 43.79728987364952 44.32027101263505 44.75096136238784 45.24317890496246 45.91997802600257 46.38143197216627 47.27357626808276 47.73503021424648 48.38106573887566 48.780992492217536 49.21168284197033 50.07306354147592 50.688335469694195 51.30360739791247 51.79582494048709 52.34956967588353 53.08789598974546 53.826222303607395 54.41073063541476 54.99523896722212 55.61051089544039 56.0719648416041 56.656473173411456 57.08716352316425 57.6409082585607 58.28694378318989 58.809924922175426 59.30214246475004 60.22505035707745 60.778795092473906 61.27101263504852 61.91704815967771 62.59384728071782 63.11682841970335 63.54751876945614 64.40889946896172 65.02417139718 65.54715253616553 65.97784288591834 66.3470060428493 66.86998718183483 67.36220472440945 67.7006042849295 68.13129463468229 68.43893059879143 68.86962094854422 69.42336568394066 69.73100164804981 70.00787401574803 70.377037172679 70.65390954037721 70.96154550448635 71.20765427577366 71.60758102911555 71.88445339681377 72.06903497527925 72.34590734297747 72.5920161142648 72.77659769273026 72.99194286760667 73.14576084966123 73.33034242812671 73.5149240065922 73.63797839223585 73.85332356711226 73.97637795275591 74.13019593481047 74.31477751327596 74.43783189891961 74.6224134773851 74.80699505585056 74.89928584508331 74.99157663431606 75.05310382713789 75.0838674235488 75.0838674235488 75.11463101995972 75.11463101995972 75.14539461637062 75.14539461637062 75.14539461637062 75.14539461637062 75.14539461637062 75.14539461637062 75.11463101995972 75.0838674235488 75.02234023072697 75.02234023072697 74.99157663431606 74.96081303790514 74.93004944149423 74.89928584508331 74.89928584508331 74.89928584508331 74.8685222486724 74.89928584508331 74.8685222486724 74.89928584508331 74.89928584508331 74.93004944149423 74.93004944149423 74.93004944149423 74.96081303790514 74.96081303790514 74.99157663431606 75.02234023072697 75.05310382713789 75.11463101995972 75.14539461637062 75.20692180919245 75.26844900201428 75.3299761948361 75.36073979124703 75.39150338765793 75.39150338765793 75.39150338765793 75.39150338765793 75.42226698406884 75.42226698406884 75.42226698406884 75.42226698406884 75.42226698406884 75.42226698406884 75.42226698406884 75.42226698406884 75.3299761948361 75.26844900201428 75.17615821278153 75.11463101995972 75.0838674235488 75.02234023072697 74.99157663431606 74.99157663431606 74.99157663431606 74.96081303790514 74.93004944149423 74.89928584508331 74.8377586522615 74.80699505585056 74.71470426661784 74.68394067020691 74.59164988097417 74.49935909174144 74.49935909174144 74.43783189891961 74.43783189891961 74.37630470609778 74.37630470609778 74.34554110968686 74.31477751327596 74.28401391686504 74.28401391686504 74.25325032045413 74.22248672404322 74.1917231276323 74.1917231276323 74.1917231276323 74.1917231276323 74.1917231276323 74.1917231276323 74.1917231276323 74.1917231276323 74.22248672404322 74.22248672404322 74.22248672404322 74.25325032045413 74.28401391686504 74.28401391686504 74.28401391686504 74.28401391686504 74.31477751327596 74.31477751327596 74.31477751327596 74.31477751327596 74.31477751327596 74.31477751327596 74.31477751327596 74.31477751327596 74.28401391686504 74.1917231276323 74.16095953122138 74.09943233839957 74.03790514557772 74.00714154916682 73.94561435634498 73.91485075993407 73.88408716352316 73.88408716352316 73.88408716352316 73.88408716352316 73.88408716352316 73.88408716352316 73.88408716352316 73.88408716352316 73.85332356711226 73.85332356711226 73.85332356711226 73.85332356711226 73.85332356711226 73.85332356711226 73.88408716352316 73.88408716352316 73.88408716352316 73.91485075993407 73.91485075993407 73.91485075993407 73.91485075993407 73.94561435634498 73.97637795275591 73.97637795275591 74.00714154916682 74.03790514557772 74.03790514557772 74.06866874198865 74.06866874198865 74.06866874198865 74.09943233839957 74.09943233839957 74.09943233839957 74.09943233839957 74.09943233839957 74.09943233839957 74.09943233839957 74.09943233839957 74.09943233839957 74.09943233839957 74.09943233839957 74.09943233839957 74.09943233839957 74.09943233839957 74.06866874198865 74.06866874198865 74.06866874198865 74.06866874198865 74.06866874198865 74.06866874198865 74.06866874198865 74.06866874198865 74.06866874198865 74.06866874198865 74.06866874198865 74.03790514557772 74.03790514557772 74.03790514557772 74.00714154916682 74.00714154916682 74.00714154916682 74.03790514557772 74.00714154916682 74.00714154916682 74.00714154916682 74.03790514557772 74.03790514557772 74.03790514557772 74.03790514557772 74.03790514557772 74.03790514557772 74.03790514557772 74.03790514557772 74.03790514557772 74.06866874198865 74.03790514557772 74.06866874198865 74.03790514557772 74.03790514557772 74.03790514557772 74.03790514557772 74.00714154916682 74.00714154916682 74.00714154916682 74.00714154916682 74.00714154916682 74.00714154916682 74.00714154916682 74.00714154916682 74.00714154916682 74.00714154916682 74.03790514557772 74.00714154916682 74.03790514557772 74.03790514557772 74.03790514557772 74.03790514557772 74.03790514557772 74.06866874198865 74.09943233839957 74.09943233839957 74.09943233839957 74.13019593481047 74.13019593481047 74.13019593481047 74.09943233839957 74.13019593481047 74.13019593481047 74.13019593481047 74.09943233839957 74.09943233839957 74.09943233839957 74.06866874198865 74.09943233839957 74.06866874198865 74.06866874198865 74.06866874198865 74.03790514557772 74.00714154916682 73.94561435634498 73.88408716352316 73.85332356711226 73.79179637429041 73.7610327778795 73.7302691814686 73.69950558505768 73.69950558505768 73.66874198864676 73.66874198864676 73.63797839223585 73.63797839223585 73.63797839223585 73.63797839223585 73.63797839223585 73.66874198864676 73.66874198864676 73.69950558505768 73.7302691814686 73.7302691814686 73.7610327778795 73.7610327778795 73.7610327778795 73.7610327778795 73.79179637429041 73.79179637429041 73.82255997070132 73.82255997070132 73.82255997070132 73.82255997070132 73.85332356711226 73.85332356711226 73.85332356711226 73.85332356711226 73.85332356711226 73.85332356711226 73.85332356711226 73.85332356711226 73.85332356711226 73.82255997070132 73.82255997070132 73.79179637429041 73.79179637429041 73.7610327778795 73.79179637429041 73.79179637429041 73.79179637429041 73.79179637429041 73.79179637429041 73.79179637429041 73.82255997070132 73.82255997070132 73.82255997070132 73.82255997070132 73.82255997070132 73.82255997070132 73.82255997070132 73.82255997070132 73.82255997070132 73.82255997070132 73.79179637429041 73.79179637429041 73.79179637429041 73.79179637429041 73.7302691814686 73.63797839223585 73.57645119941402 73.42263321735945 73.26881523530488 73.0842336568394 72.89965207837392 72.71507049990844 72.31514374656656 71.88445339681377 71.57681743270463 71.05383629371909 70.65390954037721 69.9463468229262 69.73100164804981 69.20802050906427 68.65427577366782 68.13129463468229 67.73136788134042 67.20838674235489 66.68540560336935 66.1624244643838 65.79326130745284 65.48562534334371 64.99340780076909 64.50119025819447 64.03973631203075 63.516755173045226 63.14759201611426 62.68613806995056 62.28621131660868 62.009338948910454 61.33253982787035 60.87108588170665 60.53268632118659 60.07123237502289 59.60977842885918 59.2098516755173 58.7483977293536 58.40999816883354 57.88701702984801 57.456326680095216 56.964109137520595 56.441127998535066 56.0719648416041 55.27211133492034 54.68760300311298 54.19538546053836 53.76469511078557 53.24171397180004 52.84178721845816 52.0419337117744 51.61124336202161 51.08826222303607 50.50375389122871 50.31917231276323 49.580845998901296 49.24244643838125 48.75022889580663 48.28877494964292 47.88884819630104 47.48892144295917 46.996703900384546 46.658304339864486 46.16608679728987 45.82768723676982 45.427760483427946 44.99707013367515 44.68943416956601 44.227980223402305 43.612708295184035 43.24354513825307 42.99743636696576 42.59750961362388 42.16681926387108 41.73612891411829 41.36696575718733 40.96703900384545 40.50558505768174 40.35176707562717 39.76725874381981 39.428859183299764 39.028932429957884 38.629005676616 38.25984251968504 37.9522065555759 37.552279802234025 37.306171030946714 36.87548068119392 36.598608313495696 36.106390770921074 35.67570042116829 35.24501007141549 34.87584691448453 34.69126533601904 34.35286577549899 34.29133858267716 34.10675700421168 33.89141182933528 33.67606665445889 33.522248672404324 33.33766709393884 33.18384911188427 32.968503937007874 32.78392235854239 32.660867972898735 32.53781358725508 32.38399560520051 32.260941219556855 32.04559604468046 31.891778062625892 31.768723676982237 31.676432887749495 31.584142098516754 31.461087712873102 31.36879692364036 31.27650613440762 31.21497894158579 31.153451748763963 31.12268815235305 31.06116095953122 30.999633766709394 30.87657938106574 30.72276139901117 30.691997802600255 30.5689434169566 30.507416224134772 30.47665262772386 30.445889031312948 30.415125434902034 30.415125434902034 30.38436183849112 30.38436183849112 30.38436183849112 30.353598242080206 30.353598242080206 30.353598242080206 30.353598242080206 30.353598242080206 30.353598242080206 30.353598242080206 30.322834645669293 30.322834645669293 30.322834645669293 30.29207104925838 30.261307452847465 30.23054385643655 30.23054385643655 30.199780260025637 30.169016663614723 30.13825306720381 30.107489470792896 30.07672587438198 30.07672587438198 30.07672587438198 30.045962277971068 30.045962277971068 30.045962277971068 30.045962277971068 30.045962277971068 30.045962277971068 30.045962277971068 30.045962277971068 30.045962277971068 30.045962277971068 30.045962277971068 30.015198681560154 30.015198681560154 30.015198681560154 30.015198681560154 30.015198681560154 30.015198681560154 30.015198681560154 30.015198681560154 30.015198681560154 30.015198681560154 30.015198681560154 30.015198681560154 30.015198681560154 30.015198681560154 30.015198681560154 30.015198681560154 30.015198681560154 30.015198681560154 30.015198681560154 30.015198681560154 30.015198681560154 30.015198681560154 30.015198681560154 30.015198681560154 29.98443508514924 29.98443508514924 29.98443508514924 29.98443508514924 29.98443508514924 29.98443508514924 29.953671488738326 29.953671488738326 29.922907892327412 29.83061710309467 29.83061710309467 29.799853506683757 29.769089910272843 29.73832631386193 29.73832631386193 29.707562717451015 29.707562717451015 29.707562717451015 29.707562717451015 29.707562717451015 29.6767991210401 29.6767991210401 29.6767991210401 29.6767991210401 29.6767991210401 29.6767991210401 29.6767991210401 29.6767991210401 29.6767991210401 29.646035524629188 29.646035524629188 29.6767991210401 29.646035524629188 29.646035524629188 29.646035524629188 29.646035524629188 29.646035524629188 29.646035524629188 29.615271928218274 29.615271928218274 29.646035524629188 29.646035524629188 29.615271928218274 29.646035524629188 29.615271928218274 29.646035524629188 29.646035524629188 29.615271928218274 29.615271928218274 29.615271928218274 29.646035524629188 29.615271928218274 29.615271928218274 29.615271928218274 29.646035524629188 29.615271928218274 29.615271928218274 29.615271928218274 29.615271928218274 29.615271928218274 29.615271928218274 29.615271928218274 29.615271928218274 29.615271928218274 29.615271928218274 29.615271928218274 29.615271928218274 29.615271928218274 29.615271928218274 29.615271928218274 29.615271928218274 29.646035524629188 29.615271928218274 29.615271928218274 29.615271928218274 29.615271928218274 29.615271928218274 29.615271928218274 29.615271928218274 29.615271928218274 29.615271928218274 29.615271928218274 29.615271928218274 29.615271928218274 29.615271928218274 29.615271928218274 29.615271928218274 29.58450833180736 29.58450833180736 29.615271928218274 29.615271928218274 29.615271928218274 29.615271928218274 29.615271928218274 29.615271928218274 29.615271928218274 29.615271928218274 29.615271928218274 29.615271928218274 29.615271928218274 29.615271928218274 29.615271928218274 29.615271928218274 29.615271928218274 29.58450833180736 29.58450833180736 29.615271928218274 29.615271928218274 29.615271928218274 29.615271928218274 29.615271928218274 29.615271928218274 29.58450833180736 29.615271928218274 29.615271928218274 29.58450833180736 29.615271928218274 29.615271928218274 29.615271928218274 29.615271928218274 29.615271928218274 29.58450833180736 29.615271928218274 29.58450833180736 29.615271928218274 29.615271928218274 29.615271928218274 29.615271928218274 29.58450833180736 29.615271928218274 29.615271928218274 29.615271928218274 29.615271928218274 29.615271928218274 29.615271928218274 29.615271928218274 29.615271928218274 29.615271928218274 29.615271928218274 29.615271928218274 29.58450833180736 29.615271928218274 29.615271928218274 29.615271928218274 29.615271928218274 29.615271928218274 29.615271928218274 29.615271928218274 29.615271928218274 29.615271928218274 29.615271928218274 29.615271928218274 29.615271928218274 29.615271928218274 29.615271928218274 29.615271928218274 29.615271928218274 29.58450833180736 29.615271928218274 29.615271928218274 29.615271928218274 29.615271928218274 29.615271928218274 29.615271928218274 29.615271928218274 29.615271928218274 29.615271928218274 29.615271928218274 29.615271928218274 29.615271928218274 29.615271928218274 29.58450833180736 29.58450833180736 29.615271928218274 29.615271928218274 29.615271928218274 29.615271928218274 29.615271928218274 29.615271928218274 29.615271928218274 29.615271928218274 29.615271928218274 29.615271928218274 29.615271928218274 29.615271928218274 29.615271928218274 29.615271928218274 29.615271928218274 29.615271928218274 29.615271928218274 29.615271928218274 29.615271928218274 29.615271928218274 29.615271928218274 29.615271928218274 29.58450833180736 29.615271928218274 29.615271928218274 29.615271928218274 29.615271928218274 29.615271928218274 29.615271928218274 29.615271928218274 29.615271928218274 29.646035524629188 29.646035524629188 29.646035524629188 29.6767991210401 29.6767991210401 29.6767991210401 29.6767991210401 29.707562717451015 29.707562717451015 29.769089910272843 29.83061710309467 29.8921442959165 29.98443508514924 30.07672587438198 30.261307452847465 30.445889031312948 30.538179820545686 30.5689434169566 30.599707013367514 30.691997802600255 30.87657938106574 30.999633766709394 31.338033327229446 31.55337850210584 31.737960080571323 31.95330525544772 32.19941402673503 32.32246841237868 32.69163156930965 32.906976744186046 33.2453763047061 33.522248672404324 33.76835744369163 34.04522981138985 34.44515656473173 34.537447353964474 34.84508331807361 35.09119208936092 35.429591649880976 35.79875480681194 36.1679179637429 36.53708112067387 36.87548068119392 37.02929866324849 37.36769822376854 37.61380699505585 38.167551730452296 38.59824208020509 38.93664164072514 39.39809558688884 39.921076725874386 40.136421900750776 40.75169382896905 41.090093389489105 41.61307452847464 42.13605566746017 42.505218824391136 43.058963559787585 43.73576268082768 43.981871452114994 44.50485259110053 44.874015748031496 45.396996887017025 45.950741622413474 46.28914118293353 47.02746749679545 47.519685039370074 47.85808459989013 48.165720563999265 48.50412012451932 49.119392052737595 49.45779161325764 49.91924555942135 50.380699505585056 50.78062625892693 51.33437099432338 51.91887932613075 52.31880607947262 52.9340780076909 53.518586339498256 53.980040285661964 54.65683940670207 55.149056949276684 55.73356528108405 56.441127998535066 56.93334554110969 57.57938106573887 58.40999816883354 58.96374290422999 59.39443325398278 59.886650796557404 60.440395531953854 60.778795092473906 61.11719465299395 61.76323017762314 62.255447720197765 62.5630836843069 62.99377403405969 63.30140999816883 63.70133675151071 64.1320271012635 64.43966306537264 64.90111701153634 65.30104376487822 65.63944332539828 66.25471525361655 66.56235121772569 66.90075077824574 67.36220472440945 67.73136788134042 68.19282182750412 68.8388573521333 69.300311298297 69.70023805163889 70.03863761215894 70.50009155832265 70.86925471525362 71.26918146859549 71.69987181834829 72.16132576451199 72.4074345357993 72.77659769273026 73.14576084966123 73.48416041018129 73.7610327778795 73.97637795275591 74.1917231276323 74.40706830250869 74.56088628456325 74.74546786302875 74.8377586522615 74.93004944149423 74.96081303790514 74.99157663431606 74.99157663431606 74.99157663431606 74.99157663431606 74.99157663431606 74.99157663431606 74.96081303790514 74.96081303790514 74.96081303790514 74.89928584508331 74.8377586522615 74.74546786302875 74.6224134773851 74.53012268815235 74.40706830250869 74.25325032045413 74.1917231276323 74.13019593481047 74.06866874198865 73.97637795275591 73.85332356711226 73.7610327778795 73.69950558505768 73.60721479582494 73.57645119941402 73.5456876030031 73.5149240065922 73.48416041018129 73.45339681377037 73.42263321735945 73.39186962094854 73.39186962094854 73.39186962094854 73.36110602453763 73.39186962094854 73.36110602453763 73.33034242812671 73.33034242812671 73.33034242812671 73.33034242812671 73.33034242812671 73.33034242812671 73.33034242812671 73.33034242812671 73.33034242812671 73.33034242812671 73.33034242812671 73.33034242812671 73.33034242812671 73.33034242812671 73.33034242812671 73.33034242812671 73.29957883171579 73.26881523530488 73.23805163889398 73.17652444607214 73.14576084966123 73.14576084966123 73.14576084966123 73.11499725325032 73.11499725325032 73.0842336568394 73.0842336568394 73.05347006042848 73.05347006042848 73.02270646401757 73.05347006042848 73.02270646401757 72.99194286760667 72.96117927119576 72.96117927119576 72.93041567478483 72.93041567478483 72.93041567478483 72.93041567478483 72.93041567478483 72.89965207837392 72.89965207837392 72.89965207837392 72.89965207837392 72.89965207837392 72.89965207837392 72.89965207837392 72.89965207837392 72.89965207837392 72.89965207837392 72.93041567478483 72.93041567478483 72.93041567478483 72.93041567478483 72.93041567478483 72.93041567478483 72.93041567478483 72.93041567478483 72.96117927119576 72.93041567478483 72.93041567478483 72.93041567478483 72.93041567478483 72.93041567478483 72.93041567478483 72.96117927119576 72.93041567478483 72.93041567478483 72.96117927119576 72.93041567478483 72.93041567478483 72.93041567478483 72.93041567478483 72.93041567478483 72.96117927119576 72.96117927119576 72.93041567478483 72.96117927119576 72.96117927119576 72.96117927119576 72.96117927119576 72.96117927119576 72.96117927119576 72.96117927119576 72.96117927119576 72.96117927119576 72.96117927119576 72.96117927119576 72.96117927119576 72.96117927119576 72.96117927119576 72.96117927119576 72.96117927119576 72.96117927119576 72.96117927119576 72.99194286760667 73.02270646401757 73.05347006042848 73.0842336568394 73.11499725325032 73.11499725325032 73.14576084966123 73.14576084966123 73.14576084966123 73.17652444607214 73.17652444607214 73.17652444607214 73.17652444607214 73.17652444607214 73.17652444607214 73.17652444607214 73.17652444607214 73.17652444607214 73.17652444607214 73.17652444607214 73.17652444607214 73.17652444607214 73.17652444607214 73.17652444607214 73.17652444607214 73.17652444607214 73.14576084966123 73.14576084966123 73.14576084966123 73.14576084966123 73.14576084966123 73.17652444607214 73.17652444607214 73.17652444607214 73.17652444607214 73.23805163889398 73.26881523530488 73.26881523530488 73.29957883171579 73.29957883171579 73.33034242812671 73.36110602453763 73.39186962094854 73.39186962094854 73.39186962094854 73.39186962094854 73.39186962094854 73.39186962094854 73.39186962094854 73.39186962094854 73.39186962094854 73.39186962094854 73.36110602453763 73.36110602453763 73.39186962094854 73.36110602453763 73.36110602453763 73.36110602453763 73.36110602453763 73.36110602453763 73.36110602453763 73.36110602453763 73.36110602453763 73.36110602453763 73.36110602453763 73.36110602453763 73.36110602453763 73.36110602453763 73.36110602453763 73.36110602453763 73.36110602453763 73.36110602453763 73.36110602453763 73.39186962094854 73.36110602453763 73.36110602453763 73.36110602453763 73.36110602453763 73.39186962094854 73.36110602453763 73.36110602453763 73.36110602453763 73.39186962094854 73.42263321735945 73.45339681377037 73.45339681377037 73.45339681377037 73.45339681377037 73.45339681377037 73.45339681377037 73.45339681377037 73.45339681377037 73.45339681377037 73.45339681377037 73.45339681377037 73.45339681377037 73.45339681377037 73.45339681377037 73.45339681377037 73.45339681377037 73.45339681377037 73.48416041018129 73.48416041018129 73.5149240065922 73.5149240065922 73.5149240065922 73.5456876030031 73.5456876030031 73.5456876030031 73.5456876030031 73.5456876030031 73.57645119941402 73.57645119941402 73.57645119941402 73.57645119941402 73.57645119941402 73.57645119941402 73.60721479582494 73.57645119941402 73.60721479582494 73.57645119941402 73.57645119941402 73.57645119941402 73.57645119941402 73.57645119941402 73.57645119941402 73.57645119941402 73.57645119941402 73.5456876030031 73.5456876030031 73.5149240065922 73.5149240065922 73.48416041018129 73.5149240065922 73.5149240065922 73.5149240065922 73.5149240065922 73.5149240065922 73.5149240065922 73.48416041018129 73.48416041018129 73.5149240065922 73.5149240065922 73.5149240065922 73.5149240065922 73.5149240065922 73.5149240065922 73.5149240065922 73.48416041018129 73.5149240065922 73.48416041018129 73.48416041018129 73.48416041018129 73.45339681377037 73.45339681377037 73.45339681377037 73.45339681377037 73.45339681377037 73.45339681377037 73.45339681377037 73.45339681377037 73.45339681377037 73.42263321735945 73.39186962094854 73.39186962094854 73.33034242812671 73.33034242812671 73.29957883171579 73.23805163889398 73.20728804248306 73.14576084966123 73.14576084966123 73.02270646401757 72.89965207837392 72.80736128914117 72.71507049990844 72.5920161142648 72.4074345357993 72.22285295733383 72.06903497527925 71.82292620399194 71.54605383629371 71.33070866141732 70.99230910089727 70.59238234755539 70.25398278703534 69.97711041933712 69.66947445522797 69.20802050906427 68.8080937557224 68.31587621314777 67.91594945980589 67.51602270646401 67.17762314594395 66.83922358542392 66.3470060428493 65.94707928950741 65.2395165720564 64.83958981871451 64.25508148690716 63.85515473356528 63.30140999816883 62.716901666361466 62.31697491301959 61.73246658121223 61.17872184581578 60.778795092473906 60.22505035707745 59.82512360373558 59.117560886284565 58.809924922175426 58.40999816883354 57.88701702984801 57.117927119575164 56.87181834828786 56.13349203442593 55.61051089544039 55.149056949276684 54.7183665995239 54.41073063541476 53.70316791796374 53.14942318256729 52.78026002563632 52.288042483061716 51.91887932613075 51.488188976377955 51.02673503021424 50.688335469694195 50.16535433070866 49.673136788134045 49.30397363120308 48.719465299395715 48.35030214246475 47.765793810657385 47.15052188243911 46.71983153268632 46.104559604468044 45.643105658304336 44.75096136238784 44.135689434169564 43.64347189159494 43.15125434902033 42.59750961362388 42.412928035158394 41.797656106940124 41.459256546420065 41.090093389489105 40.65940303973631 40.35176707562717 39.921076725874386 39.55191356894342 39.24427760483428 38.8443508514924 38.50595129097235 38.13678813404138 37.61380699505585 37.33693462735763 36.96777147042666 36.72166269913935 36.444790331441126 36.044863578099246 35.737227613990115 35.27577366782641 34.99890130012818 34.8143197216627 34.69126533601904 34.50668375755356 34.44515656473173 34.16828419703351 34.04522981138985 33.79912104010255 33.49148507599341 33.33766709393884 33.18384911188427 32.87621314777513 32.660867972898735 32.53781358725508 32.3532320087896 32.1378868339132 31.86101446621498 31.614905694927668 31.430324116462188 31.27650613440762 31.21497894158579 31.12268815235305 31.06116095953122 30.96887017029848 30.907342977476652 30.81505218824391 30.72276139901117 30.599707013367514 30.507416224134772 30.415125434902034 30.353598242080206 30.261307452847465 30.169016663614723 30.045962277971068 29.98443508514924 29.922907892327412 29.83061710309467 29.799853506683757 29.769089910272843 29.707562717451015 29.6767991210401 29.646035524629188 29.646035524629188 29.646035524629188 29.615271928218274 29.615271928218274 29.615271928218274 29.615271928218274 29.615271928218274 29.615271928218274 29.615271928218274 29.615271928218274 29.615271928218274 29.58450833180736 29.615271928218274 29.58450833180736 29.58450833180736 29.58450833180736 29.58450833180736 29.58450833180736 29.553744735396446 29.553744735396446 29.553744735396446 29.522981138985532 29.553744735396446 29.553744735396446 29.522981138985532 29.553744735396446 29.553744735396446 29.553744735396446 29.522981138985532 29.522981138985532 29.522981138985532 29.522981138985532 29.522981138985532 29.522981138985532 29.522981138985532 29.522981138985532 29.522981138985532 29.522981138985532 29.522981138985532 29.49221754257462 29.49221754257462 29.522981138985532 29.522981138985532 29.49221754257462 29.49221754257462 29.49221754257462 29.49221754257462 29.49221754257462 29.49221754257462 29.49221754257462 29.49221754257462 29.49221754257462 29.49221754257462 29.49221754257462 29.49221754257462 29.461453946163708 29.49221754257462 29.49221754257462 29.49221754257462 29.49221754257462 29.49221754257462 29.49221754257462 29.49221754257462 29.49221754257462 29.49221754257462 29.49221754257462 29.461453946163708 29.461453946163708 29.461453946163708 29.49221754257462 29.461453946163708 29.461453946163708 29.461453946163708 29.461453946163708 29.461453946163708 29.461453946163708 29.461453946163708 29.461453946163708 29.461453946163708 29.461453946163708 29.461453946163708 29.461453946163708 29.461453946163708 29.461453946163708 29.461453946163708 29.461453946163708 29.461453946163708 29.430690349752794 29.461453946163708 29.430690349752794 29.430690349752794 29.430690349752794 29.430690349752794 29.430690349752794 29.430690349752794 29.430690349752794 29.430690349752794 29.430690349752794 29.430690349752794 29.430690349752794 29.430690349752794 29.430690349752794 29.430690349752794 29.430690349752794 29.39992675334188 29.430690349752794 29.430690349752794 29.430690349752794 29.430690349752794 29.430690349752794 29.430690349752794 29.430690349752794 29.430690349752794 29.430690349752794 29.39992675334188 29.430690349752794 29.430690349752794 29.430690349752794 29.430690349752794 29.430690349752794 29.430690349752794 29.430690349752794 29.430690349752794 29.430690349752794 29.39992675334188 29.430690349752794 29.430690349752794 29.430690349752794 29.39992675334188 29.430690349752794 29.39992675334188 29.39992675334188 29.430690349752794 29.430690349752794 29.430690349752794 29.430690349752794 29.430690349752794 29.430690349752794 29.430690349752794 29.430690349752794 29.430690349752794 29.39992675334188 29.39992675334188 29.39992675334188 29.39992675334188 29.39992675334188 29.39992675334188 29.39992675334188 29.39992675334188 29.430690349752794 29.39992675334188 29.39992675334188 29.39992675334188 29.39992675334188 29.39992675334188 29.39992675334188 29.39992675334188 29.39992675334188 29.39992675334188 29.39992675334188 29.39992675334188 29.39992675334188 29.39992675334188 29.39992675334188 29.39992675334188 29.39992675334188 29.39992675334188 29.39992675334188 29.39992675334188 29.39992675334188 29.39992675334188 29.39992675334188 29.39992675334188 29.39992675334188 29.430690349752794 29.39992675334188 29.39992675334188 29.39992675334188 29.430690349752794 29.39992675334188 29.39992675334188 29.39992675334188 29.39992675334188 29.430690349752794 29.39992675334188 29.39992675334188 29.39992675334188 29.39992675334188 29.39992675334188 29.39992675334188 29.39992675334188 29.39992675334188 29.39992675334188 29.430690349752794 29.39992675334188 29.39992675334188 29.39992675334188 29.39992675334188 29.39992675334188 29.39992675334188 29.39992675334188 29.39992675334188 29.39992675334188 29.430690349752794 29.39992675334188 29.39992675334188 29.39992675334188 29.39992675334188 29.39992675334188 29.430690349752794 29.39992675334188 29.39992675334188 29.39992675334188 29.39992675334188 29.39992675334188 29.39992675334188 29.39992675334188 29.39992675334188 29.39992675334188 29.39992675334188 29.39992675334188 29.39992675334188 29.39992675334188 29.39992675334188 29.430690349752794 29.39992675334188 29.39992675334188 29.39992675334188 29.39992675334188 29.39992675334188 29.39992675334188 29.39992675334188 29.39992675334188 29.39992675334188 29.39992675334188 29.39992675334188 29.39992675334188 29.39992675334188 29.39992675334188 29.39992675334188 29.39992675334188 29.39992675334188 29.39992675334188 29.39992675334188 29.39992675334188 29.39992675334188 29.39992675334188 29.39992675334188 29.39992675334188 29.39992675334188 29.39992675334188 29.39992675334188 29.39992675334188 29.39992675334188 29.39992675334188 29.39992675334188 29.39992675334188 29.39992675334188 29.39992675334188 29.39992675334188 29.39992675334188 29.39992675334188 29.430690349752794 29.39992675334188 29.430690349752794 29.39992675334188 29.39992675334188 29.39992675334188 29.39992675334188 29.39992675334188 29.39992675334188 29.39992675334188 29.39992675334188 29.39992675334188 29.39992675334188 29.39992675334188 29.39992675334188 29.39992675334188 29.39992675334188 29.39992675334188 29.39992675334188 29.39992675334188 29.39992675334188 29.39992675334188 29.39992675334188 29.39992675334188 29.39992675334188 29.39992675334188 29.39992675334188 29.39992675334188 29.39992675334188 29.39992675334188 29.39992675334188 29.39992675334188 29.39992675334188 29.39992675334188 29.39992675334188 29.39992675334188 29.39992675334188 29.39992675334188 29.39992675334188 29.39992675334188 29.39992675334188 29.39992675334188 29.39992675334188 29.39992675334188 29.39992675334188 29.39992675334188 29.39992675334188 29.39992675334188 29.39992675334188 29.39992675334188 29.39992675334188 29.39992675334188 29.39992675334188 29.39992675334188 29.39992675334188 29.39992675334188 29.39992675334188 29.39992675334188 29.39992675334188 29.39992675334188 29.39992675334188 29.39992675334188 29.39992675334188 29.39992675334188 29.39992675334188 29.39992675334188 29.39992675334188 29.39992675334188 29.39992675334188 29.39992675334188 29.39992675334188 29.39992675334188 29.39992675334188 29.39992675334188 29.39992675334188 29.39992675334188 29.39992675334188 29.39992675334188 29.39992675334188 29.39992675334188 29.39992675334188 29.39992675334188 29.39992675334188 29.39992675334188 29.430690349752794 29.39992675334188 29.430690349752794 29.39992675334188 29.39992675334188 29.39992675334188 29.39992675334188 29.39992675334188 29.39992675334188 29.430690349752794 29.430690349752794 29.39992675334188 29.430690349752794 29.430690349752794 29.430690349752794 29.430690349752794 29.430690349752794 29.430690349752794 29.461453946163708 29.461453946163708 29.461453946163708 29.461453946163708 29.49221754257462 29.522981138985532 29.522981138985532 29.553744735396446 29.615271928218274 29.646035524629188 29.646035524629188 29.6767991210401 29.73832631386193 29.769089910272843 29.799853506683757 29.953671488738326 30.045962277971068 30.169016663614723 30.322834645669293 30.38436183849112 30.507416224134772 30.599707013367514 30.753524995422083 30.907342977476652 31.091924555942136 31.307269730818533 31.491851309284012 31.614905694927668 31.830250869804065 31.95330525544772 32.19941402673503 32.507049990844166 32.93774034059696 33.0300311298297 33.2453763047061 33.39919428676067 33.64530305804798 34.01446621497894 34.16828419703351 34.383629371909905 34.8143197216627 35.24501007141549 35.706464017579194 36.07562717451016 36.56784471708478 36.96777147042666 37.2754074345358 37.73686138069951 38.321369712506865 38.50595129097235 39.15198681560154 39.49038637612159 39.982603918696206 40.38253067203809 40.936275407434536 41.5207837392419 41.92071049258377 42.47445522798022 42.99743636696576 43.366599523896724 43.828053470060425 44.35103460904596 44.72019776597693 45.24317890496246 45.643105658304336 46.25837758652261 46.904413111151804 47.39663065372642 48.073429774766524 48.96557407068302 49.427028016846734 49.888481963010435 50.50375389122871 51.18055301226882 51.88811572971983 52.38033327229445 53.08789598974546 53.826222303607395 54.34920344259293 55.087529756454856 55.61051089544039 56.41036440212415 57.179454312397 57.763962644204355 58.50228895806629 59.30214246475004 59.82512360373558 60.594213514008416 61.11719465299395 61.855520966855885 62.77842885918329 63.20911920893609 63.88591832997619 64.50119025819447 64.96264420435817 65.39333455411096 65.94707928950741 66.50082402490386 67.08533235671122 67.45449551364219 67.97747665262773 68.50045779161326 68.86962094854422 69.36183849111885 69.66947445522797 70.06940120856986 70.46932796191174 70.74620032960996 71.20765427577366 71.60758102911555 71.85368980040286 72.09979857169017 72.34590734297747 72.71507049990844 73.20728804248306 73.42263321735945 73.7610327778795 74.00714154916682 74.34554110968686 74.6224134773851 74.8685222486724 75.26844900201428 75.63761215894525 75.88372093023256 76.25288408716352 76.52975645486174 76.8681560153818 77.23731917231275 77.42190075077824 77.72953671488739 78.0064090825856 78.16022706464017 78.34480864310567 78.52939022157113 78.68320820362571 78.74473539644754 78.83702618568027 78.92931697491301 78.99084416773485 79.02160776414576 79.05237136055666 79.05237136055666 79.05237136055666 79.05237136055666 79.05237136055666 79.0831349569676 79.0831349569676 79.05237136055666 79.0831349569676 79.0831349569676 79.0831349569676 79.0831349569676 79.0831349569676 79.0831349569676 79.05237136055666 79.0831349569676 79.05237136055666 79.05237136055666 79.0831349569676 79.05237136055666 79.05237136055666 79.02160776414576 78.96008057132393 78.96008057132393 78.92931697491301 78.8985533785021 78.8677897820912 78.8677897820912 78.83702618568027 78.83702618568027 78.77549899285845 78.77549899285845 78.74473539644754 78.71397180003662 78.68320820362571 78.65244460721479 78.62168101080388 78.56015381798206 78.52939022157113 78.46786302874932 78.40633583592748 78.37557223951657 78.31404504669473 78.16022706464017 78.12946346822926 78.03717267899651 77.97564548617468 77.88335469694195 77.85259110053104 77.82182750412012 77.82182750412012 77.82182750412012 77.82182750412012 77.82182750412012 77.85259110053104 77.85259110053104 77.88335469694195 77.88335469694195 77.91411829335286 77.91411829335286 77.94488188976378 77.97564548617468 77.97564548617468 78.0064090825856 78.03717267899651 78.06793627540742 78.06793627540742 78.09869987181834 78.09869987181834 78.09869987181834 78.12946346822926 78.12946346822926 78.12946346822926 78.12946346822926 78.12946346822926 78.12946346822926 78.12946346822926 78.12946346822926 78.12946346822926 78.12946346822926 78.12946346822926 78.12946346822926 78.12946346822926 78.16022706464017 78.16022706464017 78.16022706464017 78.16022706464017 78.16022706464017 78.16022706464017 78.19099066105107 78.19099066105107 78.19099066105107 78.19099066105107 78.16022706464017 78.16022706464017 78.16022706464017 78.19099066105107 78.16022706464017 78.19099066105107 78.16022706464017 78.19099066105107 78.19099066105107 78.16022706464017 78.19099066105107 78.19099066105107 78.19099066105107 78.19099066105107 78.16022706464017 78.19099066105107 78.16022706464017 78.19099066105107 78.16022706464017 78.16022706464017 78.12946346822926 78.09869987181834 78.06793627540742 78.03717267899651 78.03717267899651 78.03717267899651 78.03717267899651 78.03717267899651 78.03717267899651 78.06793627540742 78.03717267899651 78.03717267899651 78.03717267899651 78.03717267899651 77.97564548617468 77.97564548617468 77.97564548617468 77.97564548617468 77.97564548617468 77.97564548617468 78.03717267899651 78.03717267899651 78.06793627540742 78.12946346822926 78.16022706464017 78.25251785387292 78.31404504669473 78.37557223951657 78.40633583592748 78.4370994323384 78.46786302874932 78.49862662516023 78.49862662516023 78.49862662516023 78.52939022157113 78.52939022157113 78.56015381798206 78.56015381798206 78.56015381798206 78.56015381798206 78.56015381798206 78.52939022157113 78.52939022157113 78.49862662516023 78.46786302874932 78.49862662516023 78.46786302874932 78.4370994323384 78.4370994323384 78.40633583592748 78.40633583592748 78.40633583592748 78.4370994323384 78.4370994323384 78.46786302874932 78.49862662516023 78.49862662516023 78.49862662516023 78.49862662516023 78.49862662516023 78.49862662516023 78.49862662516023 78.49862662516023 78.49862662516023 78.49862662516023 78.49862662516023 78.49862662516023 78.49862662516023 78.49862662516023 78.49862662516023 78.49862662516023 78.49862662516023 78.56015381798206 78.62168101080388 78.65244460721479 78.68320820362571 78.74473539644754 78.74473539644754 78.77549899285845 78.77549899285845 78.77549899285845 78.77549899285845 78.77549899285845 78.74473539644754 78.74473539644754 78.74473539644754 78.74473539644754 78.74473539644754 78.74473539644754 78.71397180003662 78.74473539644754 78.74473539644754 78.74473539644754 78.74473539644754 78.74473539644754 78.74473539644754 78.74473539644754 78.74473539644754 78.74473539644754 78.77549899285845 78.74473539644754 78.80626258926935 78.83702618568027 78.83702618568027 78.8677897820912 78.83702618568027 78.8677897820912 78.83702618568027 78.83702618568027 78.83702618568027 78.83702618568027 78.83702618568027 78.83702618568027 78.83702618568027 78.83702618568027 78.83702618568027 78.80626258926935 78.80626258926935 78.80626258926935 78.83702618568027 78.80626258926935 78.80626258926935 78.80626258926935 78.80626258926935 78.80626258926935 78.83702618568027 78.80626258926935 78.80626258926935 78.83702618568027 78.83702618568027 78.83702618568027 78.83702618568027 78.80626258926935 78.80626258926935 78.80626258926935 78.80626258926935 78.80626258926935 78.83702618568027 78.83702618568027 78.80626258926935 78.80626258926935 78.80626258926935 78.83702618568027 78.80626258926935 78.83702618568027 78.80626258926935 78.80626258926935 78.80626258926935 78.80626258926935 78.80626258926935 78.80626258926935 78.83702618568027 78.83702618568027 78.83702618568027 78.80626258926935 78.83702618568027 78.80626258926935 78.80626258926935 78.80626258926935 78.77549899285845 78.77549899285845 78.74473539644754 78.74473539644754 78.74473539644754 78.74473539644754 78.71397180003662 78.71397180003662 78.68320820362571 78.65244460721479 78.65244460721479 78.62168101080388 78.59091741439296 78.56015381798206 78.46786302874932 78.40633583592748 78.37557223951657 78.31404504669473 78.25251785387292 78.12946346822926 77.97564548617468 77.85259110053104 77.69877311847647 77.45266434718914 77.36037355795642 77.08350119025819 76.8681560153818 76.43746566562899 76.06830250869804 75.79143014099981 75.39150338765793 75.02234023072697 74.74546786302875 74.34554110968686 74.03790514557772 73.63797839223585 73.20728804248306 72.86888848196301 72.43819813221022 71.9459805896356 71.57681743270463 71.08459989013001 70.74620032960996 70.16169199780259 69.60794726240616 69.23878410547519 68.43893059879143 67.79289507416223 67.51602270646401 66.90075077824574 66.1624244643838 65.48562534334371 64.80882622230361 64.31660867972897 63.63980955868888 62.96301043764878 62.47079289507416 61.76323017762314 61.240249038637614 60.594213514008416 59.886650796557404 59.39443325398278 58.68687053653177 57.97930781908075 57.456326680095216 56.748763962644205 56.195019227247755 55.45669291338582 54.5030214246475 53.85698590001831 53.3955319538546 52.78026002563632 52.13422450100714 51.703534151254345 51.08826222303607 50.4729902948178 49.79619117377769 49.1501556491485 48.65793810657389 48.165720563999265 47.48892144295917 46.81212232191906 46.2276139901117 45.67386925471526 44.99707013367515 44.535616187511444 43.70499908441677 43.305072331074896 42.93590917414393 42.44369163156931 42.07452847463834 41.55154733565281 40.87474821461271 40.38253067203809 39.921076725874386 39.5211499725325 38.90587804431423 38.475187694561434 38.013733748397726 37.552279802234025 37.09082585607032 36.752426295550265 36.13715436733199 35.952572788866505 35.39882805347006 34.96813770371727 34.783556125251785 34.56821095037539 34.35286577549899 34.229811389855335 34.04522981138985 33.95293902215711 33.79912104010255 33.73759384728072 33.64530305804798 33.55301226881524 33.39919428676067 33.30690349752793 33.18384911188427 33.09155832265153 32.968503937007874 32.87621314777513 32.75315876213148 32.63010437648782 32.53781358725508 32.44552279802234 32.32246841237868 32.29170481596777 32.168650430324114 32.07635964109137 31.984068851858634 31.891778062625892 31.79948727339315 31.676432887749495 31.522614905694926 31.399560520051274 31.307269730818533 31.21497894158579 31.184215345174877 31.12268815235305 31.091924555942136 30.999633766709394 30.938106573887566 30.907342977476652 30.784288591832997 30.691997802600255 30.66123420618934 30.5689434169566 30.507416224134772 30.415125434902034 30.353598242080206 30.322834645669293 30.23054385643655 30.13825306720381 30.07672587438198 30.015198681560154 30.015198681560154 29.98443508514924 29.953671488738326 29.922907892327412 29.8921442959165 29.861380699505585 29.861380699505585 29.83061710309467 29.799853506683757 29.769089910272843 29.769089910272843 29.73832631386193 29.73832631386193 29.707562717451015 29.6767991210401 29.6767991210401 29.646035524629188 29.615271928218274 29.58450833180736 29.553744735396446 29.522981138985532 29.49221754257462 29.49221754257462 29.49221754257462 29.49221754257462 29.49221754257462 29.49221754257462 29.49221754257462 29.461453946163708 29.49221754257462 29.49221754257462 29.461453946163708 29.461453946163708 29.461453946163708 29.461453946163708 29.461453946163708 29.461453946163708 29.461453946163708 29.461453946163708 29.461453946163708 29.461453946163708 29.461453946163708 29.461453946163708 29.461453946163708 29.461453946163708 29.461453946163708 29.461453946163708 29.461453946163708 29.461453946163708 29.461453946163708 29.430690349752794 29.430690349752794 29.430690349752794 29.461453946163708 29.430690349752794 29.430690349752794 29.430690349752794 29.461453946163708 29.430690349752794 29.430690349752794 29.430690349752794 29.430690349752794 29.430690349752794 29.430690349752794 29.430690349752794 29.430690349752794 29.430690349752794 29.430690349752794 29.430690349752794 29.430690349752794 29.430690349752794 29.430690349752794 29.430690349752794 29.430690349752794 29.430690349752794 29.430690349752794 29.430690349752794 29.430690349752794 29.430690349752794 29.430690349752794 29.430690349752794 29.430690349752794 29.430690349752794 29.430690349752794 29.430690349752794 29.430690349752794 29.430690349752794 29.430690349752794 29.430690349752794 29.430690349752794 29.430690349752794 29.430690349752794 29.430690349752794 29.430690349752794 29.430690349752794 29.430690349752794 29.430690349752794 29.430690349752794 29.430690349752794 29.430690349752794 29.430690349752794 29.430690349752794 29.430690349752794 29.430690349752794 29.430690349752794 29.430690349752794 29.39992675334188 29.430690349752794 29.430690349752794 29.430690349752794 29.430690349752794 29.430690349752794 29.430690349752794 29.430690349752794 29.430690349752794 29.430690349752794 29.430690349752794 29.39992675334188 29.39992675334188 29.430690349752794 29.430690349752794 29.430690349752794 29.430690349752794 29.39992675334188 29.430690349752794 29.430690349752794 29.430690349752794 29.39992675334188 29.430690349752794 29.430690349752794 29.430690349752794 29.430690349752794 29.39992675334188 29.430690349752794 29.430690349752794 29.430690349752794 29.430690349752794 29.430690349752794 29.39992675334188 29.430690349752794 29.39992675334188 29.430690349752794 29.39992675334188 29.430690349752794 29.430690349752794 29.430690349752794 29.39992675334188 29.39992675334188 29.39992675334188 29.39992675334188 29.39992675334188 29.430690349752794 29.39992675334188 29.39992675334188 29.39992675334188 29.430690349752794 29.430690349752794 29.430690349752794 29.430690349752794 29.430690349752794 29.39992675334188 29.39992675334188 29.39992675334188 29.430690349752794 29.39992675334188 29.430690349752794 29.430690349752794 29.39992675334188 29.39992675334188 29.39992675334188 29.39992675334188 29.430690349752794 29.430690349752794 29.39992675334188 29.430690349752794 29.39992675334188 29.430690349752794 29.39992675334188 29.39992675334188 29.430690349752794 29.39992675334188 29.39992675334188 29.430690349752794 29.430690349752794 29.39992675334188 29.39992675334188 29.39992675334188 29.39992675334188 29.39992675334188 29.39992675334188 29.39992675334188 29.39992675334188 29.39992675334188 29.39992675334188 29.430690349752794 29.430690349752794 29.39992675334188 29.39992675334188 29.39992675334188 29.39992675334188 29.39992675334188 29.39992675334188 29.39992675334188 29.39992675334188 29.39992675334188 29.39992675334188 29.39992675334188 29.39992675334188 29.39992675334188 29.430690349752794 29.39992675334188 29.39992675334188 29.39992675334188 29.430690349752794 29.39992675334188 29.39992675334188 29.39992675334188 29.39992675334188 29.39992675334188 29.430690349752794 29.39992675334188 29.39992675334188 29.39992675334188 29.39992675334188 29.39992675334188 29.39992675334188 29.39992675334188 29.39992675334188 29.39992675334188 29.430690349752794 29.430690349752794 29.39992675334188 29.39992675334188 29.39992675334188 29.39992675334188 29.39992675334188 29.39992675334188 29.39992675334188 29.39992675334188 29.39992675334188 29.39992675334188 29.39992675334188 29.39992675334188 29.39992675334188 29.39992675334188 29.39992675334188 29.39992675334188 29.39992675334188 29.39992675334188 29.39992675334188 29.39992675334188 29.39992675334188 29.39992675334188 29.39992675334188 29.39992675334188 29.39992675334188 29.39992675334188 29.39992675334188 29.39992675334188 29.39992675334188 29.39992675334188 29.430690349752794 29.39992675334188 29.39992675334188 29.39992675334188 29.39992675334188 29.39992675334188 29.430690349752794 29.39992675334188 29.39992675334188 29.39992675334188 29.39992675334188 29.39992675334188 29.39992675334188 29.39992675334188 29.39992675334188 29.39992675334188 29.39992675334188 29.39992675334188 29.39992675334188 29.39992675334188 29.430690349752794 29.39992675334188 29.39992675334188 29.39992675334188 29.39992675334188 29.39992675334188 29.39992675334188 29.39992675334188 29.39992675334188 29.39992675334188 29.39992675334188 29.39992675334188 29.39992675334188 29.39992675334188 29.39992675334188 29.39992675334188 29.39992675334188 29.39992675334188 29.39992675334188 29.39992675334188 29.39992675334188 29.39992675334188 29.39992675334188 29.39992675334188 29.39992675334188 29.39992675334188 29.39992675334188 29.39992675334188 29.39992675334188 29.39992675334188 29.39992675334188 29.430690349752794 29.39992675334188 29.39992675334188 29.39992675334188 29.39992675334188 29.39992675334188 29.39992675334188 29.430690349752794 29.39992675334188 29.39992675334188 29.39992675334188 29.39992675334188 29.39992675334188 29.39992675334188 29.430690349752794 29.39992675334188 29.39992675334188 29.430690349752794 29.430690349752794 29.430690349752794 29.430690349752794 29.430690349752794 29.430690349752794 29.430690349752794 29.430690349752794 29.430690349752794 29.430690349752794 29.430690349752794 29.430690349752794 29.430690349752794 29.461453946163708 29.461453946163708 29.461453946163708 29.461453946163708 29.461453946163708 29.49221754257462 29.49221754257462 29.49221754257462 29.522981138985532 29.553744735396446 29.553744735396446 29.553744735396446 29.58450833180736 29.58450833180736 29.615271928218274 29.6767991210401 29.707562717451015 29.769089910272843 29.83061710309467 29.8921442959165 30.015198681560154 30.199780260025637 30.322834645669293 30.445889031312948 30.538179820545686 30.599707013367514 30.72276139901117 30.907342977476652 31.12268815235305 31.245742537996705 31.36879692364036 31.491851309284012 31.614905694927668 31.830250869804065 32.014832448269544 32.19941402673503 32.44552279802234 32.814685954953305 33.0300311298297 33.42995788317158 33.64530305804798 33.983702618568024 34.29133858267716 34.50668375755356 34.84508331807361 35.36806445705915 35.737227613990115 36.044863578099246 36.41402673503021 36.81395348837209 37.2754074345358 37.61380699505585 38.35213330891778 38.90587804431423 39.428859183299764 39.79802234023072 40.25947628639443 40.843984618201794 41.39772935359824 41.88994689617286 42.38216443874748 42.75132759567845 43.274308734663975 43.828053470060425 44.227980223402305 44.75096136238784 45.3354696941952 45.82768723676982 46.31990477934444 46.71983153268632 47.5812122321919 48.073429774766524 48.50412012451932 49.05786485991577 49.91924555942135 50.34993590917414 50.995971433803334 51.42666178355613 52.07269730818531 52.56491485075993 53.118659586156376 53.73393151437466 54.34920344259293 54.841420985167545 55.395165720563995 55.82585607031679 56.441127998535066 57.056399926753336 57.517853872917044 58.1023622047244 58.71763413294268 59.27137886833913 59.94817798937923 60.22505035707745 60.778795092473906 61.33253982787035 61.79399377403406 62.255447720197765 62.870719648416035 63.20911920893609 63.670573155099795 63.94744552279802 64.37813587255081 64.65500824024903 64.90111701153634 65.20875297564548 65.45486174693279 65.63944332539828 65.79326130745284 65.88555209668559 66.00860648232924 66.03937007874015 66.07013367515107 66.07013367515107 66.10089727156199 66.10089727156199 66.10089727156199 66.1316608679729 66.1624244643838 66.22395165720565 66.28547885002746 66.40853323567111 66.53158762131477 66.68540560336935 66.86998718183483 66.99304156747849 67.14685954953305 67.30067753158761 67.39296832082036 67.54678630287492 67.63907709210767 67.73136788134042 67.85442226698407 67.88518586339498 68.00824024903864 68.10053103827138 68.13129463468229 68.19282182750412 68.25434902032595 68.28511261673685 68.31587621314777 68.31587621314777 68.31587621314777 68.31587621314777 68.31587621314777 68.31587621314777 68.28511261673685 68.28511261673685 68.28511261673685 68.28511261673685 68.28511261673685 68.28511261673685 68.28511261673685 68.25434902032595 68.25434902032595 68.25434902032595 68.25434902032595 68.25434902032595 68.25434902032595 68.25434902032595 68.25434902032595 68.25434902032595 68.25434902032595 68.25434902032595 68.28511261673685 68.31587621314777 68.3774034059696 68.43893059879143 68.43893059879143 68.50045779161326 68.53122138802416 68.592748580846 68.62351217725691 68.62351217725691 68.65427577366782 68.65427577366782 68.65427577366782 68.68503937007873 68.68503937007873 68.68503937007873 68.68503937007873 68.65427577366782 68.68503937007873 68.68503937007873 68.68503937007873 68.65427577366782 68.65427577366782 68.65427577366782 68.65427577366782 68.65427577366782 68.65427577366782 68.68503937007873 68.68503937007873 68.68503937007873 68.68503937007873 68.71580296648965 68.74656656290057 68.74656656290057 68.77733015931148 68.77733015931148 68.77733015931148 68.8080937557224 68.8080937557224 68.8388573521333 68.8388573521333 68.8388573521333 68.8388573521333 68.8388573521333 68.86962094854422 68.86962094854422 68.86962094854422 68.90038454495513 68.90038454495513 68.93114814136604 68.96191173777697 68.96191173777697 68.96191173777697 68.96191173777697 68.96191173777697 68.99267533418788 68.96191173777697 68.96191173777697 68.96191173777697 68.96191173777697 68.96191173777697 68.96191173777697 68.99267533418788 68.99267533418788 68.99267533418788 68.96191173777697 68.96191173777697 68.96191173777697 68.99267533418788 69.02343893059879 69.02343893059879 69.08496612342061 69.08496612342061 69.11572971983153 69.14649331624244 69.14649331624244 69.20802050906427 69.20802050906427 69.23878410547519 69.2695477018861 69.2695477018861 69.2695477018861 69.300311298297 69.33107489470792 69.33107489470792 69.36183849111885 69.36183849111885 69.39260208752975 69.39260208752975 69.42336568394066 69.45412928035158 69.51565647317341 69.51565647317341 69.54642006958431 69.57718366599524 69.57718366599524 69.60794726240616 69.60794726240616 69.66947445522797 69.66947445522797 69.70023805163889 69.73100164804981 69.76176524446072 69.76176524446072 69.79252884087163 69.82329243728255 69.82329243728255 69.85405603369347 69.85405603369347 69.85405603369347 69.85405603369347 69.88481963010437 69.88481963010437 69.91558322651528 69.9463468229262 69.91558322651528 69.9463468229262 69.9463468229262 69.9463468229262 69.9463468229262 69.9463468229262 69.9463468229262 69.9463468229262 69.9463468229262 69.9463468229262 69.9463468229262 69.9463468229262 69.9463468229262 69.91558322651528 69.91558322651528 69.91558322651528 69.91558322651528 69.91558322651528 69.91558322651528 69.88481963010437 69.88481963010437 69.88481963010437 69.85405603369347 69.85405603369347 69.82329243728255 69.79252884087163 69.79252884087163 69.79252884087163 69.82329243728255 69.79252884087163 69.82329243728255 69.82329243728255 69.85405603369347 69.85405603369347 69.88481963010437 69.88481963010437 69.88481963010437 69.91558322651528 69.91558322651528 69.91558322651528 69.9463468229262 69.97711041933712 69.97711041933712 69.97711041933712 69.97711041933712 69.9463468229262 69.9463468229262 69.79252884087163 69.66947445522797 69.42336568394066 69.23878410547519 68.96191173777697 68.68503937007873 68.46969419520234 68.03900384544954 67.66984068851858 67.33144112799853 66.96227797106756 66.65464200695843 66.22395165720565 65.76249771104193 65.39333455411096 64.90111701153634 64.31660867972897 63.824391137154365 63.27064640175792 62.68613806995056 62.16315693096502 61.76323017762314 61.39406702069218 60.87108588170665 60.40963193554294 59.886650796557404 59.39443325398278 59.05603369346274 58.563816150888115 58.19465299395715 57.79472624061527 57.36403589086248 56.964109137520595 56.656473173411456 56.225782823658676 55.91814685954953 55.48745650979674 55.05676616004395 54.7183665995239 54.25691265336019 53.918513092840136 53.45705914667643 52.99560520051273 52.65720563999267 52.07269730818531 51.58047976561069 51.42666178355613 50.903680644570585 50.380699505585056 49.85771836659953 49.1501556491485 48.780992492217536 48.411829335286576 47.82732100347921 47.36586705731551 46.78135872550815 46.350668375755355 45.79692364035891 45.24317890496246 44.84325215162058 44.32027101263505 43.79728987364952 43.45889031312946 42.966672770554844 42.59750961362388 42.13605566746017 41.5207837392419 41.18238417872185 40.90551181102362 40.32100347921626 40.16718549716169 39.7364951474089 39.24427760483428 38.75206006225966 38.29060611609595 37.921442959164985 37.398461820179456 36.87548068119392 36.506317524262954 35.98333638527742 35.61417322834646 35.09119208936092 34.69126533601904 34.41439296832082 34.01446621497894 33.89141182933528 33.73759384728072 33.49148507599341 33.33766709393884 33.18384911188427 32.906976744186046 32.78392235854239 32.568577183665994 32.3532320087896 32.168650430324114 32.014832448269544 31.830250869804065 31.676432887749495 31.55337850210584 31.430324116462188 31.307269730818533 31.184215345174877 31.12268815235305 31.12268815235305 31.091924555942136 31.030397363120308 30.96887017029848 30.907342977476652 30.784288591832997 30.691997802600255 30.538179820545686 30.445889031312948 30.322834645669293 30.23054385643655 30.13825306720381 30.045962277971068 29.953671488738326 29.8921442959165 29.83061710309467 29.83061710309467 29.799853506683757 29.799853506683757 29.769089910272843 29.73832631386193 29.707562717451015 29.707562717451015 29.646035524629188 29.615271928218274 29.58450833180736 29.522981138985532 29.522981138985532 29.49221754257462 29.461453946163708 29.430690349752794 29.430690349752794 29.430690349752794 29.39992675334188 29.39992675334188 29.39992675334188 29.39992675334188 29.39992675334188 29.39992675334188 29.39992675334188 29.39992675334188 29.369163156930966 29.369163156930966 29.338399560520052 29.338399560520052 29.338399560520052 29.338399560520052 29.338399560520052 29.338399560520052 29.338399560520052 29.30763596410914 29.30763596410914 29.30763596410914 29.30763596410914 29.30763596410914 29.30763596410914 29.30763596410914 29.30763596410914 29.276872367698225 29.276872367698225 29.24610877128731 29.24610877128731 29.24610877128731 29.24610877128731 29.215345174876397 29.215345174876397 29.24610877128731 29.215345174876397 29.24610877128731 29.24610877128731 29.215345174876397 29.215345174876397 29.215345174876397 29.215345174876397 29.215345174876397 29.215345174876397 29.215345174876397 29.215345174876397 29.215345174876397 29.215345174876397 29.215345174876397 29.215345174876397 29.215345174876397 29.215345174876397 29.215345174876397 29.184581578465483 29.184581578465483 29.215345174876397 29.215345174876397 29.215345174876397 29.215345174876397 29.215345174876397 29.215345174876397 29.215345174876397 29.215345174876397 29.184581578465483 29.215345174876397 29.215345174876397 29.184581578465483 29.215345174876397 29.215345174876397 29.215345174876397 29.184581578465483 29.184581578465483 29.184581578465483 29.184581578465483 29.215345174876397 29.215345174876397 29.184581578465483 29.184581578465483 29.184581578465483 29.184581578465483 29.184581578465483 29.184581578465483 29.184581578465483 29.184581578465483 29.184581578465483 29.184581578465483 29.184581578465483 29.184581578465483 29.184581578465483 29.184581578465483 29.184581578465483 29.184581578465483 29.184581578465483 29.184581578465483 29.184581578465483 29.184581578465483 29.184581578465483 29.184581578465483 29.184581578465483 29.184581578465483 29.184581578465483 29.184581578465483 29.184581578465483 29.184581578465483 29.184581578465483 29.184581578465483 29.184581578465483 29.184581578465483 29.184581578465483 29.184581578465483 29.184581578465483 29.184581578465483 29.184581578465483 29.184581578465483 29.184581578465483 29.184581578465483 29.184581578465483 29.184581578465483 29.184581578465483 29.184581578465483 29.184581578465483 29.184581578465483 29.184581578465483 29.184581578465483 29.184581578465483 29.184581578465483 29.184581578465483 29.184581578465483 29.184581578465483 29.184581578465483 29.184581578465483 29.184581578465483 29.184581578465483 29.184581578465483 29.184581578465483 29.184581578465483 29.184581578465483 29.184581578465483 29.184581578465483 29.184581578465483 29.184581578465483 29.184581578465483 29.184581578465483 29.184581578465483 29.184581578465483 29.184581578465483 29.184581578465483 29.184581578465483 29.184581578465483 29.184581578465483 29.184581578465483 29.184581578465483 29.184581578465483 29.184581578465483 29.184581578465483 29.184581578465483 29.184581578465483 29.184581578465483 29.184581578465483 29.184581578465483 29.184581578465483 29.184581578465483 29.184581578465483 29.184581578465483 29.184581578465483 29.184581578465483 29.184581578465483 29.184581578465483 29.184581578465483 29.184581578465483 29.184581578465483 29.184581578465483 29.184581578465483 29.184581578465483 29.184581578465483 29.184581578465483 29.184581578465483 29.184581578465483 29.184581578465483 29.184581578465483 29.184581578465483 29.184581578465483 29.184581578465483 29.184581578465483 29.184581578465483 29.184581578465483 29.184581578465483 29.184581578465483 29.184581578465483 29.184581578465483 29.184581578465483 29.184581578465483 29.184581578465483 29.184581578465483 29.184581578465483 29.184581578465483 29.184581578465483 29.184581578465483 29.184581578465483 29.184581578465483 29.184581578465483 29.184581578465483 29.184581578465483 29.184581578465483 29.184581578465483 29.184581578465483 29.184581578465483 29.184581578465483 29.184581578465483 29.184581578465483 29.184581578465483 29.184581578465483 29.184581578465483 29.184581578465483 29.184581578465483 29.184581578465483 29.184581578465483 29.184581578465483 29.184581578465483 29.184581578465483 29.184581578465483 29.184581578465483 29.184581578465483 29.184581578465483 29.184581578465483 29.184581578465483 29.184581578465483 29.184581578465483 29.184581578465483 29.184581578465483 29.184581578465483 29.184581578465483 29.184581578465483 29.184581578465483 29.184581578465483 29.184581578465483 29.184581578465483 29.184581578465483 29.184581578465483 29.184581578465483 29.184581578465483 29.184581578465483 29.184581578465483 29.184581578465483 29.184581578465483 29.184581578465483 29.184581578465483 29.184581578465483 29.184581578465483 29.184581578465483 29.184581578465483 29.184581578465483 29.184581578465483 29.184581578465483 29.184581578465483 29.184581578465483 29.184581578465483 29.184581578465483 29.184581578465483 29.184581578465483 29.184581578465483 29.184581578465483 29.184581578465483 29.184581578465483 29.184581578465483 29.184581578465483 29.184581578465483 29.184581578465483 29.184581578465483 29.184581578465483 29.184581578465483 29.184581578465483 29.184581578465483 29.184581578465483 29.184581578465483 29.184581578465483 29.184581578465483 29.184581578465483 29.184581578465483 29.184581578465483 29.184581578465483 29.184581578465483 29.184581578465483 29.184581578465483 29.184581578465483 29.184581578465483 29.184581578465483 29.184581578465483 29.184581578465483 29.184581578465483 29.184581578465483 29.184581578465483 29.184581578465483 29.184581578465483 29.184581578465483 29.184581578465483 29.184581578465483 29.184581578465483 29.184581578465483 29.184581578465483 29.184581578465483 29.184581578465483 29.184581578465483 29.184581578465483 29.184581578465483 29.184581578465483 29.184581578465483 29.184581578465483 29.184581578465483 29.184581578465483 29.184581578465483 29.215345174876397 29.184581578465483 29.215345174876397 29.215345174876397 29.184581578465483 29.215345174876397 29.215345174876397 29.215345174876397 29.215345174876397 29.215345174876397 29.215345174876397 29.215345174876397 29.24610877128731 29.24610877128731 29.24610877128731 29.24610877128731 29.24610877128731 29.24610877128731 29.276872367698225 29.276872367698225 29.276872367698225 29.276872367698225 29.30763596410914 29.30763596410914 29.338399560520052 29.369163156930966 29.369163156930966 29.39992675334188 29.430690349752794 29.461453946163708 29.522981138985532 29.615271928218274 29.707562717451015 29.861380699505585 30.045962277971068 30.13825306720381 30.199780260025637 30.261307452847465 30.38436183849112 30.445889031312948 30.538179820545686 30.66123420618934 30.81505218824391 30.96887017029848 31.12268815235305 31.245742537996705 31.338033327229446 31.522614905694926 31.676432887749495 31.95330525544772 32.23017762314594 32.568577183665994 32.93774034059696 33.18384911188427 33.49148507599341 33.7068302508698 33.95293902215711 34.383629371909905 35.06042849295001 35.46035524629189 36.044863578099246 36.444790331441126 37.060062259659404 37.67533418787768 38.10602453763047 38.721296465848745 39.30580479765611 39.7364951474089 40.35176707562717 40.81322102179088 41.705365317707376 42.197582860282 42.62827321003479 43.305072331074896 43.95110785570408 44.41256180186779 45.089360922907886 45.79692364035891 46.442959164988096 46.93517670756272 47.39663065372642 48.04266617835561 48.53488372093023 49.48855520966856 50.134590734297745 50.62680827687237 51.30360739791247 51.98040651895257 52.47262406152719 53.18018677897821 53.76469511078557 54.379967039003844 55.087529756454856 55.61051089544039 56.348837209302324 57.36403589086248 57.97930781908075 58.59457974729903 59.17908807910639 59.76359641091375 60.56344991759751 61.17872184581578 62.28621131660868 63.08606482329243 63.36293719099066 64.19355429408533 64.96264420435817 65.73173411463102 66.43929683208202 67.08533235671122 67.57754989928584 68.22358542391504 68.65427577366782 69.20802050906427 69.70023805163889 70.13092840139169 70.6231459439663 70.96154550448635 71.45376304706097 71.82292620399194 72.09979857169017 72.4074345357993 72.65354330708661 72.96117927119576 73.36110602453763 73.60721479582494 73.88408716352316 74.1917231276323 74.31477751327596 74.59164988097417 74.8685222486724 75.14539461637062 75.42226698406884 75.63761215894525 75.88372093023256 76.25288408716352 76.49899285845083 76.8989196117927 77.17579197949092 77.5449551364219 77.94488188976378 78.19099066105107 78.65244460721479 78.77549899285845 79.02160776414576 79.26771653543307 79.42153451748763 79.5753524995422 79.69840688518586 79.75993407800769 79.75993407800769 79.7906976744186 79.7906976744186 79.7906976744186 79.75993407800769 79.75993407800769 79.75993407800769 79.72917048159677 79.60611609595313 79.42153451748763 79.23695293902216 79.1138985533785 78.96008057132393 78.74473539644754 78.65244460721479 78.56015381798206 78.40633583592748 78.34480864310567 78.28328145028382 78.22175425746201 78.22175425746201 78.22175425746201 78.19099066105107 78.19099066105107 78.19099066105107 78.19099066105107 78.19099066105107 78.19099066105107 78.19099066105107 78.16022706464017 78.09869987181834 78.03717267899651 78.0064090825856 77.97564548617468 77.94488188976378 77.91411829335286 77.91411829335286 77.88335469694195 77.82182750412012 77.82182750412012 77.7910639077092 77.7910639077092 77.7603003112983 77.72953671488739 77.69877311847647 77.69877311847647 77.69877311847647 77.66800952206555 77.66800952206555 77.66800952206555 77.66800952206555 77.63724592565464 77.66800952206555 77.66800952206555 77.66800952206555 77.66800952206555 77.66800952206555 77.66800952206555 77.66800952206555 77.66800952206555 77.66800952206555 77.66800952206555 77.66800952206555 77.66800952206555 77.63724592565464 77.63724592565464 77.66800952206555 77.63724592565464 77.63724592565464 77.63724592565464 77.60648232924373 77.60648232924373 77.57571873283281 77.57571873283281 77.5449551364219 77.51419154001098 77.51419154001098 77.48342794360008 77.48342794360008 77.45266434718914 77.45266434718914 77.45266434718914 77.42190075077824 77.42190075077824 77.42190075077824 77.39113715436733 77.36037355795642 77.36037355795642 77.36037355795642 77.36037355795642 77.36037355795642 77.36037355795642 77.36037355795642 77.36037355795642 77.36037355795642 77.36037355795642 77.36037355795642 77.36037355795642 77.36037355795642 77.36037355795642 77.36037355795642 77.36037355795642 77.36037355795642 77.32960996154551 77.32960996154551 77.36037355795642 77.36037355795642 77.36037355795642 77.36037355795642 77.36037355795642 77.32960996154551 77.32960996154551 77.29884636513458 77.29884636513458 77.26808276872367 77.26808276872367 77.26808276872367 77.26808276872367 77.26808276872367 77.23731917231275 77.20655557590185 77.17579197949092 77.17579197949092 77.17579197949092 77.17579197949092 77.14502838308002 77.14502838308002 77.11426478666911 77.08350119025819 77.08350119025819 77.05273759384727 77.05273759384727 77.02197399743636 77.02197399743636 76.99121040102546 76.96044680461453 76.8989196117927 76.8681560153818 76.83739241897088 76.83739241897088 76.80662882255997 76.80662882255997 76.77586522614905 76.74510162973814 76.74510162973814 76.74510162973814 76.74510162973814 76.74510162973814 76.74510162973814 76.74510162973814 76.77586522614905 76.77586522614905 76.77586522614905 76.80662882255997 76.80662882255997 76.80662882255997 76.80662882255997 76.80662882255997 76.80662882255997 76.80662882255997 76.80662882255997 76.80662882255997 76.80662882255997 76.80662882255997 76.77586522614905 76.80662882255997 76.77586522614905 76.80662882255997 76.77586522614905 76.77586522614905 76.77586522614905 76.74510162973814 76.71433803332724 76.68357443691632 76.62204724409449 76.59128364768358 76.52975645486174 76.46822926203993 76.40670206921808 76.34517487639626 76.25288408716352 76.1913568943417 76.16059329793077 76.09906610510895 76.03753891228712 75.9760117194653 75.94524812305438 75.91448452664346 75.88372093023256 75.85295733382165 75.82219373741073 75.79143014099981 75.7606665445889 75.69913935176706 75.66837575535615 75.63761215894525 75.57608496612343 75.5453213697125 75.51455777330159 75.45303058047976 75.39150338765793 75.23768540560337 75.11463101995972 75.02234023072697 74.8685222486724 74.74546786302875 74.68394067020691 74.56088628456325 74.37630470609778 74.1917231276323 74.00714154916682 73.85332356711226 73.66874198864676 73.42263321735945 73.29957883171579 73.17652444607214 73.02270646401757 72.83812488555209 72.65354330708661 72.53048892144295 72.28438015015564 72.09979857169017 71.9459805896356 71.85368980040286 71.7306354147592 71.57681743270463 71.36147225782824 71.26918146859549 71.08459989013001 70.86925471525362 70.71543673319906 70.53085515473356 70.34627357626809 69.9463468229262 69.66947445522797 69.45412928035158 69.20802050906427 69.02343893059879 68.68503937007873 68.53122138802416 68.31587621314777 68.06976744186046 67.82365867057315 67.63907709210767 67.45449551364219 67.20838674235489 66.99304156747849 66.77769639260208 66.5931148141366 66.3470060428493 66.07013367515107 65.73173411463102 65.42409815052187 65.17798937923456 64.80882622230361 64.5627174510163 64.16279069767441 63.76286394433254 63.33217359457974 63.024537630470604 62.62461087712873 62.347738509430506 61.91704815967771 61.547885002746746 61.30177623145944 60.932613074528476 60.594213514008416 60.34810474272111 60.00970518220106 59.79436000732467 59.332906061160955 59.05603369346274 58.779161325764505 58.47152536165537 57.94854422266984 57.6409082585607 57.14869071598608 56.81029115546603 56.28731001648049 55.88738326313862 55.36440212415309 54.77989379234572 54.226149056949275 53.76469511078557 53.27247756821095 52.903314411279986 52.38033327229445 51.91887932613075 51.54971616919978 51.08826222303607 50.62680827687237 50.19611792711957 49.76542757736678 49.45779161325764 49.18091924555942 48.719465299395715 48.411829335286576 48.04266617835561 47.519685039370074 47.08899468961728 46.62754074345358 46.25837758652261 45.76616004394799 45.24317890496246 44.874015748031496 44.35103460904596 43.981871452114994 43.42812671671855 42.8743819813221 42.47445522798022 41.73612891411829 41.39772935359824 41.02856619666728 40.597875846914484 40.22871268998352 39.70573155099798 39.09045962277971 38.78282365867057 38.29060611609595 37.82915216993224 37.459989013001284 37.152353048892145 36.62937190990661 36.1679179637429 35.67570042116829 35.337300860648234 34.96813770371727 34.66050173960813 34.44515656473173 34.137520600622594 33.79912104010255 33.7068302508698 33.55301226881524 33.42995788317158 33.27613990111701 32.99926753341879 32.87621314777513 32.72239516572056 32.59934078007691 32.44552279802234 32.29170481596777 32.107123237502286 31.922541659036806 31.768723676982237 31.70719648416041 31.55337850210584 31.491851309284012 31.430324116462188 31.36879692364036 31.338033327229446 31.27650613440762 31.21497894158579 31.153451748763963 31.091924555942136 30.999633766709394 30.907342977476652 30.784288591832997 30.691997802600255 30.538179820545686 30.47665262772386 30.415125434902034 30.415125434902034 30.353598242080206 30.29207104925838 30.13825306720381 30.07672587438198 29.98443508514924 29.922907892327412 29.861380699505585 29.799853506683757 29.769089910272843 29.707562717451015 29.646035524629188 29.58450833180736 29.615271928218274 29.58450833180736 29.553744735396446 29.553744735396446 29.553744735396446 29.553744735396446 29.553744735396446 29.553744735396446 29.553744735396446 29.553744735396446 29.553744735396446 29.553744735396446 29.522981138985532 29.522981138985532 29.49221754257462 29.49221754257462 29.49221754257462 29.49221754257462 29.49221754257462 29.49221754257462 29.49221754257462 29.49221754257462 29.49221754257462 29.49221754257462 29.49221754257462 29.49221754257462 29.49221754257462 29.49221754257462 29.49221754257462 29.49221754257462 29.49221754257462 29.49221754257462 29.461453946163708 29.461453946163708 29.49221754257462 29.461453946163708 29.461453946163708 29.461453946163708 29.461453946163708 29.461453946163708 29.461453946163708 29.461453946163708 29.461453946163708 29.461453946163708 29.461453946163708 29.461453946163708 29.461453946163708 29.461453946163708 29.461453946163708 29.461453946163708 29.461453946163708 29.461453946163708 29.461453946163708 29.461453946163708 29.461453946163708 29.461453946163708 29.461453946163708 29.461453946163708 29.461453946163708 29.461453946163708 29.461453946163708 29.461453946163708 29.461453946163708 29.461453946163708 29.430690349752794 29.461453946163708 29.461453946163708 29.461453946163708 29.461453946163708 29.461453946163708 29.461453946163708 29.461453946163708 29.461453946163708 29.430690349752794 29.461453946163708 29.461453946163708 29.461453946163708 29.461453946163708 29.461453946163708 29.461453946163708 29.461453946163708 29.461453946163708 29.461453946163708 29.461453946163708 29.461453946163708 29.461453946163708 29.461453946163708 29.461453946163708 29.461453946163708 29.461453946163708 29.461453946163708 29.461453946163708 29.461453946163708 29.461453946163708 29.430690349752794 29.461453946163708 29.461453946163708 29.461453946163708 29.461453946163708 29.461453946163708 29.461453946163708 29.461453946163708 29.461453946163708 29.461453946163708 29.461453946163708 29.430690349752794 29.461453946163708 29.461453946163708 29.461453946163708 29.461453946163708 29.461453946163708 29.461453946163708 29.430690349752794 29.461453946163708 29.430690349752794 29.461453946163708 29.461453946163708 29.461453946163708 29.461453946163708 29.461453946163708 29.430690349752794 29.461453946163708 29.461453946163708 29.461453946163708 29.430690349752794 29.461453946163708 29.461453946163708 29.430690349752794 29.430690349752794 29.461453946163708 29.430690349752794 29.430690349752794 29.461453946163708 29.430690349752794 29.430690349752794 29.430690349752794 29.430690349752794 29.430690349752794 29.430690349752794 29.461453946163708 29.461453946163708 29.430690349752794 29.430690349752794 29.430690349752794 29.430690349752794 29.430690349752794 29.430690349752794 29.430690349752794 29.430690349752794 29.430690349752794 29.430690349752794 29.430690349752794 29.430690349752794 29.430690349752794 29.430690349752794 29.430690349752794 29.430690349752794 29.430690349752794 29.430690349752794 29.430690349752794 29.430690349752794 29.430690349752794 29.430690349752794 29.430690349752794 29.430690349752794 29.430690349752794 29.430690349752794 29.430690349752794 29.430690349752794 29.430690349752794 29.430690349752794 29.430690349752794 29.430690349752794 29.430690349752794 29.430690349752794 29.430690349752794 29.430690349752794 29.430690349752794 29.430690349752794 29.430690349752794 29.430690349752794 29.430690349752794 29.430690349752794 29.430690349752794 29.430690349752794 29.430690349752794 29.430690349752794 29.430690349752794 29.430690349752794 29.430690349752794 29.430690349752794 29.430690349752794 29.430690349752794 29.430690349752794 29.430690349752794 29.430690349752794 29.430690349752794 29.430690349752794 29.430690349752794 29.430690349752794 29.430690349752794 29.430690349752794 29.430690349752794 29.430690349752794 29.430690349752794 29.430690349752794 29.430690349752794 29.430690349752794 29.430690349752794 29.430690349752794 29.430690349752794 29.430690349752794 29.430690349752794 29.430690349752794 29.430690349752794 29.430690349752794 29.430690349752794 29.430690349752794 29.430690349752794 29.430690349752794 29.430690349752794 29.430690349752794 29.430690349752794 29.430690349752794 29.430690349752794 29.430690349752794 29.39992675334188 29.430690349752794 29.430690349752794 29.430690349752794 29.430690349752794 29.430690349752794 29.430690349752794 29.430690349752794 29.430690349752794 29.430690349752794 29.430690349752794 29.430690349752794 29.430690349752794 29.430690349752794 29.430690349752794 29.430690349752794 29.430690349752794 29.430690349752794 29.430690349752794 29.430690349752794 29.430690349752794 29.39992675334188 29.430690349752794 29.430690349752794 29.39992675334188 29.39992675334188 29.39992675334188 29.430690349752794 29.430690349752794 29.430690349752794 29.430690349752794 29.430690349752794 29.430690349752794 29.430690349752794 29.430690349752794 29.430690349752794 29.430690349752794 29.430690349752794 29.430690349752794 29.430690349752794 29.430690349752794 29.39992675334188 29.430690349752794 29.430690349752794 29.430690349752794 29.430690349752794 29.430690349752794 29.430690349752794 29.430690349752794 29.430690349752794 29.39992675334188 29.430690349752794 29.430690349752794 29.39992675334188 29.39992675334188 29.39992675334188 29.39992675334188 29.39992675334188 29.39992675334188 29.430690349752794 29.430690349752794 29.430690349752794 29.39992675334188 29.430690349752794 29.430690349752794 29.430690349752794 29.430690349752794 29.39992675334188 29.39992675334188 29.39992675334188 29.430690349752794 29.430690349752794 29.39992675334188 29.430690349752794 29.430690349752794 29.39992675334188 29.39992675334188 29.39992675334188 29.430690349752794 29.430690349752794 29.430690349752794 29.39992675334188 29.430690349752794 29.430690349752794 29.430690349752794 29.39992675334188 29.430690349752794 29.430690349752794 29.430690349752794 29.430690349752794 29.39992675334188 29.39992675334188 29.430690349752794 29.39992675334188 29.39992675334188 29.39992675334188 29.430690349752794 29.430690349752794 29.430690349752794 29.39992675334188 29.430690349752794 29.39992675334188 29.430690349752794 29.430690349752794 29.430690349752794 29.430690349752794 29.39992675334188 29.39992675334188 29.39992675334188 29.39992675334188 29.430690349752794 29.430690349752794 29.39992675334188 29.39992675334188 29.39992675334188 29.39992675334188 29.430690349752794 29.430690349752794 29.430690349752794 29.39992675334188 29.430690349752794 29.430690349752794 29.430690349752794 29.430690349752794 29.430690349752794 29.430690349752794 29.430690349752794 29.430690349752794 29.430690349752794 29.430690349752794 29.461453946163708 29.461453946163708 29.461453946163708 29.461453946163708 29.461453946163708 29.461453946163708 29.461453946163708 29.49221754257462 29.49221754257462 29.49221754257462 29.49221754257462 29.522981138985532 29.553744735396446 29.553744735396446 29.553744735396446 29.58450833180736 29.615271928218274 29.646035524629188 29.707562717451015 29.73832631386193 29.83061710309467 29.861380699505585 29.922907892327412 29.953671488738326 29.98443508514924 30.107489470792896 30.13825306720381 30.199780260025637 30.261307452847465 30.29207104925838 30.353598242080206 30.415125434902034 30.538179820545686 30.599707013367514 30.753524995422083 30.845815784654825 30.96887017029848 31.153451748763963 31.27650613440762 31.36879692364036 31.491851309284012 31.614905694927668 31.891778062625892 32.07635964109137 32.260941219556855 32.507049990844166 32.69163156930965 33.214612708295185 33.39919428676067 33.64530305804798 34.04522981138985 34.32210217908808 34.783556125251785 35.21424647500458 35.706464017579194 36.29097234938656 36.72166269913935 37.36769822376854 37.9522065555759 38.35213330891778 38.93664164072514 39.49038637612159 39.890313129463465 40.50558505768174 40.936275407434536 41.67460172129647 42.197582860282 42.62827321003479 43.058963559787585 43.5511811023622 43.73576268082768 44.381798205456874 44.81248855520967 45.21241530855154 45.76616004394799 46.13532320087896 46.71983153268632 47.304339864493684 47.765793810657385 48.411829335286576 48.873283281450284 49.55008240249039 50.19611792711957 50.688335469694195 51.54971616919978 52.011170115363484 52.47262406152719 53.21095037538912 53.73393151437466 54.90294817798937 55.70280168467313 56.37960080571324 57.117927119575164 57.94854422266984 58.25618018677898 59.24061527192821 59.79436000732467 60.47115912836477 61.17872184581578 61.6709393883904 62.37850210584142 63.20911920893609 63.70133675151071 64.1012635048526 64.53195385460538 64.93188060794725 65.45486174693279 65.79326130745284 66.47006042849296 66.96227797106756 67.33144112799853 67.63907709210767 68.00824024903864 68.46969419520234 69.11572971983153 69.54642006958431 69.97711041933712 70.31550997985717 70.80772752243178 71.14612708295184 71.57681743270463 72.19208936092289 72.71507049990844 73.05347006042848 73.5149240065922 73.88408716352316 74.46859549533052 74.8377586522615 75.11463101995972 75.45303058047976 75.85295733382165 76.09906610510895 76.49899285845083 76.8989196117927 77.26808276872367 77.48342794360008 77.69877311847647 78.09869987181834 78.28328145028382 78.52939022157113 78.77549899285845 78.96008057132393 79.14466214978941 79.26771653543307 79.45229811389855 79.60611609595313 79.66764328877494 79.72917048159677 79.7906976744186 79.82146127082952 79.88298846365134 79.91375206006225 79.94451565647316 79.97527925288409 79.97527925288409 79.97527925288409 79.97527925288409 79.97527925288409 79.97527925288409 79.97527925288409 79.97527925288409 79.97527925288409 79.94451565647316 79.94451565647316 79.97527925288409 79.94451565647316 79.97527925288409 79.94451565647316 79.94451565647316 79.91375206006225 79.91375206006225 79.91375206006225 79.91375206006225 79.91375206006225 79.91375206006225 79.88298846365134 79.88298846365134 79.82146127082952 79.7906976744186 79.75993407800769 79.66764328877494 79.60611609595313 79.54458890313128 79.45229811389855 79.39077092107672 79.29848013184399 79.26771653543307 79.26771653543307 79.23695293902216 79.23695293902216 79.26771653543307 79.23695293902216 79.20618934261125 79.20618934261125 79.17542574620032 79.14466214978941 79.0831349569676 79.05237136055666 78.99084416773485 78.96008057132393 78.92931697491301 78.8985533785021 78.83702618568027 78.77549899285845 78.71397180003662 78.68320820362571 78.62168101080388 78.59091741439296 78.56015381798206 78.52939022157113 78.49862662516023 78.46786302874932 78.46786302874932 78.46786302874932 78.46786302874932 78.46786302874932 78.46786302874932 78.46786302874932 78.49862662516023 78.46786302874932 78.46786302874932 78.49862662516023 78.49862662516023 78.49862662516023 78.52939022157113 78.52939022157113 78.56015381798206 78.56015381798206 78.56015381798206 78.59091741439296 78.59091741439296 78.62168101080388 78.62168101080388 78.65244460721479 78.65244460721479 78.68320820362571 78.68320820362571 78.68320820362571 78.71397180003662 78.71397180003662 78.71397180003662 78.71397180003662 78.71397180003662 78.71397180003662 78.74473539644754 78.74473539644754 78.74473539644754 78.74473539644754 78.74473539644754 78.74473539644754 78.74473539644754 78.74473539644754 78.71397180003662 78.74473539644754 78.71397180003662 78.71397180003662 78.71397180003662 78.65244460721479 78.56015381798206 78.49862662516023 78.4370994323384 78.40633583592748 78.37557223951657 78.37557223951657 78.37557223951657 78.37557223951657 78.37557223951657 78.34480864310567 78.34480864310567 78.37557223951657 78.37557223951657 78.37557223951657 78.37557223951657 78.34480864310567 78.37557223951657 78.37557223951657 78.37557223951657 78.37557223951657 78.37557223951657 78.37557223951657 78.37557223951657 78.37557223951657 78.37557223951657 78.37557223951657 78.37557223951657 78.37557223951657 78.37557223951657 78.37557223951657 78.37557223951657 78.37557223951657 78.37557223951657 78.37557223951657 78.37557223951657 78.37557223951657 78.37557223951657 78.34480864310567 78.34480864310567 78.34480864310567 78.34480864310567 78.34480864310567 78.31404504669473 78.31404504669473 78.31404504669473 78.31404504669473 78.31404504669473 78.31404504669473 78.31404504669473 78.28328145028382 78.28328145028382 78.31404504669473 78.28328145028382 78.31404504669473 78.28328145028382 78.28328145028382 78.28328145028382 78.28328145028382 78.28328145028382 78.28328145028382 78.28328145028382 78.31404504669473 78.31404504669473 78.28328145028382 78.28328145028382 78.28328145028382 78.28328145028382 78.22175425746201 78.19099066105107 78.16022706464017 78.12946346822926 78.16022706464017 78.12946346822926 78.12946346822926 78.12946346822926 78.12946346822926 78.12946346822926 78.12946346822926 78.09869987181834 78.09869987181834 78.09869987181834 78.09869987181834 78.09869987181834 78.09869987181834 78.09869987181834 78.06793627540742 78.03717267899651 78.03717267899651 78.0064090825856 78.0064090825856 78.0064090825856 78.0064090825856 78.0064090825856 78.0064090825856 78.0064090825856 78.0064090825856 78.0064090825856 78.03717267899651 78.03717267899651 78.03717267899651 78.06793627540742 78.06793627540742 78.09869987181834 78.12946346822926 78.12946346822926 78.16022706464017 78.12946346822926 78.12946346822926 78.12946346822926 78.12946346822926 78.12946346822926 78.12946346822926 78.12946346822926 78.12946346822926 78.12946346822926 78.12946346822926 78.12946346822926 78.12946346822926 78.12946346822926 78.12946346822926 78.12946346822926 78.12946346822926 78.12946346822926 78.12946346822926 78.12946346822926 78.12946346822926 78.12946346822926 78.12946346822926 78.12946346822926 78.12946346822926 78.12946346822926 78.12946346822926 78.12946346822926 78.12946346822926 78.12946346822926 78.12946346822926 78.12946346822926 78.12946346822926 78.12946346822926 78.12946346822926 78.12946346822926 78.12946346822926 78.12946346822926 78.12946346822926 78.12946346822926 78.12946346822926 78.12946346822926 78.12946346822926 78.12946346822926 78.12946346822926 78.12946346822926 78.12946346822926 78.12946346822926 78.09869987181834 78.06793627540742 78.06793627540742 77.97564548617468 77.88335469694195 77.7910639077092 77.69877311847647 77.5449551364219 77.39113715436733 77.29884636513458 77.14502838308002 77.02197399743636 76.8681560153818 76.68357443691632 76.52975645486174 76.2221204907526 76.00677531587621 75.88372093023256 75.60684856253434 75.42226698406884 75.0838674235488 74.59164988097417 74.31477751327596 73.91485075993407 73.45339681377037 73.14576084966123 72.74583409631936 72.16132576451199 71.60758102911555 71.02307269730818 70.6231459439663 70.03863761215894 69.42336568394066 68.96191173777697 68.3466398095587 67.91594945980589 67.2699139351767 66.65464200695843 66.22395165720565 65.57791613257645 64.77806262589269 64.5627174510163 64.03973631203075 63.63980955868888 63.08606482329243 62.53232008789599 62.13239333455411 61.42483061710309 60.932613074528476 60.62497711041934 60.1019959714338 59.76359641091375 59.332906061160955 58.90221571140816 58.65610694012086 58.19465299395715 57.67167185497162 57.302508698040654 56.718000366233284 56.31807361289141 55.76432887749496 55.27211133492034 54.90294817798937 54.34920344259293 53.826222303607395 53.45705914667643 52.9340780076909 52.59567844717085 51.91887932613075 51.488188976377955 51.149789415857896 50.74986266251602 50.380699505585056 50.01153634865409 49.55008240249039 49.24244643838125 48.81175608862846 48.38106573887566 48.073429774766524 47.67350302142465 47.39663065372642 46.965940303973625 46.53524995422084 46.0122688152353 45.5508148690716 45.15088811572972 44.75096136238784 43.981871452114994 43.581944698773114 43.12049075260941 42.505218824391136 42.04376487822743 41.15162058231093 40.536348654092656 40.07489470792895 39.428859183299764 38.8443508514924 38.29060611609595 37.64457059146676 37.152353048892145 36.53708112067387 35.89104559604468 35.491118842702804 34.96813770371727 34.69126533601904 34.229811389855335 33.983702618568024 33.79912104010255 33.522248672404324 33.30690349752793 33.18384911188427 32.93774034059696 32.84544955136422 32.660867972898735 32.568577183665994 32.47628639443325 32.168650430324114 32.07635964109137 31.984068851858634 31.86101446621498 31.737960080571323 31.64566929133858 31.522614905694926 31.36879692364036 31.21497894158579 31.091924555942136 30.96887017029848 30.87657938106574 30.81505218824391 30.691997802600255 30.538179820545686 30.445889031312948 30.29207104925838 30.199780260025637 30.13825306720381 30.07672587438198 30.07672587438198 30.045962277971068 30.045962277971068 30.015198681560154 30.015198681560154 30.015198681560154 30.015198681560154 29.98443508514924 29.953671488738326 29.922907892327412 29.8921442959165 29.8921442959165 29.83061710309467 29.799853506683757 29.73832631386193 29.707562717451015 29.646035524629188 