25.0 25.021973997436366 25.021973997436366 25.021973997436366 25.021973997436366 25.021973997436366 25.021973997436366 25.021973997436366 25.021973997436366 25.021973997436366 25.021973997436366 25.021973997436366 25.021973997436366 25.021973997436366 25.0 25.021973997436366 25.021973997436366 25.021973997436366 25.021973997436366 25.021973997436366 25.0 25.021973997436366 25.021973997436366 25.021973997436366 25.021973997436366 25.021973997436366 25.0 25.021973997436366 25.021973997436366 25.021973997436366 25.021973997436366 25.021973997436366 25.021973997436366 25.021973997436366 25.0 25.021973997436366 25.021973997436366 25.021973997436366 25.021973997436366 25.021973997436366 25.021973997436366 25.021973997436366 25.021973997436366 25.021973997436366 25.021973997436366 25.021973997436366 25.021973997436366 25.021973997436366 25.021973997436366 25.0 25.0 25.021973997436366 25.021973997436366 25.0 25.021973997436366 25.021973997436366 25.021973997436366 25.021973997436366 25.021973997436366 25.021973997436366 25.021973997436366 25.021973997436366 25.021973997436366 25.021973997436366 25.021973997436366 25.021973997436366 25.021973997436366 25.021973997436366 25.021973997436366 25.021973997436366 25.021973997436366 25.021973997436366 25.0 25.021973997436366 25.021973997436366 25.021973997436366 25.021973997436366 25.021973997436366 25.021973997436366 25.021973997436366 25.021973997436366 25.021973997436366 25.021973997436366 25.021973997436366 25.021973997436366 25.0 25.021973997436366 25.021973997436366 25.021973997436366 25.021973997436366 25.021973997436366 25.021973997436366 25.021973997436366 25.021973997436366 25.021973997436366 25.021973997436366 25.021973997436366 25.021973997436366 25.0 25.021973997436366 25.021973997436366 25.021973997436366 25.021973997436366 25.021973997436366 25.0 25.021973997436366 25.021973997436366 25.021973997436366 25.021973997436366 25.021973997436366 25.021973997436366 25.021973997436366 25.0 25.021973997436366 25.021973997436366 25.021973997436366 25.021973997436366 25.021973997436366 25.021973997436366 25.021973997436366 25.021973997436366 25.0 25.021973997436366 25.021973997436366 25.0 25.021973997436366 25.021973997436366 25.021973997436366 25.0 25.021973997436366 25.021973997436366 25.021973997436366 25.021973997436366 25.021973997436366 25.021973997436366 25.021973997436366 25.021973997436366 25.021973997436366 25.021973997436366 25.021973997436366 25.021973997436366 25.021973997436366 25.021973997436366 25.0 25.021973997436366 25.021973997436366 25.021973997436366 25.0 25.021973997436366 25.021973997436366 25.021973997436366 25.021973997436366 25.021973997436366 25.021973997436366 25.021973997436366 25.021973997436366 25.021973997436366 25.021973997436366 25.021973997436366 25.021973997436366 25.021973997436366 25.021973997436366 25.021973997436366 25.021973997436366 25.021973997436366 25.021973997436366 25.021973997436366 25.021973997436366 25.021973997436366 25.021973997436366 25.021973997436366 25.0 25.021973997436366 25.021973997436366 25.021973997436366 25.021973997436366 25.021973997436366 25.0 25.021973997436366 25.021973997436366 25.021973997436366 25.021973997436366 25.021973997436366 25.021973997436366 25.021973997436366 25.021973997436366 25.021973997436366 25.021973997436366 25.021973997436366 25.0 25.021973997436366 25.021973997436366 25.021973997436366 25.021973997436366 25.021973997436366 25.021973997436366 25.0 25.021973997436366 25.021973997436366 25.021973997436366 25.021973997436366 25.021973997436366 25.021973997436366 25.021973997436366 25.021973997436366 25.021973997436366 25.021973997436366 25.021973997436366 25.021973997436366 25.021973997436366 25.021973997436366 25.021973997436366 25.021973997436366 25.021973997436366 25.021973997436366 25.021973997436366 25.021973997436366 25.021973997436366 25.021973997436366 25.021973997436366 25.0 25.021973997436366 25.021973997436366 25.021973997436366 25.021973997436366 25.021973997436366 25.021973997436366 25.021973997436366 25.021973997436366 25.021973997436366 25.021973997436366 25.021973997436366 25.021973997436366 25.021973997436366 25.0 25.021973997436366 25.021973997436366 25.021973997436366 25.021973997436366 25.021973997436366 25.021973997436366 25.021973997436366 25.021973997436366 25.021973997436366 25.021973997436366 25.0 25.021973997436366 25.021973997436366 25.021973997436366 25.021973997436366 25.021973997436366 25.021973997436366 25.021973997436366 25.021973997436366 25.021973997436366 25.021973997436366 25.021973997436366 25.021973997436366 25.021973997436366 25.021973997436366 25.021973997436366 25.021973997436366 25.021973997436366 25.0 25.021973997436366 25.021973997436366 25.021973997436366 25.021973997436366 25.021973997436366 25.021973997436366 25.021973997436366 25.021973997436366 25.021973997436366 25.021973997436366 25.021973997436366 25.0 25.021973997436366 25.0 25.0 25.0 25.0 25.0 25.0 25.0 25.0 25.0 25.0 25.021973997436366 25.0 25.0 25.0 25.0 25.0 25.0 25.0 25.0 25.0 25.0 25.0 25.0 25.0 25.0 25.0 25.0 25.0 25.0 25.0 25.0 25.0 25.0 25.0 25.0 25.0 25.0 25.0 24.978026002563634 24.978026002563634 24.978026002563634 24.978026002563634 24.978026002563634 24.978026002563634 24.978026002563634 24.978026002563634 24.978026002563634 24.978026002563634 24.978026002563634 24.978026002563634 24.978026002563634 24.978026002563634 24.978026002563634 24.978026002563634 24.978026002563634 24.978026002563634 24.978026002563634 24.978026002563634 24.978026002563634 24.978026002563634 24.978026002563634 24.978026002563634 24.978026002563634 24.978026002563634 24.978026002563634 24.978026002563634 24.978026002563634 24.978026002563634 24.978026002563634 24.978026002563634 24.978026002563634 24.978026002563634 24.978026002563634 24.978026002563634 24.978026002563634 24.978026002563634 24.978026002563634 24.978026002563634 24.978026002563634 24.978026002563634 24.978026002563634 24.978026002563634 25.0 24.978026002563634 24.978026002563634 24.978026002563634 24.978026002563634 24.978026002563634 24.978026002563634 24.978026002563634 24.978026002563634 24.978026002563634 24.978026002563634 24.978026002563634 24.978026002563634 24.978026002563634 24.978026002563634 24.978026002563634 24.978026002563634 24.978026002563634 24.978026002563634 24.978026002563634 24.978026002563634 25.0 24.978026002563634 24.978026002563634 24.978026002563634 24.978026002563634 24.978026002563634 24.978026002563634 24.978026002563634 24.978026002563634 24.978026002563634 24.978026002563634 24.978026002563634 24.978026002563634 24.978026002563634 24.978026002563634 25.0 24.978026002563634 24.978026002563634 24.978026002563634 24.978026002563634 24.978026002563634 24.978026002563634 24.978026002563634 25.0 24.978026002563634 24.978026002563634 24.978026002563634 24.978026002563634 24.978026002563634 24.978026002563634 24.978026002563634 24.978026002563634 24.978026002563634 24.978026002563634 24.978026002563634 24.978026002563634 24.978026002563634 24.978026002563634 24.978026002563634 24.978026002563634 24.978026002563634 24.978026002563634 24.978026002563634 24.978026002563634 24.978026002563634 24.978026002563634 24.978026002563634 24.978026002563634 24.978026002563634 25.0 24.978026002563634 24.978026002563634 24.978026002563634 24.978026002563634 24.978026002563634 24.978026002563634 24.978026002563634 24.978026002563634 24.978026002563634 24.978026002563634 24.978026002563634 25.0 24.978026002563634 24.978026002563634 24.978026002563634 24.978026002563634 24.978026002563634 24.978026002563634 24.978026002563634 24.978026002563634 24.978026002563634 24.978026002563634 25.0 24.978026002563634 24.978026002563634 24.978026002563634 25.0 24.978026002563634 24.978026002563634 24.978026002563634 24.978026002563634 24.978026002563634 24.978026002563634 24.978026002563634 24.978026002563634 25.0 24.978026002563634 25.0 24.978026002563634 24.978026002563634 24.978026002563634 24.978026002563634 25.0 24.978026002563634 24.978026002563634 25.0 25.0 25.0 24.978026002563634 25.0 25.0 25.0 25.0 25.0 24.978026002563634 25.0 25.0 25.0 24.978026002563634 25.0 25.0 24.978026002563634 24.978026002563634 24.978026002563634 25.0 25.0 24.978026002563634 25.0 25.0 24.978026002563634 25.0 24.978026002563634 25.0 25.0 24.978026002563634 24.978026002563634 24.978026002563634 25.0 25.0 25.0 25.0 25.0 25.0 25.0 25.0 24.978026002563634 25.0 25.0 25.0 25.0 25.0 25.0 25.0 25.0 25.0 25.0 25.0 25.0 25.0 25.0 25.0 25.0 25.0 25.0 25.0 25.0 25.0 25.0 25.021973997436366 25.0 25.0 25.0 25.021973997436366 25.021973997436366 25.021973997436366 25.021973997436366 25.021973997436366 25.021973997436366 25.021973997436366 25.021973997436366 25.021973997436366 25.021973997436366 25.043947994872735 25.043947994872735 25.043947994872735 25.043947994872735 25.043947994872735 25.043947994872735 25.043947994872735 25.0659219923091 25.0659219923091 25.0659219923091 25.0659219923091 25.0659219923091 25.0659219923091 25.0659219923091 25.0659219923091 25.0659219923091 25.08789598974547 25.109869987181835 25.1318439846182 25.1318439846182 25.1318439846182 25.15381798205457 25.15381798205457 25.15381798205457 25.175791979490935 25.175791979490935 25.197765976927304 25.197765976927304 25.21973997436367 25.241713971800035 25.21973997436367 25.21973997436367 25.21973997436367 25.21973997436367 25.241713971800035 25.241713971800035 25.263687969236404 25.263687969236404 25.28566196667277 25.329609961545504 25.37355795641824 25.43947994872734 25.50540194103644 25.593297930781908 25.65921992309101 25.747115912836477 25.835011902581943 25.944881889763778 26.054751876945616 26.164621864127447 26.29646584874565 26.45028383080022 26.626075810291155 26.82384178721846 27.04358176158213 27.285295733382164 27.527009705182202 27.790697674418606 28.05438564365501 28.38399560520051 28.669657571873284 29.021241530855153 29.394799487273392 29.812305438564366 30.251785387291704 30.735213330891778 31.24061527192822 31.78996520783739 32.33931514374657 32.91063907709211 33.503937007874015 34.09723493865592 34.66855887200147 35.23988280534701 35.85515473356528 36.426478666910825 37.019776597692726 37.61307452847464 38.18439846182018 38.75572239516572 39.305072331074896 39.876396264420436 40.42574620032961 40.99707013367515 41.56839406702069 42.13971800036623 42.733015931148145 43.304339864493684 43.897637795275585 44.46896172862113 45.0183116645303 45.58963559787585 46.16095953122139 46.71030946713056 47.23768540560337 47.78703534151254 48.38033327229445 48.97363120307636 49.588903131294636 50.182201062076544 50.81944698773118 51.45669291338582 52.15986083134957 52.81908075444058 53.500274674967955 54.203442592931694 54.88463651345907 55.56583043398645 56.22505035707746 56.906244277604834 57.56546420069584 58.15876213147775 58.77403405969603 59.3893059879143 59.982603918696206 60.55392785204175 61.12525178538729 61.69657571873283 62.26789965207837 62.79527559055118 63.322651529023986 63.80607947262406 64.28950741622413 64.72898736495148 65.14649331624244 65.54202527009704 65.89360922907892 66.20124519318806 66.48690715986083 66.72862113166087 66.94836110602454 67.14612708295184 67.29994506500641 67.43178904962461 67.51968503937007 67.60758102911555 67.65152902398827 67.67350302142464 67.69547701886101 67.69547701886101 67.69547701886101 67.67350302142464 67.62955502655191 67.58560703167919 67.51968503937007 67.47573704449735 67.43178904962461 67.38784105475187 67.36586705731551 67.29994506500641 67.27797106757004 67.23402307269731 67.23402307269731 67.23402307269731 67.25599707013367 67.25599707013367 67.25599707013367 67.25599707013367 67.25599707013367 67.25599707013367 67.25599707013367 67.25599707013367 67.25599707013367 67.25599707013367 67.25599707013367 67.25599707013367 67.25599707013367 67.25599707013367 67.25599707013367 67.25599707013367 67.27797106757004 67.25599707013367 67.27797106757004 67.25599707013367 67.27797106757004 67.27797106757004 67.27797106757004 67.29994506500641 67.32191906244277 67.32191906244277 67.32191906244277 67.32191906244277 67.32191906244277 67.32191906244277 67.32191906244277 67.32191906244277 67.32191906244277 67.32191906244277 67.32191906244277 67.32191906244277 67.32191906244277 67.29994506500641 67.29994506500641 67.29994506500641 67.29994506500641 67.27797106757004 67.27797106757004 67.27797106757004 67.27797106757004 67.27797106757004 67.27797106757004 67.27797106757004 67.27797106757004 67.27797106757004 67.29994506500641 67.27797106757004 67.27797106757004 67.29994506500641 67.29994506500641 67.29994506500641 67.29994506500641 67.29994506500641 67.32191906244277 67.36586705731551 67.38784105475187 67.38784105475187 67.40981505218824 67.40981505218824 67.40981505218824 67.40981505218824 67.40981505218824 67.43178904962461 67.40981505218824 67.43178904962461 67.40981505218824 67.40981505218824 67.40981505218824 67.40981505218824 67.43178904962461 67.45376304706097 67.45376304706097 67.45376304706097 67.45376304706097 67.47573704449735 67.49771104193371 67.51968503937007 67.54165903680644 67.54165903680644 67.54165903680644 67.54165903680644 67.54165903680644 67.54165903680644 67.54165903680644 67.54165903680644 67.54165903680644 67.54165903680644 67.54165903680644 67.54165903680644 67.54165903680644 67.54165903680644 67.51968503937007 67.54165903680644 67.54165903680644 67.54165903680644 67.54165903680644 67.54165903680644 67.54165903680644 67.54165903680644 67.54165903680644 67.54165903680644 67.54165903680644 67.54165903680644 67.54165903680644 67.54165903680644 67.51968503937007 67.51968503937007 67.51968503937007 67.49771104193371 67.49771104193371 67.49771104193371 67.49771104193371 67.49771104193371 67.49771104193371 67.47573704449735 67.47573704449735 67.45376304706097 67.45376304706097 67.45376304706097 67.45376304706097 67.45376304706097 67.45376304706097 67.43178904962461 67.45376304706097 67.45376304706097 67.45376304706097 67.45376304706097 67.45376304706097 67.45376304706097 67.45376304706097 67.45376304706097 67.45376304706097 67.45376304706097 67.45376304706097 67.45376304706097 67.43178904962461 67.45376304706097 67.43178904962461 67.45376304706097 67.45376304706097 67.43178904962461 67.45376304706097 67.43178904962461 67.45376304706097 67.45376304706097 67.45376304706097 67.45376304706097 67.45376304706097 67.45376304706097 67.45376304706097 67.45376304706097 67.45376304706097 67.45376304706097 67.45376304706097 67.45376304706097 67.45376304706097 67.45376304706097 67.45376304706097 67.45376304706097 67.43178904962461 67.43178904962461 67.43178904962461 67.40981505218824 67.38784105475187 67.36586705731551 67.34389305987915 67.34389305987915 67.34389305987915 67.34389305987915 67.34389305987915 67.34389305987915 67.34389305987915 67.34389305987915 67.34389305987915 67.34389305987915 67.34389305987915 67.36586705731551 67.36586705731551 67.36586705731551 67.38784105475187 67.40981505218824 67.43178904962461 67.45376304706097 67.45376304706097 67.45376304706097 67.47573704449735 67.45376304706097 67.47573704449735 67.47573704449735 67.45376304706097 67.47573704449735 67.47573704449735 67.47573704449735 67.47573704449735 67.45376304706097 67.47573704449735 67.47573704449735 67.45376304706097 67.45376304706097 67.47573704449735 67.45376304706097 67.45376304706097 67.45376304706097 67.45376304706097 67.45376304706097 67.45376304706097 67.45376304706097 67.47573704449735 67.47573704449735 67.45376304706097 67.45376304706097 67.47573704449735 67.47573704449735 67.47573704449735 67.45376304706097 67.47573704449735 67.49771104193371 67.51968503937007 67.51968503937007 67.51968503937007 67.54165903680644 67.51968503937007 67.51968503937007 67.40981505218824 67.27797106757004 67.12415308551547 66.94836110602454 66.7725691265336 66.42098516755172 66.13532320087896 65.89360922907892 65.60794726240616 65.25636330342428 64.70701336751512 64.5092473905878 64.20161142647866 63.80607947262406 63.344625526460355 63.036989562351216 62.39974363669658 61.74052371360557 61.47683574436916 61.14722578282366 60.795641823841784 60.46603186229628 59.982603918696206 59.499175975096136 59.03772202893243 58.37850210584142 58.04889214429592 57.69730818531404 57.323750228895804 56.818348287859365 56.26899835195019 55.89544039553195 55.36806445705915 54.79674052371361 54.42318256729537 53.67606665445889 53.434352682658854 52.994872733931516 52.48947079289508 52.1378868339132 51.63248489287676 51.28090093389489 50.62168101080388 50.160227064640175 49.83061710309467 49.45705914667643 48.90770921076726 48.53415125434902 47.63321735945797 47.43545138253067 46.622413477385095 46.22688152353049 45.65555759018495 45.28199963376671 44.73264969785754 44.3590917414393 43.87566379783922 43.568027833730085 43.08459989013001 42.667093938839045 42.35945797472991 41.98590001831167 41.61234206189343 41.37062809009339 40.93114814136605 40.68943416956601 40.249954220838674 39.898370261856805 39.6346822926204 39.21717634132943 38.82164438747482 38.53598242080205 38.09650247207471 37.78886650796557 37.34938655923823 36.909906610510895 36.624244643838125 36.272660684856255 35.87712873100165 35.61344076176525 35.26185680278337 35.02014283098333 34.6465848745651 34.27302691814686 34.03131294634682 33.635780992492215 33.240249038637614 32.97656106940121 32.47115912836477 32.0536531770738 31.767991210401025 31.50430324116462 31.08679728987365 30.779161325764512 30.163889397546235 29.834279436000735 29.306903497527927 28.955319538546053 28.427943600073245 27.87859366416407 27.505035707745833 27.131477751327594 27.065555759018494 26.88976377952756 26.757919794909355 26.691997802600255 26.560153817982055 26.51620582310932 26.51620582310932 26.472257828236586 26.472257828236586 26.42830983336385 26.38436183849112 26.36238784105475 26.29646584874565 26.208569859000182 26.120673869254716 26.098699871818347 25.988829884636512 25.900933894891047 25.791063907709212 25.703167917963743 25.571323933345543 25.50540194103644 25.461453946163708 25.461453946163708 25.43947994872734 25.417505951290973 25.395531953854604 25.37355795641824 25.35158395898187 25.329609961545504 25.30763596410914 25.28566196667277 25.28566196667277 25.263687969236404 25.241713971800035 25.241713971800035 25.21973997436367 25.21973997436367 25.21973997436367 25.21973997436367 25.21973997436367 25.197765976927304 25.21973997436367 25.197765976927304 25.197765976927304 25.197765976927304 25.197765976927304 25.197765976927304 25.197765976927304 25.197765976927304 25.197765976927304 25.197765976927304 25.175791979490935 25.175791979490935 25.175791979490935 25.175791979490935 25.175791979490935 25.175791979490935 25.175791979490935 25.175791979490935 25.15381798205457 25.175791979490935 25.15381798205457 25.15381798205457 25.15381798205457 25.15381798205457 25.15381798205457 25.15381798205457 25.15381798205457 25.15381798205457 25.15381798205457 25.15381798205457 25.15381798205457 25.15381798205457 25.15381798205457 25.15381798205457 25.15381798205457 25.15381798205457 25.15381798205457 25.1318439846182 25.15381798205457 25.15381798205457 25.15381798205457 25.15381798205457 25.15381798205457 25.15381798205457 25.15381798205457 25.15381798205457 25.15381798205457 25.1318439846182 25.15381798205457 25.1318439846182 25.15381798205457 25.1318439846182 25.1318439846182 25.1318439846182 25.15381798205457 25.1318439846182 25.1318439846182 25.15381798205457 25.1318439846182 25.15381798205457 25.15381798205457 25.15381798205457 25.1318439846182 25.15381798205457 25.15381798205457 25.15381798205457 25.1318439846182 25.1318439846182 25.1318439846182 25.15381798205457 25.15381798205457 25.15381798205457 25.1318439846182 25.15381798205457 25.1318439846182 25.1318439846182 25.1318439846182 25.1318439846182 25.1318439846182 25.1318439846182 25.15381798205457 25.1318439846182 25.15381798205457 25.1318439846182 25.1318439846182 25.15381798205457 25.15381798205457 25.1318439846182 25.1318439846182 25.1318439846182 25.1318439846182 25.15381798205457 25.1318439846182 25.15381798205457 25.15381798205457 25.1318439846182 25.15381798205457 25.1318439846182 25.1318439846182 25.1318439846182 25.1318439846182 25.1318439846182 25.15381798205457 25.1318439846182 25.1318439846182 25.15381798205457 25.1318439846182 25.1318439846182 25.1318439846182 25.1318439846182 25.1318439846182 25.1318439846182 25.1318439846182 25.1318439846182 25.1318439846182 25.1318439846182 25.15381798205457 25.15381798205457 25.15381798205457 25.1318439846182 25.1318439846182 25.1318439846182 25.1318439846182 25.1318439846182 25.15381798205457 25.1318439846182 25.1318439846182 25.1318439846182 25.15381798205457 25.1318439846182 25.1318439846182 25.15381798205457 25.15381798205457 25.1318439846182 25.15381798205457 25.1318439846182 25.1318439846182 25.15381798205457 25.1318439846182 25.1318439846182 25.15381798205457 25.1318439846182 25.15381798205457 25.1318439846182 25.1318439846182 25.15381798205457 25.1318439846182 25.1318439846182 25.1318439846182 25.15381798205457 25.1318439846182 25.15381798205457 25.1318439846182 25.15381798205457 25.15381798205457 25.1318439846182 25.1318439846182 25.1318439846182 25.15381798205457 25.1318439846182 25.1318439846182 25.1318439846182 25.15381798205457 25.1318439846182 25.1318439846182 25.1318439846182 25.15381798205457 25.15381798205457 25.15381798205457 25.15381798205457 25.15381798205457 25.15381798205457 25.15381798205457 25.15381798205457 25.1318439846182 25.1318439846182 25.1318439846182 25.15381798205457 25.1318439846182 25.15381798205457 25.1318439846182 25.15381798205457 25.15381798205457 25.15381798205457 25.15381798205457 25.15381798205457 25.15381798205457 25.15381798205457 25.15381798205457 25.15381798205457 25.1318439846182 25.1318439846182 25.1318439846182 25.15381798205457 25.1318439846182 25.15381798205457 25.1318439846182 25.15381798205457 25.1318439846182 25.15381798205457 25.15381798205457 25.1318439846182 25.15381798205457 25.15381798205457 25.15381798205457 25.15381798205457 25.15381798205457 25.15381798205457 25.15381798205457 25.15381798205457 25.15381798205457 25.15381798205457 25.15381798205457 25.15381798205457 25.15381798205457 25.15381798205457 25.15381798205457 25.15381798205457 25.15381798205457 25.15381798205457 25.15381798205457 25.15381798205457 25.15381798205457 25.15381798205457 25.15381798205457 25.15381798205457 25.15381798205457 25.15381798205457 25.15381798205457 25.15381798205457 25.15381798205457 25.15381798205457 25.15381798205457 25.15381798205457 25.15381798205457 25.15381798205457 25.15381798205457 25.15381798205457 25.15381798205457 25.15381798205457 25.15381798205457 25.15381798205457 25.15381798205457 25.15381798205457 25.15381798205457 25.15381798205457 25.15381798205457 25.15381798205457 25.15381798205457 25.15381798205457 25.15381798205457 25.15381798205457 25.15381798205457 25.15381798205457 25.15381798205457 25.15381798205457 25.15381798205457 25.15381798205457 25.175791979490935 25.15381798205457 25.15381798205457 25.15381798205457 25.175791979490935 25.15381798205457 25.15381798205457 25.15381798205457 25.15381798205457 25.15381798205457 25.175791979490935 25.15381798205457 25.15381798205457 25.15381798205457 25.15381798205457 25.15381798205457 25.15381798205457 25.15381798205457 25.175791979490935 25.15381798205457 25.15381798205457 25.15381798205457 25.15381798205457 25.15381798205457 25.15381798205457 25.15381798205457 25.15381798205457 25.15381798205457 25.15381798205457 25.15381798205457 25.15381798205457 25.175791979490935 25.15381798205457 25.15381798205457 25.175791979490935 25.175791979490935 25.175791979490935 25.175791979490935 25.15381798205457 25.175791979490935 25.15381798205457 25.15381798205457 25.15381798205457 25.15381798205457 25.175791979490935 25.15381798205457 25.15381798205457 25.175791979490935 25.15381798205457 25.175791979490935 25.175791979490935 25.175791979490935 25.175791979490935 25.175791979490935 25.175791979490935 25.175791979490935 25.175791979490935 25.175791979490935 25.197765976927304 25.197765976927304 25.175791979490935 25.197765976927304 25.197765976927304 25.197765976927304 25.197765976927304 25.197765976927304 25.197765976927304 25.197765976927304 25.197765976927304 25.197765976927304 25.197765976927304 25.21973997436367 25.241713971800035 25.263687969236404 25.263687969236404 25.263687969236404 25.263687969236404 25.28566196667277 25.28566196667277 25.37355795641824 25.43947994872734 25.527375938472808 25.637245925654643 25.856985900018312 26.120673869254716 26.318439846182017 26.691997802600255 27.10950375389123 27.439113715436733 28.05438564365501 28.427943600073245 28.999267533418788 29.592565464200696 30.054019410364404 30.845083318073613 31.262589269364586 31.702069218091925 32.3173411463102 32.75682109503754 33.416041018128546 34.29500091558323 34.73448086431057 35.45962277971068 36.07489470792895 36.536348654092656 37.019776597692726 37.48123054385644 38.29426844900202 38.90954037722029 39.32704632851126 39.920344259293174 40.49166819263871 41.10694012085699 41.50247207471159 41.89800402856619 42.53524995422084 43.172495879875484 43.633949826039185 44.53488372093023 45.23805163889398 45.72147958249405 46.44662149789416 46.688335469694195 47.47939937740341 48.57809924922175 49.14942318256729 50.006409082585606 50.599707013367514 51.4786669108222 52.31367881340414 52.64328877494964 53.632118659586155 54.37923457242263 54.90661051089544 55.65372642373192 56.15912836476836 56.9282182750412 57.87310016480498 58.13678813404138 58.75206006225966 59.3893059879143 59.76286394433254 60.312213880241714 60.90551181102362 61.47683574436916 62.02618568027834 62.24592565464201 62.72935359824208 63.410547518769455 63.696209485442225 64.3774034059696 64.53122138802416 64.83885735213332 65.10254532136972 65.32228529573338 65.5859732649698 65.78373924189708 66.06940120856986 66.2451931880608 66.4429591649881 66.6407251419154 66.81651712140633 66.94836110602454 67.01428309833364 67.08020509064274 67.12415308551547 67.21204907526095 67.25599707013367 67.43178904962461 67.60758102911555 67.69547701886101 67.82732100347921 68.00311298297015 68.11298297015199 68.26680095220655 68.37667093938839 68.46456692913387 68.53048892144295 68.57443691631569 68.61838491118843 68.64035890862479 68.64035890862479 68.64035890862479 68.64035890862479 68.61838491118843 68.64035890862479 68.61838491118843 68.61838491118843 68.61838491118843 68.64035890862479 68.61838491118843 68.64035890862479 68.64035890862479 68.7062809009339 68.72825489837027 68.77220289324299 68.81615088811573 68.88207288042483 68.92602087529757 68.9699688701703 69.01391686504303 69.05786485991577 69.05786485991577 69.07983885735213 69.07983885735213 69.07983885735213 69.07983885735213 69.1018128547885 69.12378685222487 69.18970884453397 69.18970884453397 69.21168284197034 69.2336568394067 69.27760483427943 69.32155282915217 69.3655008240249 69.40944881889763 69.47537081120674 69.54129280351583 69.58524079838858 69.65116279069767 69.7610327778795 69.87090276506135 69.93682475737045 70.02472074711591 70.11261673686138 70.15656473173412 70.17853872917048 70.20051272660686 70.22248672404322 70.22248672404322 70.22248672404322 70.22248672404322 70.22248672404322 70.22248672404322 70.20051272660686 70.20051272660686 70.20051272660686 70.20051272660686 70.17853872917048 70.17853872917048 70.17853872917048 70.17853872917048 70.20051272660686 70.17853872917048 70.17853872917048 70.15656473173412 70.15656473173412 70.15656473173412 70.13459073429775 70.13459073429775 70.13459073429775 70.13459073429775 70.13459073429775 70.13459073429775 70.13459073429775 70.13459073429775 70.13459073429775 70.13459073429775 70.13459073429775 70.13459073429775 70.15656473173412 70.13459073429775 70.15656473173412 70.15656473173412 70.15656473173412 70.15656473173412 70.15656473173412 70.15656473173412 70.15656473173412 70.15656473173412 70.13459073429775 70.15656473173412 70.15656473173412 70.13459073429775 70.13459073429775 70.13459073429775 70.13459073429775 70.13459073429775 70.13459073429775 70.13459073429775 70.13459073429775 70.13459073429775 70.13459073429775 70.13459073429775 70.13459073429775 70.13459073429775 70.13459073429775 70.13459073429775 70.13459073429775 70.13459073429775 70.13459073429775 70.13459073429775 70.13459073429775 70.13459073429775 70.13459073429775 70.13459073429775 70.13459073429775 70.13459073429775 70.11261673686138 70.09064273942502 70.06866874198866 70.04669474455227 70.04669474455227 70.00274674967955 70.02472074711591 70.00274674967955 70.02472074711591 70.02472074711591 70.02472074711591 70.02472074711591 70.02472074711591 70.00274674967955 70.00274674967955 70.02472074711591 70.00274674967955 70.02472074711591 70.02472074711591 70.02472074711591 70.02472074711591 70.02472074711591 70.02472074711591 70.02472074711591 70.02472074711591 70.02472074711591 70.02472074711591 70.02472074711591 70.02472074711591 70.04669474455227 70.04669474455227 70.06866874198866 70.09064273942502 70.09064273942502 70.11261673686138 70.11261673686138 70.11261673686138 70.13459073429775 70.13459073429775 70.13459073429775 70.15656473173412 70.15656473173412 70.15656473173412 70.17853872917048 70.17853872917048 70.20051272660686 70.20051272660686 70.20051272660686 70.22248672404322 70.22248672404322 70.22248672404322 70.22248672404322 70.22248672404322 70.24446072147958 70.24446072147958 70.24446072147958 70.24446072147958 70.24446072147958 70.26643471891595 70.26643471891595 70.31038271378868 70.33235671122506 70.33235671122506 70.35433070866142 70.39827870353415 70.42025270097052 70.46420069584326 70.48617469327962 70.50814869071598 70.50814869071598 70.53012268815235 70.55209668558872 70.55209668558872 70.57407068302508 70.55209668558872 70.57407068302508 70.55209668558872 70.55209668558872 70.57407068302508 70.55209668558872 70.55209668558872 70.55209668558872 70.55209668558872 70.55209668558872 70.55209668558872 70.55209668558872 70.57407068302508 70.57407068302508 70.57407068302508 70.57407068302508 70.57407068302508 70.57407068302508 70.57407068302508 70.57407068302508 70.57407068302508 70.57407068302508 70.57407068302508 70.57407068302508 70.55209668558872 70.55209668558872 70.55209668558872 70.55209668558872 70.55209668558872 70.55209668558872 70.55209668558872 70.57407068302508 70.55209668558872 70.55209668558872 70.55209668558872 70.55209668558872 70.55209668558872 70.57407068302508 70.55209668558872 70.55209668558872 70.57407068302508 70.57407068302508 70.55209668558872 70.57407068302508 70.55209668558872 70.55209668558872 70.55209668558872 70.55209668558872 70.53012268815235 70.53012268815235 70.53012268815235 70.53012268815235 70.53012268815235 70.50814869071598 70.50814869071598 70.50814869071598 70.50814869071598 70.50814869071598 70.50814869071598 70.48617469327962 70.50814869071598 70.50814869071598 70.50814869071598 70.50814869071598 70.48617469327962 70.48617469327962 70.46420069584326 70.44222669840688 70.42025270097052 70.37630470609778 70.35433070866142 70.33235671122506 70.31038271378868 70.28840871635232 70.28840871635232 70.26643471891595 70.26643471891595 70.26643471891595 70.26643471891595 70.26643471891595 70.26643471891595 70.26643471891595 70.24446072147958 70.24446072147958 70.22248672404322 70.22248672404322 70.20051272660686 70.20051272660686 70.17853872917048 70.17853872917048 70.17853872917048 70.17853872917048 70.17853872917048 70.17853872917048 70.20051272660686 70.20051272660686 70.17853872917048 70.20051272660686 70.17853872917048 70.20051272660686 70.17853872917048 70.17853872917048 70.17853872917048 70.17853872917048 70.17853872917048 70.17853872917048 70.17853872917048 70.20051272660686 70.17853872917048 70.17853872917048 70.17853872917048 70.20051272660686 70.17853872917048 70.20051272660686 70.17853872917048 70.17853872917048 70.15656473173412 70.13459073429775 70.09064273942502 70.04669474455227 70.02472074711591 70.00274674967955 69.98077275224318 69.95879875480682 69.95879875480682 69.95879875480682 69.95879875480682 69.95879875480682 69.98077275224318 69.98077275224318 69.98077275224318 69.98077275224318 69.98077275224318 69.98077275224318 69.98077275224318 69.98077275224318 69.98077275224318 69.98077275224318 69.93682475737045 69.91485075993407 69.8269547701886 69.6951107855704 69.6291887932613 69.47537081120674 69.3655008240249 69.21168284197034 69.01391686504303 68.94799487273393 68.7062809009339 68.46456692913387 68.31074894707929 68.02508698040651 67.84929500091559 67.38784105475187 67.03625709577 66.86046511627907 66.46493316242447 66.00347921626076 65.67386925471524 65.10254532136972 64.79490935726056 64.33345541109688 63.850027467496794 63.498443508514924 63.16883354696942 62.68540560336935 62.15802966489654 61.60867972898736 61.23512177256912 60.61984984435085 60.004577916132575 59.56509796740524 58.88390404687786 58.22468412378685 57.80717817249588 57.14795824940487 56.7304522981139 56.09320637245926 55.36806445705915 55.01648049807727 54.68687053653177 54.37923457242263 53.961728621131655 53.588170664713424 53.060794726240616 52.797106757004215 52.40157480314961 52.11591283647684 51.83025086980406 51.149056949276684 50.77549899285845 50.204175059512906 49.786669108221936 49.171397180003666 48.51217725691265 48.07269730818531 47.4134773850943 46.973997436366965 46.314777513275956 45.65555759018495 45.23805163889398 44.6227797106757 44.007507782457424 43.414209851675515 42.996703900384546 42.667093938839045 42.1616919978026 41.48049807727523 41.28273210034792 40.84325215162058 40.227980223402305 39.898370261856805 39.546786302874935 39.107306354147596 38.64585240798389 38.20637245925654 37.94268449002014 37.59110053103827 37.28346456692913 37.08569859000183 36.80003662332906 36.624244643838125 36.338582677165356 36.052920710492586 35.87712873100165 35.52554477201978 35.34975279252884 35.15198681560154 34.7784288591833 34.60263687969236 34.40487090276506 34.03131294634682 33.83354696941952 33.525911005310384 33.196301043764876 32.998535066837576 32.712873100164806 32.5151071232375 32.29536714887384 32.0536531770738 31.87786119758286 31.636147225782825 31.46035524629189 31.08679728987365 30.911005310382713 30.735213330891778 30.51547335652811 30.29573338216444 30.14191540010987 29.8562534334371 29.724409448818896 29.54861746932796 29.394799487273392 29.284929500091557 29.087163523164257 28.823475553927853 28.69163156930965 28.47189159494598 28.31807361289141 28.076359641091376 27.81267167185497 27.614905694927668 27.417139718000367 27.373191723127633 27.329243728254898 27.263321735945798 27.219373741073063 27.17542574620033 27.087529756454863 27.04358176158213 26.97765976927303 26.88976377952756 26.82384178721846 26.73594579747299 26.626075810291155 26.538179820545686 26.45028383080022 26.406335835927486 26.36238784105475 26.318439846182017 26.252517853872916 26.186595861563816 26.164621864127447 26.098699871818347 26.054751876945616 25.988829884636512 25.944881889763778 25.878959897454678 25.835011902581943 25.769089910272843 25.72514191540011 25.65921992309101 25.593297930781908 25.549349935909174 25.527375938472808 25.461453946163708 25.43947994872734 25.395531953854604 25.37355795641824 25.35158395898187 25.35158395898187 25.329609961545504 25.329609961545504 25.329609961545504 25.30763596410914 25.30763596410914 25.28566196667277 25.28566196667277 25.28566196667277 25.28566196667277 25.28566196667277 25.263687969236404 25.263687969236404 25.263687969236404 25.263687969236404 25.241713971800035 25.241713971800035 25.241713971800035 25.241713971800035 25.241713971800035 25.21973997436367 25.21973997436367 25.21973997436367 25.197765976927304 25.197765976927304 25.175791979490935 25.175791979490935 25.175791979490935 25.175791979490935 25.175791979490935 25.175791979490935 25.175791979490935 25.15381798205457 25.15381798205457 25.15381798205457 25.15381798205457 25.15381798205457 25.15381798205457 25.15381798205457 25.15381798205457 25.15381798205457 25.1318439846182 25.1318439846182 25.1318439846182 25.1318439846182 25.1318439846182 25.1318439846182 25.1318439846182 25.1318439846182 25.1318439846182 25.1318439846182 25.109869987181835 25.1318439846182 25.1318439846182 25.1318439846182 25.109869987181835 25.1318439846182 25.1318439846182 25.109869987181835 25.1318439846182 25.1318439846182 25.1318439846182 25.1318439846182 25.1318439846182 25.1318439846182 25.1318439846182 25.109869987181835 25.109869987181835 25.109869987181835 25.109869987181835 25.109869987181835 25.109869987181835 25.109869987181835 25.1318439846182 25.109869987181835 25.1318439846182 25.109869987181835 25.109869987181835 25.109869987181835 25.109869987181835 25.109869987181835 25.1318439846182 25.109869987181835 25.109869987181835 25.109869987181835 25.109869987181835 25.109869987181835 25.109869987181835 25.109869987181835 25.109869987181835 25.109869987181835 25.109869987181835 25.109869987181835 25.109869987181835 25.109869987181835 25.109869987181835 25.109869987181835 25.109869987181835 25.109869987181835 25.109869987181835 25.109869987181835 25.109869987181835 25.109869987181835 25.109869987181835 25.109869987181835 25.109869987181835 25.109869987181835 25.109869987181835 25.109869987181835 25.109869987181835 25.109869987181835 25.109869987181835 25.109869987181835 25.109869987181835 25.109869987181835 25.109869987181835 25.109869987181835 25.109869987181835 25.109869987181835 25.109869987181835 25.109869987181835 25.109869987181835 25.109869987181835 25.109869987181835 25.109869987181835 25.109869987181835 25.109869987181835 25.109869987181835 25.109869987181835 25.109869987181835 25.109869987181835 25.109869987181835 25.109869987181835 25.109869987181835 25.08789598974547 25.109869987181835 25.109869987181835 25.109869987181835 25.109869987181835 25.109869987181835 25.08789598974547 25.08789598974547 25.08789598974547 25.08789598974547 25.08789598974547 25.08789598974547 25.109869987181835 25.109869987181835 25.08789598974547 25.109869987181835 25.08789598974547 25.109869987181835 25.109869987181835 25.109869987181835 25.109869987181835 25.109869987181835 25.109869987181835 25.109869987181835 25.109869987181835 25.109869987181835 25.109869987181835 25.109869987181835 25.109869987181835 25.109869987181835 25.109869987181835 25.109869987181835 25.109869987181835 25.109869987181835 25.109869987181835 25.1318439846182 25.109869987181835 25.1318439846182 25.1318439846182 25.1318439846182 25.15381798205457 25.1318439846182 25.1318439846182 25.15381798205457 25.15381798205457 25.15381798205457 25.175791979490935 25.175791979490935 25.21973997436367 25.263687969236404 25.329609961545504 25.417505951290973 25.483427943600073 25.593297930781908 25.747115912836477 25.856985900018312 26.054751876945616 26.252517853872916 26.38436183849112 26.60410181285479 26.779893792345725 27.153451748763963 27.834645669291337 28.076359641091376 28.581761582127815 29.153085515473357 29.526643471891596 30.054019410364404 30.44955136421901 31.24061527192822 31.921809192455594 32.22944515656473 32.84471708478301 33.74565097967405 34.207104925837754 34.86632484892877 35.32777879509247 35.986998718183486 36.602270646401756 36.975828602819995 37.7009705182201 38.33821644387475 38.82164438747482 39.4369163156931 39.876396264420436 40.535616187511444 41.26075810291155 41.98590001831167 42.46932796191174 43.260391869620946 43.80974180553012 44.90844167734847 45.47976561069402 46.051089544039556 47.259659403039734 47.87493133125801 48.49020325947629 49.786669108221936 50.445889031312944 51.43471891594946 52.11591283647684 53.08276872367698 54.00567661600439 54.62094854422267 55.52188243911371 56.378868339132026 56.972166269913934 57.76323017762314 58.31258011353232 59.367331990477936 59.872733931514375 60.356161875114445 61.08130379051456 61.56473173411463 62.22395165720564 63.058963559787585 63.67423548800586 64.26753341878776 64.66306537264236 65.08057132393334 65.47610327778796 66.09137520600623 66.72862113166087 67.34389305987915 67.76139901117011 68.39864493682475 69.01391686504303 69.6291887932613 70.02472074711591 70.39827870353415 70.99157663431606 71.45303058047976 71.78264054202528 72.44186046511629 72.88134041384362 73.16700238051638 73.47463834462553 73.73832631386193 74.15583226515291 74.63926020875297 74.83702618568029 75.07874015748033 75.27650613440761 75.40835011902581 75.54019410364401 75.71598608313496 75.86980406518953 76.00164804980773 76.0895440395532 76.2213880241714 76.3532320087896 76.44112799853508 76.57297198315328 76.6828419703351 76.79271195751694 76.90258194469877 76.96850393700788 77.0783739241897 77.16626991393517 77.23219190624428 77.29811389855337 77.34206189342612 77.40798388573522 77.45193188060796 77.49587987548068 77.53982787035342 77.56180186778978 77.58377586522616 77.60574986266252 77.60574986266252 77.60574986266252 77.60574986266252 77.60574986266252 77.60574986266252 77.60574986266252 77.60574986266252 77.58377586522616 77.58377586522616 77.58377586522616 77.58377586522616 77.58377586522616 77.58377586522616 77.58377586522616 77.58377586522616 77.58377586522616 77.58377586522616 77.58377586522616 77.58377586522616 77.58377586522616 77.56180186778978 77.56180186778978 77.49587987548068 77.45193188060796 77.42995788317158 77.36403589086248 77.34206189342612 77.32008789598976 77.29811389855337 77.29811389855337 77.276139901117 77.25416590368064 77.23219190624428 77.21021790880792 77.16626991393517 77.1442959164988 77.0783739241897 77.05639992675334 77.0124519318806 76.9465299395715 76.92455594213514 76.85863394982604 76.77073796008057 76.72678996520784 76.70481596777148 76.6828419703351 76.6828419703351 76.6828419703351 76.6828419703351 76.6828419703351 76.70481596777148 76.6828419703351 76.66086797289874 76.63889397546237 76.59494598058964 76.59494598058964 76.59494598058964 76.57297198315328 76.52902398828054 76.50704999084417 76.44112799853508 76.39718000366233 76.3532320087896 76.33125801135323 76.33125801135323 76.30928401391687 76.30928401391687 76.30928401391687 76.28731001648049 76.26533601904413 76.19941402673503 76.17744002929867 76.11151803698957 76.0895440395532 76.0895440395532 76.06757004211683 76.04559604468047 76.02362204724409 75.97967405237137 75.91375206006227 75.89177806262589 75.86980406518953 75.84783006775316 75.84783006775316 75.8258560703168 75.8258560703168 75.80388207288043 75.73796008057133 75.6940120856986 75.65006409082585 75.58414209851676 75.51822010620765 75.43032411646219 75.38637612158945 75.32045412928035 75.27650613440761 75.23255813953489 75.16663614722579 75.14466214978941 75.10071415491669 75.10071415491669 75.07874015748033 75.10071415491669 75.07874015748033 75.07874015748033 75.05676616004395 75.05676616004395 75.03479216260759 75.01281816517121 75.01281816517121 74.96887017029849 74.92492217542575 74.88097418055301 74.83702618568029 74.79307819080753 74.74913019593481 74.72715619849845 74.70518220106207 74.70518220106207 74.70518220106207 74.70518220106207 74.68320820362571 74.68320820362571 74.68320820362571 74.66123420618933 74.63926020875297 74.61728621131661 74.61728621131661 74.57333821644387 74.52939022157113 74.50741622413477 74.48544222669841 74.44149423182567 74.41952023438931 74.41952023438931 74.39754623695293 74.39754623695293 74.39754623695293 74.39754623695293 74.37557223951657 74.35359824208021 74.35359824208021 74.30965024720747 74.28767624977111 74.24372825489837 74.22175425746201 74.22175425746201 74.19978026002565 74.19978026002565 74.17780626258927 74.17780626258927 74.17780626258927 74.17780626258927 74.17780626258927 74.17780626258927 74.15583226515291 74.13385826771653 74.11188427028017 74.08991027284381 74.08991027284381 74.06793627540745 74.0239882805347 74.00201428309833 74.00201428309833 73.98004028566197 73.95806628822561 73.91411829335286 73.8921442959165 73.84819630104377 73.8262223036074 73.84819630104377 73.8262223036074 73.84819630104377 73.84819630104377 73.84819630104377 73.84819630104377 73.84819630104377 73.84819630104377 73.84819630104377 73.84819630104377 73.84819630104377 73.84819630104377 73.84819630104377 73.8262223036074 73.80424830617103 73.78227430873466 73.7603003112983 73.7603003112983 73.73832631386193 73.71635231642557 73.6943783189892 73.67240432155283 73.65043032411646 73.6284563266801 73.60648232924373 73.60648232924373 73.60648232924373 73.60648232924373 73.58450833180737 73.54056033693463 73.51858633949826 73.4966123420619 73.47463834462553 73.45266434718917 73.40871635231643 73.3647683574437 73.34279436000733 73.32082036257097 73.29884636513458 73.29884636513458 73.27687236769822 73.27687236769822 73.25489837026186 73.27687236769822 73.27687236769822 73.29884636513458 73.27687236769822 73.27687236769822 73.29884636513458 73.29884636513458 73.29884636513458 73.29884636513458 73.27687236769822 73.27687236769822 73.27687236769822 73.27687236769822 73.25489837026186 73.2329243728255 73.2329243728255 73.21095037538913 73.18897637795277 73.18897637795277 73.18897637795277 73.16700238051638 73.16700238051638 73.14502838308002 73.12305438564366 73.1010803882073 73.1010803882073 73.07910639077092 73.05713239333456 73.03515839589818 73.03515839589818 73.01318439846182 72.99121040102546 72.9692364035891 72.9692364035891 72.94726240615272 72.94726240615272 72.94726240615272 72.92528840871636 72.90331441127998 72.90331441127998 72.85936641640725 72.81541842153452 72.79344442409815 72.74949642922542 72.72752243178905 72.66160043947995 72.61765244460722 72.59567844717085 72.52975645486175 72.46383446255265 72.39791247024354 72.2880424830617 72.22212049075262 72.13422450100714 72.00238051638894 71.91448452664348 71.7606665445889 71.47500457791614 71.2992125984252 71.0355246291888 70.8377586522615 70.57407068302508 70.26643471891595 70.06866874198866 69.6951107855704 69.34352682658854 69.07983885735213 68.50851492400659 68.35469694195203 67.73942501373375 67.25599707013367 66.99230910089727 66.68467313678813 66.20124519318806 65.89360922907892 65.43215528291522 64.97070133675152 64.53122138802416 63.95989745467863 63.80607947262406 63.542391503387655 63.10291155466032 62.64145760849661 62.18000366233291 61.8503937007874 61.27906976744186 60.70774583409632 60.26826588536898 59.587071964841606 58.94982603918696 58.48837209302326 57.76323017762314 57.257828236586704 56.488738326313864 55.67570042116829 54.88463651345907 54.335286577549894 53.785936641640724 52.731184764695115 52.1378868339132 51.69840688518586 50.75352499542208 50.072331074894706 49.610877128731005 49.19337117744003 48.77586522614906 47.96282732100348 47.36952939022157 46.93004944149423 46.402673503021425 45.87529756454862 45.50173960813038 44.93041567478484 44.53488372093023 43.98553378502106 43.436183849111885 43.106573887566384 42.62314594396631 42.11774400292987 41.74418604651163 41.21681010803882 40.90917414392968 40.381798205456874 39.678630287493135 39.305072331074896 38.77769639260209 38.20637245925654 37.85478850027467 37.48123054385644 37.1735945797473 36.558322651529025 36.118842702801686 35.78923274125618 35.39370078740157 34.9761948361106 34.69053286943783 34.25105292071049 33.96539095403772 33.54788500274675 33.152353048892145 32.91063907709211 32.3832631386193 31.987731184764694 31.702069218091925 31.262589269364586 31.130745284746382 30.669291338582678 30.054019410364404 29.724409448818896 29.219007507782457 28.64768357443692 28.18622962827321 27.307269730818533 26.97765976927303 26.406335835927486 26.01080388207288 25.966855887200147 25.878959897454678 25.72514191540011 25.43947994872734 25.30763596410914 25.21973997436367 25.483427943600073 25.703167917963743 25.65921992309101 25.593297930781908 25.461453946163708 25.571323933345543 25.527375938472808 25.571323933345543 25.703167917963743 25.900933894891047 25.944881889763778 25.900933894891047 25.900933894891047 25.856985900018312 25.856985900018312 25.813037905145578 25.769089910272843 25.747115912836477 25.747115912836477 25.72514191540011 25.681193920527377 25.637245925654643 25.593297930781908 25.593297930781908 25.593297930781908 25.571323933345543 25.549349935909174 25.549349935909174 25.549349935909174 25.549349935909174 25.549349935909174 25.527375938472808 25.527375938472808 25.527375938472808 25.527375938472808 25.527375938472808 25.50540194103644 25.50540194103644 25.483427943600073 25.483427943600073 25.461453946163708 25.43947994872734 25.417505951290973 25.417505951290973 25.395531953854604 25.395531953854604 25.395531953854604 25.37355795641824 25.37355795641824 25.35158395898187 25.35158395898187 25.35158395898187 25.329609961545504 25.329609961545504 25.30763596410914 25.30763596410914 25.30763596410914 25.30763596410914 25.30763596410914 25.30763596410914 25.30763596410914 25.30763596410914 25.30763596410914 25.30763596410914 25.30763596410914 25.28566196667277 25.30763596410914 25.28566196667277 25.28566196667277 25.28566196667277 25.28566196667277 25.28566196667277 25.28566196667277 25.28566196667277 25.28566196667277 25.28566196667277 25.28566196667277 25.28566196667277 25.28566196667277 25.28566196667277 25.28566196667277 25.28566196667277 25.28566196667277 25.28566196667277 25.28566196667277 25.28566196667277 25.28566196667277 25.28566196667277 25.28566196667277 25.28566196667277 25.28566196667277 25.28566196667277 25.28566196667277 25.28566196667277 25.28566196667277 25.28566196667277 25.28566196667277 25.28566196667277 25.28566196667277 25.28566196667277 25.28566196667277 25.28566196667277 25.28566196667277 25.28566196667277 25.28566196667277 25.28566196667277 25.28566196667277 25.28566196667277 25.28566196667277 25.28566196667277 25.28566196667277 25.28566196667277 25.28566196667277 25.28566196667277 25.28566196667277 25.28566196667277 25.28566196667277 25.28566196667277 25.28566196667277 25.28566196667277 25.28566196667277 25.30763596410914 25.28566196667277 25.28566196667277 25.28566196667277 25.28566196667277 25.28566196667277 25.28566196667277 25.28566196667277 25.28566196667277 25.28566196667277 25.28566196667277 25.28566196667277 25.263687969236404 25.28566196667277 25.28566196667277 25.263687969236404 25.263687969236404 25.263687969236404 25.263687969236404 25.263687969236404 25.263687969236404 25.263687969236404 25.263687969236404 25.263687969236404 25.241713971800035 25.241713971800035 25.263687969236404 25.263687969236404 25.241713971800035 25.241713971800035 25.241713971800035 25.241713971800035 25.241713971800035 25.241713971800035 25.241713971800035 25.241713971800035 25.241713971800035 25.241713971800035 25.241713971800035 25.241713971800035 25.241713971800035 25.241713971800035 25.241713971800035 25.241713971800035 25.241713971800035 25.241713971800035 25.241713971800035 25.241713971800035 25.241713971800035 25.241713971800035 25.241713971800035 25.241713971800035 25.241713971800035 25.241713971800035 25.241713971800035 25.241713971800035 25.241713971800035 25.241713971800035 25.241713971800035 25.241713971800035 25.241713971800035 25.241713971800035 25.241713971800035 25.241713971800035 25.241713971800035 25.241713971800035 25.241713971800035 25.241713971800035 25.241713971800035 25.241713971800035 25.241713971800035 25.241713971800035 25.241713971800035 25.21973997436367 25.241713971800035 25.241713971800035 25.21973997436367 25.21973997436367 25.241713971800035 25.21973997436367 25.21973997436367 25.21973997436367 25.21973997436367 25.241713971800035 25.21973997436367 25.21973997436367 25.21973997436367 25.21973997436367 25.21973997436367 25.21973997436367 25.21973997436367 25.197765976927304 25.21973997436367 25.197765976927304 25.197765976927304 25.197765976927304 25.197765976927304 25.197765976927304 25.197765976927304 25.197765976927304 25.197765976927304 25.197765976927304 25.197765976927304 25.21973997436367 25.197765976927304 25.197765976927304 25.197765976927304 25.21973997436367 25.197765976927304 25.197765976927304 25.197765976927304 25.197765976927304 25.197765976927304 25.197765976927304 25.197765976927304 25.197765976927304 25.197765976927304 25.197765976927304 25.197765976927304 25.197765976927304 25.197765976927304 25.197765976927304 25.175791979490935 25.197765976927304 25.197765976927304 25.197765976927304 25.197765976927304 25.197765976927304 25.197765976927304 25.197765976927304 25.197765976927304 25.197765976927304 25.197765976927304 25.197765976927304 25.197765976927304 25.197765976927304 25.21973997436367 25.241713971800035 25.241713971800035 25.263687969236404 25.241713971800035 25.263687969236404 25.28566196667277 25.30763596410914 25.37355795641824 25.461453946163708 25.527375938472808 25.615271928218274 25.703167917963743 25.791063907709212 25.900933894891047 25.988829884636512 26.120673869254716 26.252517853872916 26.36238784105475 26.538179820545686 26.73594579747299 26.867789782091194 27.197399743636698 27.395165720564 27.74674967954587 28.208203625709576 28.55978758469145 28.91137154367332 29.63651345907343 30.032045412928035 30.625343343709943 30.976927302691813 31.548251236037355 32.07562717451016 32.4491851309284 32.866691082219376 33.32814502838308 33.67972898736495 34.207104925837754 34.58066288225599 35.17396081303791 35.83318073612892 36.426478666910825 36.602270646401756 36.997802600256364 37.81084050540194 38.47006042849295 38.93151437465666 39.612708295184035 40.33785021058414 40.84325215162058 41.37062809009339 41.89800402856619 42.97472990294818 43.74381981322102 44.271195751693824 45.12818165171214 45.94121955685772 46.556491485075995 47.3475553927852 47.87493133125801 48.60007324665812 49.32521516205823 49.786669108221936 50.665629005676614 51.28090093389489 51.69840688518586 52.1378868339132 52.51144479033144 53.08276872367698 53.61014466214979 54.18146859549533 54.70884453396813 55.30214246475005 55.71964841604102 56.20307635964109 56.840322285295734 57.52151620582311 58.44442409815052 58.64219007507782 59.301409998168836 59.938655923823475 60.356161875114445 60.97143380333272 61.36696575718733 61.93828969053287 62.50961362387841 62.86119758286028 63.344625526460355 63.828053470060425 64.26753341878776 64.70701336751512 64.86083134956968 65.30031129829702 65.8496612342062 66.13532320087896 66.5088811572972 66.83849111884271 67.01428309833364 67.21204907526095 67.32191906244277 67.40981505218824 67.43178904962461 67.43178904962461 67.43178904962461 67.43178904962461 67.43178904962461 67.40981505218824 67.43178904962461 67.40981505218824 67.40981505218824 67.40981505218824 67.40981505218824 67.40981505218824 67.40981505218824 67.40981505218824 67.40981505218824 67.40981505218824 67.40981505218824 67.40981505218824 67.40981505218824 67.40981505218824 67.40981505218824 67.40981505218824 67.40981505218824 67.40981505218824 67.38784105475187 67.38784105475187 67.34389305987915 67.29994506500641 67.25599707013367 67.23402307269731 67.21204907526095 67.1681010803882 67.12415308551547 67.08020509064274 67.01428309833364 66.97033510346091 66.94836110602454 66.9044131111518 66.88243911371544 66.86046511627907 66.86046511627907 66.83849111884271 66.83849111884271 66.86046511627907 66.86046511627907 66.86046511627907 66.88243911371544 66.88243911371544 66.88243911371544 66.88243911371544 66.88243911371544 66.9044131111518 66.92638710858817 66.94836110602454 66.97033510346091 66.97033510346091 67.01428309833364 67.01428309833364 67.05823109320637 67.05823109320637 67.08020509064274 67.08020509064274 67.08020509064274 67.08020509064274 67.08020509064274 67.08020509064274 67.08020509064274 67.10217908807911 67.10217908807911 67.10217908807911 67.12415308551547 67.12415308551547 67.12415308551547 67.14612708295184 67.14612708295184 67.14612708295184 67.1681010803882 67.1681010803882 67.1681010803882 67.1681010803882 67.19007507782457 67.19007507782457 67.21204907526095 67.21204907526095 67.23402307269731 67.21204907526095 67.21204907526095 67.21204907526095 67.21204907526095 67.21204907526095 67.21204907526095 67.21204907526095 67.21204907526095 67.21204907526095 67.21204907526095 67.21204907526095 67.21204907526095 67.21204907526095 67.21204907526095 67.21204907526095 67.21204907526095 67.21204907526095 67.21204907526095 67.21204907526095 67.21204907526095 67.21204907526095 67.21204907526095 67.21204907526095 67.21204907526095 67.21204907526095 67.21204907526095 67.21204907526095 67.21204907526095 67.19007507782457 67.1681010803882 67.1681010803882 67.12415308551547 67.10217908807911 67.08020509064274 67.05823109320637 67.03625709577 67.03625709577 67.03625709577 67.03625709577 67.03625709577 67.03625709577 67.05823109320637 67.03625709577 67.05823109320637 67.03625709577 67.05823109320637 67.03625709577 67.05823109320637 67.05823109320637 67.03625709577 67.03625709577 67.03625709577 67.03625709577 67.03625709577 67.03625709577 67.03625709577 67.03625709577 67.03625709577 67.03625709577 67.03625709577 67.03625709577 67.03625709577 67.03625709577 67.01428309833364 67.01428309833364 67.01428309833364 67.01428309833364 67.01428309833364 67.01428309833364 67.01428309833364 66.99230910089727 66.99230910089727 66.99230910089727 66.99230910089727 66.97033510346091 66.97033510346091 66.94836110602454 66.92638710858817 66.9044131111518 66.88243911371544 66.86046511627907 66.86046511627907 66.83849111884271 66.83849111884271 66.83849111884271 66.83849111884271 66.83849111884271 66.83849111884271 66.83849111884271 66.86046511627907 66.83849111884271 66.86046511627907 66.86046511627907 66.86046511627907 66.86046511627907 66.86046511627907 66.86046511627907 66.86046511627907 66.86046511627907 66.86046511627907 66.86046511627907 66.83849111884271 66.86046511627907 66.83849111884271 66.83849111884271 66.83849111884271 66.83849111884271 66.83849111884271 66.83849111884271 66.83849111884271 66.81651712140633 66.81651712140633 66.81651712140633 66.81651712140633 66.81651712140633 66.81651712140633 66.81651712140633 66.81651712140633 66.81651712140633 66.81651712140633 66.81651712140633 66.81651712140633 66.81651712140633 66.81651712140633 66.81651712140633 66.81651712140633 66.81651712140633 66.81651712140633 66.81651712140633 66.83849111884271 66.83849111884271 66.86046511627907 66.86046511627907 66.86046511627907 66.86046511627907 66.88243911371544 66.88243911371544 66.88243911371544 66.88243911371544 66.88243911371544 66.86046511627907 66.86046511627907 66.86046511627907 66.81651712140633 66.81651712140633 66.75059512909723 66.70664713422451 66.68467313678813 66.6407251419154 66.59677714704267 66.53085515473356 66.48690715986083 66.4429591649881 66.33308917780627 66.2451931880608 66.15729719831532 66.06940120856986 65.9815052188244 65.73979124702436 65.52005127266068 65.38820728804248 65.1684673136788 64.99267533418788 64.75096136238784 64.48727339315144 64.3114814136605 64.04779344442409 63.74015748031496 63.542391503387655 63.212781541842155 62.971067570042116 62.46566562900568 62.07013367515107 61.7844717084783 61.41091375206006 61.14722578282366 60.729719831532684 60.46603186229628 59.916681926387106 59.652993957150706 59.2574620032961 58.9278520417506 58.62021607764146 58.24665812122322 57.76323017762314 57.30177623145944 56.9941402673503 56.51071232375023 55.80754440578649 55.54385643655009 55.10437648782275 54.5989745467863 54.203442592931694 53.632118659586155 53.258560703167916 52.64328877494964 51.83025086980406 51.41274491851309 50.99523896722212 50.379967039003844 49.962461087712875 49.3471891594946 48.73191723127633 48.11664530305805 47.3475553927852 47.10584142098517 46.688335469694195 45.985167551730456 45.61160959531222 45.04028566196667 44.64475370811206 44.05145577733016 43.48013184398462 43.062625892693646 42.51327595678447 42.00787401574803 41.61234206189343 41.019044131111514 40.68943416956601 40.184032228529574 39.678630287493135 39.173228346456696 38.86559238234756 38.57993041567478 38.03058047976561 37.635048525911 37.393334554110965 37.15162058231093 36.690166636147225 36.338582677165356 36.20673869254715 35.87712873100165 35.52554477201978 35.15198681560154 34.88829884636513 34.49276689251053 34.09723493865592 33.81157297198315 33.416041018128546 33.152353048892145 32.75682109503754 32.36128914118294 32.07562717451016 31.636147225782825 31.394433253982786 31.174693279619117 30.801135323200878 30.625343343709943 30.339681377037174 29.966123420618935 29.746383446255265 29.438747482146127 29.175059512909723 28.97729353598242 28.801501556491484 28.515839589818714 28.12030763596411 27.944515656473172 27.768723676982237 27.702801684673137 27.570957700054933 27.527009705182202 27.483061710309467 27.461087712873102 27.395165720564 27.373191723127633 27.351217725691264 27.307269730818533 27.263321735945798 27.219373741073063 27.153451748763963 27.10950375389123 27.02160776414576 26.867789782091194 26.779893792345725 26.648049807727524 26.51620582310932 26.406335835927486 26.274491851309286 26.164621864127447 26.032777879509247 25.900933894891047 25.835011902581943 25.747115912836477 25.703167917963743 25.637245925654643 25.637245925654643 25.637245925654643 25.615271928218274 25.593297930781908 25.571323933345543 25.549349935909174 25.527375938472808 25.483427943600073 25.461453946163708 25.43947994872734 25.417505951290973 25.395531953854604 25.37355795641824 25.35158395898187 25.35158395898187 25.35158395898187 25.329609961545504 25.329609961545504 25.30763596410914 25.30763596410914 25.30763596410914 25.28566196667277 25.30763596410914 25.28566196667277 25.28566196667277 25.28566196667277 25.28566196667277 25.28566196667277 25.28566196667277 25.28566196667277 25.28566196667277 25.263687969236404 25.263687969236404 25.263687969236404 25.263687969236404 25.263687969236404 25.263687969236404 25.241713971800035 25.241713971800035 25.241713971800035 25.241713971800035 25.241713971800035 25.241713971800035 25.21973997436367 25.241713971800035 25.241713971800035 25.21973997436367 25.21973997436367 25.21973997436367 25.21973997436367 25.197765976927304 25.197765976927304 25.21973997436367 25.197765976927304 25.197765976927304 25.197765976927304 25.197765976927304 25.197765976927304 25.197765976927304 25.197765976927304 25.197765976927304 25.197765976927304 25.197765976927304 25.197765976927304 25.197765976927304 25.197765976927304 25.175791979490935 25.175791979490935 25.197765976927304 25.175791979490935 25.197765976927304 25.197765976927304 25.197765976927304 25.197765976927304 25.197765976927304 25.197765976927304 25.175791979490935 25.175791979490935 25.175791979490935 25.175791979490935 25.175791979490935 25.175791979490935 25.15381798205457 25.175791979490935 25.175791979490935 25.175791979490935 25.175791979490935 25.175791979490935 25.175791979490935 25.15381798205457 25.175791979490935 25.175791979490935 25.175791979490935 25.175791979490935 25.175791979490935 25.175791979490935 25.15381798205457 25.175791979490935 25.175791979490935 25.15381798205457 25.15381798205457 25.15381798205457 25.175791979490935 25.175791979490935 25.15381798205457 25.175791979490935 25.175791979490935 25.15381798205457 25.15381798205457 25.15381798205457 25.15381798205457 25.175791979490935 25.15381798205457 25.175791979490935 25.15381798205457 25.175791979490935 25.15381798205457 25.175791979490935 25.15381798205457 25.15381798205457 25.175791979490935 25.175791979490935 25.175791979490935 25.15381798205457 25.175791979490935 25.175791979490935 25.175791979490935 25.175791979490935 25.175791979490935 25.175791979490935 25.175791979490935 25.175791979490935 25.175791979490935 25.175791979490935 25.175791979490935 25.175791979490935 25.175791979490935 25.175791979490935 25.175791979490935 25.175791979490935 25.175791979490935 25.175791979490935 25.175791979490935 25.175791979490935 25.175791979490935 25.175791979490935 25.175791979490935 25.175791979490935 25.175791979490935 25.175791979490935 25.175791979490935 25.197765976927304 25.197765976927304 25.197765976927304 25.197765976927304 25.197765976927304 25.197765976927304 25.21973997436367 25.197765976927304 25.197765976927304 25.197765976927304 25.21973997436367 25.21973997436367 25.21973997436367 25.21973997436367 25.241713971800035 25.241713971800035 25.263687969236404 25.28566196667277 25.329609961545504 25.35158395898187 25.37355795641824 25.417505951290973 25.483427943600073 25.527375938472808 25.593297930781908 25.65921992309101 25.72514191540011 25.856985900018312 25.944881889763778 26.01080388207288 26.098699871818347 26.23054385643655 26.36238784105475 26.494231825672955 26.911737776963925 27.373191723127633 27.724775682109502 28.05438564365501 28.427943600073245 29.021241530855153 29.878227430873466 30.317707379600805 30.976927302691813 31.87786119758286 32.1195751693829 32.55905511811024 33.262223036073976 33.92144295916499 34.55868888481963 34.9761948361106 35.61344076176525 36.250686687419886 36.931880607947264 37.65702252334737 38.25032045412928 38.75572239516572 39.39296832082036 39.920344259293174 40.73338216443875 41.85405603369347 42.42537996703901 43.106573887566384 43.590001831166454 44.46896172862113 45.41384361838491 46.292803515839594 47.215711408167 48.13861930049441 48.75389122871269 49.39113715436733 50.138253067203806 50.86339498260392 51.52261490569492 51.96209485442226 52.59934078007691 53.214612708295185 53.654092657022524 54.269364585240794 55.12635048525911 55.43398644936825 55.983336385277426 56.422816334004764 57.060062259659404 57.89507416224135 58.51034609045962 58.9278520417506 59.14759201611427 59.982603918696206 60.575901849478115 60.97143380333272 61.54275773667826 61.9163156930965 62.55356161875115 62.86119758286028 63.146859549533055 63.542391503387655 63.89397546236953 64.1137154367332 64.3774034059696 64.53122138802416 64.72898736495148 64.86083134956968 64.94872733931514 65.0366233290606 65.05859732649698 65.08057132393334 65.08057132393334 65.08057132393334 65.08057132393334 65.08057132393334 65.05859732649698 65.05859732649698 65.0366233290606 65.0366233290606 65.0366233290606 65.0366233290606 65.0366233290606 65.0366233290606 65.0366233290606 65.0366233290606 65.0366233290606 65.0366233290606 65.0366233290606 65.0366233290606 65.0366233290606 65.01464933162424 65.01464933162424 65.01464933162424 64.99267533418788 64.99267533418788 64.94872733931514 64.94872733931514 64.92675334187878 64.9047793444424 64.9047793444424 64.88280534700604 64.88280534700604 64.88280534700604 64.86083134956968 64.86083134956968 64.86083134956968 64.86083134956968 64.83885735213332 64.86083134956968 64.83885735213332 64.86083134956968 64.83885735213332 64.86083134956968 64.81688335469694 64.79490935726056 64.79490935726056 64.7729353598242 64.75096136238784 64.72898736495148 64.70701336751512 64.68503937007874 64.66306537264236 64.61911737776964 64.59714338033328 64.5751693828969 64.53122138802416 64.5092473905878 64.5092473905878 64.5092473905878 64.5092473905878 64.5092473905878 64.5092473905878 64.5092473905878 64.48727339315144 64.48727339315144 64.46529939571508 64.46529939571508 64.4433253982787 64.42135140084233 64.39937740340596 64.3774034059696 64.3774034059696 64.33345541109688 64.35542940853324 64.33345541109688 64.33345541109688 64.33345541109688 64.33345541109688 64.33345541109688 64.33345541109688 64.33345541109688 64.33345541109688 64.35542940853324 64.33345541109688 64.33345541109688 64.33345541109688 64.33345541109688 64.33345541109688 64.33345541109688 64.3114814136605 64.33345541109688 64.3114814136605 64.3114814136605 64.28950741622413 64.3114814136605 64.3114814136605 64.3114814136605 64.3114814136605 64.28950741622413 64.3114814136605 64.3114814136605 64.3114814136605 64.3114814136605 64.3114814136605 64.3114814136605 64.3114814136605 64.3114814136605 64.3114814136605 64.3114814136605 64.28950741622413 64.28950741622413 64.28950741622413 64.28950741622413 64.28950741622413 64.28950741622413 64.28950741622413 64.26753341878776 64.28950741622413 64.28950741622413 64.28950741622413 64.28950741622413 64.26753341878776 64.26753341878776 64.26753341878776 64.26753341878776 64.26753341878776 64.2455594213514 64.2455594213514 64.26753341878776 64.2455594213514 64.2455594213514 64.26753341878776 64.2455594213514 64.26753341878776 64.26753341878776 64.26753341878776 64.28950741622413 64.28950741622413 64.28950741622413 64.3114814136605 64.3114814136605 64.3114814136605 64.3114814136605 64.3114814136605 64.3114814136605 64.3114814136605 64.28950741622413 64.28950741622413 64.28950741622413 64.28950741622413 64.28950741622413 64.28950741622413 64.28950741622413 64.28950741622413 64.28950741622413 64.26753341878776 64.22358542391504 64.1796374290423 64.09174143929684 64.04779344442409 64.00384544955136 63.89397546236953 63.80607947262406 63.630287493133125 63.366599523896724 63.212781541842155 62.905145577733016 62.707379600805716 62.53158762131478 62.33382164438748 62.09210767258744 61.67460172129647 61.47683574436916 61.21314777513276 60.88353781358725 60.641823841787215 60.26826588536898 59.960629921259844 59.587071964841606 59.1256180186779 58.81798205456876 58.33455411096869 57.85112616736861 57.323750228895804 56.9941402673503 56.664530305804796 55.983336385277426 55.45596044680461 55.08240249038637 54.48910455960447 53.87383263138619 53.412378685222485 52.423548800585976 52.0719648416041 51.41274491851309 50.62168101080388 50.116279069767444 49.12744918513093 48.66599523896723 48.16059329793078 47.47939937740341 47.017945431239696 46.314777513275956 45.65555759018495 44.99633766709394 44.33711774400293 43.831715802966485 43.48013184398462 42.798937923457245 42.40340596960264 41.76616004394799 40.953122138802414 40.601538179820544 40.052188243911374 39.546786302874935 39.173228346456696 38.62387841054752 38.29426844900202 37.78886650796557 37.28346456692913 36.931880607947264 36.470426661783556 35.89910272843802 35.59146676432888 35.32777879509247 34.88829884636513 34.60263687969236 34.18513092840139 33.767624977110415 33.306171030946714 32.998535066837576 32.53708112067387 32.09760117194653 31.81193920527376 31.50430324116462 30.889031312946347 30.51547335652811 29.966123420618935 29.41677348470976 27.548983702618568 26.67002380516389 26.45028383080022 26.42830983336385 26.054751876945616 25.747115912836477 25.329609961545504 25.30763596410914 25.109869987181835 25.0 24.978026002563634 24.91210401025453 24.8681560153818 24.802234023072696 24.802234023072696 24.78026002563633 24.78026002563633 24.736312030763596 24.71433803332723 24.62644204358176 24.604468046145396 24.538546053836292 24.69236403589086 24.69236403589086 24.64841604101813 24.538546053836292 24.472624061527192 24.296832082036257 24.164988097418057 24.164988097418057 24.186962094854422 24.208936092290788 25.109869987181835 25.900933894891047 26.01080388207288 26.01080388207288 26.01080388207288 25.966855887200147 25.944881889763778 25.922907892327412 25.900933894891047 25.878959897454678 25.878959897454678 25.856985900018312 25.835011902581943 25.813037905145578 25.769089910272843 25.747115912836477 25.703167917963743 25.703167917963743 25.681193920527377 25.65921992309101 25.637245925654643 25.615271928218274 25.571323933345543 25.549349935909174 25.549349935909174 25.527375938472808 25.50540194103644 25.50540194103644 25.50540194103644 25.483427943600073 25.461453946163708 25.461453946163708 25.43947994872734 25.43947994872734 25.43947994872734 25.43947994872734 25.43947994872734 25.417505951290973 25.417505951290973 25.417505951290973 25.417505951290973 25.417505951290973 25.417505951290973 25.417505951290973 25.417505951290973 25.395531953854604 25.37355795641824 25.37355795641824 25.37355795641824 25.35158395898187 25.35158395898187 25.35158395898187 25.35158395898187 25.35158395898187 25.329609961545504 25.329609961545504 25.329609961545504 25.329609961545504 25.35158395898187 25.329609961545504 25.329609961545504 25.329609961545504 25.329609961545504 25.329609961545504 25.329609961545504 25.329609961545504 25.329609961545504 25.329609961545504 25.329609961545504 25.329609961545504 25.30763596410914 25.30763596410914 25.30763596410914 25.30763596410914 25.30763596410914 25.30763596410914 25.30763596410914 25.30763596410914 25.30763596410914 25.30763596410914 25.30763596410914 25.30763596410914 25.30763596410914 25.30763596410914 25.30763596410914 25.30763596410914 25.30763596410914 25.30763596410914 25.30763596410914 25.30763596410914 25.30763596410914 25.30763596410914 25.30763596410914 25.30763596410914 25.30763596410914 25.30763596410914 25.30763596410914 25.30763596410914 25.30763596410914 25.30763596410914 25.30763596410914 25.30763596410914 25.28566196667277 25.30763596410914 25.30763596410914 25.30763596410914 25.30763596410914 25.30763596410914 25.30763596410914 25.30763596410914 25.30763596410914 25.30763596410914 25.30763596410914 25.28566196667277 25.28566196667277 25.28566196667277 25.30763596410914 25.30763596410914 25.30763596410914 25.30763596410914 25.30763596410914 25.28566196667277 25.30763596410914 25.28566196667277 25.28566196667277 25.28566196667277 25.30763596410914 25.28566196667277 25.28566196667277 25.28566196667277 25.28566196667277 25.28566196667277 25.28566196667277 25.28566196667277 25.28566196667277 25.28566196667277 25.28566196667277 25.263687969236404 25.263687969236404 25.263687969236404 25.263687969236404 25.263687969236404 25.263687969236404 25.263687969236404 25.241713971800035 25.263687969236404 25.241713971800035 25.241713971800035 25.241713971800035 25.241713971800035 25.241713971800035 25.241713971800035 25.241713971800035 25.241713971800035 25.241713971800035 25.21973997436367 25.21973997436367 25.21973997436367 25.21973997436367 25.21973997436367 25.21973997436367 25.21973997436367 25.21973997436367 25.21973997436367 25.21973997436367 25.21973997436367 25.21973997436367 25.21973997436367 25.21973997436367 25.21973997436367 25.21973997436367 25.21973997436367 25.21973997436367 25.21973997436367 25.21973997436367 25.197765976927304 25.21973997436367 25.197765976927304 25.197765976927304 25.197765976927304 25.197765976927304 25.197765976927304 25.197765976927304 25.197765976927304 25.197765976927304 25.197765976927304 25.197765976927304 25.197765976927304 25.197765976927304 25.197765976927304 25.197765976927304 25.175791979490935 25.175791979490935 25.197765976927304 25.197765976927304 25.175791979490935 25.175791979490935 25.175791979490935 25.175791979490935 25.175791979490935 25.175791979490935 25.175791979490935 25.175791979490935 25.175791979490935 25.175791979490935 25.175791979490935 25.175791979490935 25.175791979490935 25.175791979490935 25.175791979490935 25.175791979490935 25.175791979490935 25.175791979490935 25.15381798205457 25.175791979490935 25.175791979490935 25.175791979490935 25.175791979490935 25.175791979490935 25.175791979490935 25.175791979490935 25.175791979490935 25.175791979490935 25.15381798205457 25.175791979490935 25.175791979490935 25.175791979490935 25.175791979490935 25.175791979490935 25.175791979490935 25.175791979490935 25.175791979490935 25.175791979490935 25.175791979490935 25.175791979490935 25.197765976927304 25.197765976927304 25.197765976927304 25.197765976927304 25.197765976927304 25.21973997436367 25.21973997436367 25.241713971800035 25.241713971800035 25.28566196667277 25.30763596410914 25.329609961545504 25.37355795641824 25.461453946163708 25.527375938472808 25.637245925654643 25.72514191540011 25.922907892327412 26.032777879509247 26.14264786669108 26.318439846182017 26.494231825672955 26.626075810291155 26.867789782091194 26.999633766709394 27.263321735945798 27.614905694927668 27.856619666727706 28.16425563083684 28.91137154367332 29.306903497527927 29.944149423182566 30.36165537447354 30.976927302691813 31.57022523347372 32.1195751693829 32.49313312580114 32.88866507965574 33.503937007874015 34.16315693096502 34.62461087712873 35.76725874381981 36.22871268998352 36.690166636147225 37.393334554110965 37.635048525911 38.29426844900202 39.19520234389306 39.6346822926204 40.29390221571141 40.93114814136605 41.37062809009339 41.81010803882073 42.42537996703901 43.08459989013001 43.787767808093754 44.2931697491302 45.0842336568394 45.78740157480315 46.292803515839594 47.083867423548796 47.80900933894891 48.35835927485809 49.105475187694566 49.676799121040105 50.55575901849478 51.65445889031313 52.22578282365867 52.797106757004215 53.280534700604285 53.98370261856803 54.6648965390954 55.06042849295001 55.82951840322285 56.400842336568395 56.7304522981139 57.30177623145944 57.67533418787768 58.20271012635048 58.73008606482329 59.0596960263688 59.521149972532506 59.938655923823475 60.202343893059876 60.663797839223584 60.86156381615089 61.08130379051456 61.32301776231459 61.54275773667826 61.6526277238601 61.7185497161692 61.82841970335103 61.8503937007874 61.8503937007874 61.8503937007874 61.8503937007874 61.8503937007874 61.8503937007874 61.8503937007874 61.8503937007874 61.8503937007874 61.82841970335103 61.8503937007874 61.8503937007874 61.8503937007874 61.89434169566014 61.93828969053287 61.96026368796924 62.00421168284197 62.02618568027834 62.02618568027834 62.0481596777147 62.09210767258744 62.13605566746017 62.15802966489654 62.20197765976927 62.24592565464201 62.26789965207837 62.28987364951474 62.31184764695111 62.33382164438748 62.39974363669658 62.42171763413294 62.487639626442046 62.487639626442046 62.50961362387841 62.53158762131478 62.53158762131478 62.53158762131478 62.53158762131478 62.55356161875115 62.55356161875115 62.55356161875115 62.55356161875115 62.55356161875115 62.55356161875115 62.55356161875115 62.55356161875115 62.55356161875115 62.55356161875115 62.55356161875115 62.55356161875115 62.55356161875115 62.55356161875115 62.55356161875115 62.55356161875115 62.55356161875115 62.55356161875115 62.53158762131478 62.55356161875115 62.55356161875115 62.55356161875115 62.53158762131478 62.53158762131478 62.53158762131478 62.53158762131478 62.53158762131478 62.53158762131478 62.53158762131478 62.50961362387841 62.50961362387841 62.50961362387841 62.487639626442046 62.50961362387841 62.487639626442046 62.487639626442046 62.487639626442046 62.487639626442046 62.487639626442046 62.487639626442046 62.46566562900568 62.46566562900568 62.46566562900568 62.46566562900568 62.44369163156931 62.44369163156931 62.42171763413294 62.39974363669658 62.39974363669658 62.37776963926021 62.35579564182384 62.35579564182384 62.35579564182384 62.35579564182384 62.35579564182384 62.35579564182384 62.35579564182384 62.33382164438748 62.33382164438748 62.31184764695111 62.28987364951474 62.28987364951474 62.26789965207837 62.26789965207837 62.24592565464201 62.22395165720564 62.22395165720564 62.22395165720564 62.20197765976927 62.18000366233291 62.15802966489654 62.13605566746017 62.11408167002381 62.09210767258744 62.07013367515107 62.07013367515107 62.0481596777147 62.0481596777147 62.02618568027834 62.02618568027834 62.02618568027834 62.02618568027834 62.02618568027834 62.02618568027834 62.02618568027834 62.02618568027834 62.02618568027834 62.02618568027834 62.02618568027834 62.02618568027834 62.02618568027834 62.02618568027834 62.02618568027834 62.02618568027834 62.02618568027834 62.02618568027834 62.02618568027834 62.02618568027834 62.02618568027834 62.02618568027834 62.0481596777147 62.0481596777147 62.0481596777147 62.02618568027834 62.02618568027834 62.02618568027834 62.02618568027834 62.0481596777147 62.02618568027834 62.02618568027834 62.00421168284197 61.9822376854056 61.96026368796924 61.93828969053287 61.89434169566014 61.87236769822377 61.82841970335103 61.80644570591467 61.7844717084783 61.74052371360557 61.7185497161692 61.6526277238601 61.63065372642373 61.60867972898736 61.586705731551 61.56473173411463 61.54275773667826 61.5207837392419 61.49880974180553 61.47683574436916 61.47683574436916 61.47683574436916 61.45486174693279 61.43288774949643 61.43288774949643 61.43288774949643 61.43288774949643 61.43288774949643 61.43288774949643 61.43288774949643 61.43288774949643 61.43288774949643 61.41091375206006 61.41091375206006 61.41091375206006 61.38893975462369 61.38893975462369 61.36696575718733 61.34499175975096 61.32301776231459 61.30104376487823 61.27906976744186 61.27906976744186 61.25709577000549 61.23512177256912 61.23512177256912 61.23512177256912 61.23512177256912 61.23512177256912 61.23512177256912 61.23512177256912 61.21314777513276 61.12525178538729 61.01538179820545 60.75169382896905 60.61984984435085 60.444057864859914 60.290239882805345 60.004577916132575 59.674967954587075 59.47720197765977 59.16956601355063 58.70811206738693 58.48837209302326 58.24665812122322 57.96099615455045 57.609412195568574 57.191906244277604 56.9282182750412 56.488738326313864 56.049258377586526 55.71964841604102 55.08240249038637 54.86266251602271 54.42318256729537 53.91778062625893 53.368430690349754 52.841054751876946 52.2697308185314 52.09393883904047 51.25892693645852 50.88536898004028 50.40194103644021 49.479033144112805 49.01757919794909 48.29243728254899 47.58926936458524 47.10584142098517 46.44662149789416 46.00714154916682 45.41384361838491 44.79857169016664 44.40303973631203 43.87566379783922 43.304339864493684 42.864859915766345 42.40340596960264 42.20563999267533 41.83208203625709 41.43655008240249 41.17286211316609 40.601538179820544 40.315876213147774 39.854422266984066 39.41494231825673 39.12928035158396 38.75572239516572 38.09650247207471 37.7668925105292 37.34938655923823 37.041750595129095 36.624244643838125 36.07489470792895 35.89910272843802 35.59146676432888 35.28383080021974 35.08606482329244 34.8443508514924 34.69053286943783 34.38289690532869 34.11920893609229 34.009338948910454 33.789598974546784 33.54788500274675 33.372093023255815 33.108405054019414 32.97656106940121 32.712873100164806 32.42721113349204 32.2514191540011 31.987731184764694 31.702069218091925 31.46035524629189 31.174693279619117 30.86705731550998 30.669291338582678 30.36165537447354 30.163889397546235 29.8562534334371 29.570591466764327 29.372825489837027 29.087163523164257 28.889397546236953 28.515839589818714 28.18622962827321 28.16425563083684 28.076359641091376 27.96648965390954 27.856619666727706 27.724775682109502 27.636879692364037 27.548983702618568 27.461087712873102 27.417139718000367 27.351217725691264 27.285295733382164 27.219373741073063 27.153451748763963 27.087529756454863 26.999633766709394 26.88976377952756 26.845815784654825 26.757919794909355 26.691997802600255 26.58212781541842 26.472257828236586 26.36238784105475 26.29646584874565 26.164621864127447 26.054751876945616 25.988829884636512 25.944881889763778 25.878959897454678 25.835011902581943 25.791063907709212 25.747115912836477 25.703167917963743 25.65921992309101 25.593297930781908 25.571323933345543 25.527375938472808 25.527375938472808 25.50540194103644 25.483427943600073 25.43947994872734 25.43947994872734 25.417505951290973 25.417505951290973 25.395531953854604 25.395531953854604 25.37355795641824 25.35158395898187 25.35158395898187 25.35158395898187 25.329609961545504 25.329609961545504 25.30763596410914 25.30763596410914 25.30763596410914 25.30763596410914 25.28566196667277 25.28566196667277 25.28566196667277 25.263687969236404 25.263687969236404 25.263687969236404 25.263687969236404 25.263687969236404 25.241713971800035 25.241713971800035 25.241713971800035 25.241713971800035 25.241713971800035 25.241713971800035 25.21973997436367 25.21973997436367 25.21973997436367 25.197765976927304 25.197765976927304 25.197765976927304 25.197765976927304 25.197765976927304 25.197765976927304 25.197765976927304 25.175791979490935 25.197765976927304 25.175791979490935 25.175791979490935 25.175791979490935 25.175791979490935 25.175791979490935 25.175791979490935 25.175791979490935 25.175791979490935 25.175791979490935 25.175791979490935 25.15381798205457 25.15381798205457 25.15381798205457 25.15381798205457 25.15381798205457 25.15381798205457 25.15381798205457 25.15381798205457 25.15381798205457 25.15381798205457 25.15381798205457 25.15381798205457 25.15381798205457 25.15381798205457 25.15381798205457 25.1318439846182 25.1318439846182 25.1318439846182 25.1318439846182 25.1318439846182 25.1318439846182 25.15381798205457 25.1318439846182 25.1318439846182 25.1318439846182 25.15381798205457 25.1318439846182 25.1318439846182 25.1318439846182 25.1318439846182 25.1318439846182 25.1318439846182 25.1318439846182 25.1318439846182 25.15381798205457 25.15381798205457 25.1318439846182 25.1318439846182 25.1318439846182 25.1318439846182 25.1318439846182 25.1318439846182 25.1318439846182 25.1318439846182 25.1318439846182 25.1318439846182 25.1318439846182 25.1318439846182 25.1318439846182 25.1318439846182 25.15381798205457 25.1318439846182 25.1318439846182 25.1318439846182 25.15381798205457 25.1318439846182 25.15381798205457 25.15381798205457 25.1318439846182 25.1318439846182 25.1318439846182 25.1318439846182 25.1318439846182 25.1318439846182 25.1318439846182 25.15381798205457 25.1318439846182 25.1318439846182 25.1318439846182 25.15381798205457 25.15381798205457 25.15381798205457 25.15381798205457 25.15381798205457 25.15381798205457 25.15381798205457 25.15381798205457 25.15381798205457 25.15381798205457 25.15381798205457 25.15381798205457 25.15381798205457 25.175791979490935 25.15381798205457 25.15381798205457 25.175791979490935 25.15381798205457 25.15381798205457 25.175791979490935 25.15381798205457 25.15381798205457 25.15381798205457 25.15381798205457 25.175791979490935 25.15381798205457 25.15381798205457 25.15381798205457 25.15381798205457 25.15381798205457 25.15381798205457 25.15381798205457 25.15381798205457 25.15381798205457 25.175791979490935 25.15381798205457 25.15381798205457 25.15381798205457 25.175791979490935 25.175791979490935 25.15381798205457 25.15381798205457 25.15381798205457 25.15381798205457 25.15381798205457 25.175791979490935 25.15381798205457 25.15381798205457 25.15381798205457 25.15381798205457 25.175791979490935 25.15381798205457 25.15381798205457 25.175791979490935 25.175791979490935 25.175791979490935 25.175791979490935 25.175791979490935 25.15381798205457 25.15381798205457 25.175791979490935 25.175791979490935 25.175791979490935 25.15381798205457 25.15381798205457 25.15381798205457 25.15381798205457 25.15381798205457 25.15381798205457 25.15381798205457 25.15381798205457 25.15381798205457 25.175791979490935 25.175791979490935 25.175791979490935 25.175791979490935 25.15381798205457 25.175791979490935 25.15381798205457 25.15381798205457 25.175791979490935 25.175791979490935 25.175791979490935 25.175791979490935 25.175791979490935 25.175791979490935 25.175791979490935 25.175791979490935 25.175791979490935 25.197765976927304 25.175791979490935 25.197765976927304 25.197765976927304 25.21973997436367 25.241713971800035 25.241713971800035 25.241713971800035 25.241713971800035 25.263687969236404 25.241713971800035 25.263687969236404 25.28566196667277 25.30763596410914 25.329609961545504 25.35158395898187 25.35158395898187 25.37355795641824 25.417505951290973 25.483427943600073 25.549349935909174 25.637245925654643 25.791063907709212 25.944881889763778 26.054751876945616 26.318439846182017 26.58212781541842 26.757919794909355 26.999633766709394 27.285295733382164 27.790697674418606 28.581761582127815 29.021241530855153 29.724409448818896 30.471525361655374 30.998901300128182 31.81193920527376 32.36128914118294 33.174327046328514 34.03131294634682 34.60263687969236 35.43764878227431 36.294634682292624 37.08569859000183 37.65702252334737 38.16242446438381 38.88756637978392 39.612708295184035 40.074162241347736 40.77733015931148 41.63431605932979 42.07379600805713 42.75498992858451 43.216443874748215 43.721845815784654 44.6227797106757 45.12818165171214 45.919245559421356 46.71030946713056 47.2816334004761 48.16059329793078 48.77586522614906 49.676799121040105 50.577733015931145 51.17103094671306 52.291704815967776 52.59934078007691 53.324482695477016 54.37923457242263 54.81871452114997 55.43398644936825 56.15912836476836 56.950192272477565 57.63138619300494 58.00494414942318 58.81798205456876 59.718915949459806 59.938655923823475 60.422083867423545 61.25709577000549 61.67460172129647 62.50961362387841 62.72935359824208 63.322651529023986 63.93792345724226 64.35542940853324 64.94872733931514 65.5859732649698 65.9815052188244 66.59677714704267 67.03625709577 67.80534700604285 68.20087895989745 68.61838491118843 69.21168284197034 69.78300677531587 70.35433070866142 70.85973264969786 71.18934261124336 71.6288225599707 72.04632851126168 72.26606848562534 72.55173045229812 72.74949642922542 72.85936641640725 72.94726240615272 73.01318439846182 73.05713239333456 73.16700238051638 73.21095037538913 73.34279436000733 73.4966123420619 73.6284563266801 73.78227430873466 73.93609229078925 74.0239882805347 74.13385826771653 74.15583226515291 74.22175425746201 74.26570225233473 74.30965024720747 74.35359824208021 74.37557223951657 74.39754623695293 74.44149423182567 74.46346822926205 74.50741622413477 74.52939022157113 74.57333821644387 74.57333821644387 74.61728621131661 74.61728621131661 74.61728621131661 74.63926020875297 74.61728621131661 74.63926020875297 74.61728621131661 74.61728621131661 74.61728621131661 74.55136421900751 74.48544222669841 74.44149423182567 74.37557223951657 74.33162424464385 74.24372825489837 74.11188427028017 74.0239882805347 73.8921442959165 73.71635231642557 73.60648232924373 73.4306903497528 73.29884636513458 73.16700238051638 72.99121040102546 72.90331441127998 72.74949642922542 72.61765244460722 72.52975645486175 72.35396447537082 72.31001648049809 72.13422450100714 72.06830250869804 72.00238051638894 71.8925105292071 71.80461453946164 71.7606665445889 71.71671854971618 71.69474455227981 71.65079655740706 71.56290056766161 71.54092657022522 71.51895257278886 71.4969785753525 71.47500457791614 71.45303058047976 71.4310565830434 71.38710858817066 71.3651345907343 71.34316059329794 71.2992125984252 71.25526460355246 71.2332906061161 71.18934261124336 71.14539461637062 71.1014466214979 71.05749862662516 71.0355246291888 71.01355063175242 70.99157663431606 70.9696026368797 70.9696026368797 70.94762863944334 70.92565464200696 70.9036806445706 70.85973264969786 70.8377586522615 70.77183665995238 70.74986266251602 70.68394067020692 70.66196667277055 70.61801867789782 70.57407068302508 70.55209668558872 70.53012268815235 70.50814869071598 70.48617469327962 70.44222669840688 70.44222669840688 70.44222669840688 70.42025270097052 70.42025270097052 70.39827870353415 70.39827870353415 70.37630470609778 70.35433070866142 70.33235671122506 70.31038271378868 70.26643471891595 70.26643471891595 70.24446072147958 70.22248672404322 70.20051272660686 70.20051272660686 70.17853872917048 70.17853872917048 70.17853872917048 70.17853872917048 70.17853872917048 70.17853872917048 70.17853872917048 70.17853872917048 70.17853872917048 70.17853872917048 70.15656473173412 70.13459073429775 70.13459073429775 70.13459073429775 70.09064273942502 70.09064273942502 70.09064273942502 70.09064273942502 70.09064273942502 70.09064273942502 70.09064273942502 70.09064273942502 70.09064273942502 70.09064273942502 70.09064273942502 70.09064273942502 70.09064273942502 70.09064273942502 70.09064273942502 70.09064273942502 70.09064273942502 70.09064273942502 70.09064273942502 70.09064273942502 70.09064273942502 70.09064273942502 70.11261673686138 70.11261673686138 70.11261673686138 70.13459073429775 70.11261673686138 70.11261673686138 70.13459073429775 70.13459073429775 70.13459073429775 70.15656473173412 70.13459073429775 70.13459073429775 70.13459073429775 70.13459073429775 70.13459073429775 70.13459073429775 70.13459073429775 70.13459073429775 70.13459073429775 70.13459073429775 70.13459073429775 70.13459073429775 70.13459073429775 70.15656473173412 70.13459073429775 70.15656473173412 70.15656473173412 70.13459073429775 70.13459073429775 70.13459073429775 70.13459073429775 70.13459073429775 70.13459073429775 70.13459073429775 70.11261673686138 70.11261673686138 70.11261673686138 70.11261673686138 70.11261673686138 70.09064273942502 70.09064273942502 70.09064273942502 70.09064273942502 70.09064273942502 70.06866874198866 70.04669474455227 70.02472074711591 70.02472074711591 70.00274674967955 70.00274674967955 70.00274674967955 69.98077275224318 69.98077275224318 69.95879875480682 69.93682475737045 69.91485075993407 69.8928767624977 69.84892876762498 69.8269547701886 69.78300677531587 69.71708478300678 69.65116279069767 69.6291887932613 69.5632668009522 69.47537081120674 69.3655008240249 69.27760483427943 69.18970884453397 69.05786485991577 68.90404687786119 68.79417689067935 68.59641091375207 68.20087895989745 67.95916498809743 67.60758102911555 67.34389305987915 66.99230910089727 66.55282915216993 66.3111151803699 66.13532320087896 65.76176524446072 65.65189525727888 65.41018128547884 65.23438930598792 64.92675334187878 64.66306537264236 64.48727339315144 64.28950741622413 63.981871452114994 63.784105475187694 63.476469511078555 63.124885552096686 62.79527559055118 62.31184764695111 62.07013367515107 61.82841970335103 61.47683574436916 61.25709577000549 60.92748580845999 60.68577183665995 60.378135872550814 60.004577916132575 59.76286394433254 59.34535799304157 58.90587804431423 58.57626808276872 58.04889214429592 57.71928218275041 57.169932246841235 56.598608313495696 56.00531038271379 55.60977842885919 55.21424647500458 54.42318256729537 53.829884636513455 53.566196667277055 52.841054751876946 52.31367881340414 51.91814685954954 51.34682292620399 50.95129097234938 50.40194103644021 49.874565097967405 49.50100714154917 48.97363120307636 48.44625526460355 48.07269730818531 47.54532136971251 47.039919428676065 46.64438747482146 46.182933528657756 45.65555759018495 45.17212964658488 44.820545687603 44.31514374656656 43.96355978758469 43.67789782091192 43.216443874748215 42.60117194652994 42.293535982420806 41.85405603369347 41.43655008240249 41.15088811572972 40.75535616187511 40.49166819263871 40.074162241347736 39.678630287493135 39.4369163156931 39.06335835927486 38.53598242080205 38.25032045412928 37.94268449002014 37.61307452847464 37.1076725874382 36.602270646401756 36.07489470792895 35.54751876945615 34.9761948361106 34.58066288225599 33.98736495147409 33.789598974546784 33.262223036073976 32.55905511811024 32.22944515656473 31.767991210401025 31.262589269364586 30.932979307819082 30.251785387291704 29.966123420618935 29.592565464200696 29.021241530855153 28.581761582127815 27.68082768723677 27.263321735945798 26.67002380516389 26.274491851309286 25.900933894891047 25.615271928218274 25.549349935909174 25.417505951290973 25.30763596410914 25.197765976927304 25.08789598974547 24.956052005127265 24.91210401025453 24.736312030763596 24.604468046145396 24.516572056399927 24.472624061527192 24.384728071781726 24.164988097418057 24.033144112799853 23.945248123054384 23.92327412561802 23.901300128181653 23.879326130745284 23.76945614356345 23.725508148690714 23.659586156381614 23.63761215894525 23.659586156381614 23.747482146127084 24.033144112799853 25.0 25.615271928218274 25.703167917963743 25.813037905145578 25.878959897454678 25.900933894891047 25.878959897454678 25.878959897454678 25.900933894891047 25.878959897454678 25.878959897454678 25.878959897454678 25.878959897454678 25.878959897454678 25.856985900018312 25.835011902581943 25.813037905145578 25.791063907709212 25.747115912836477 25.72514191540011 25.703167917963743 25.65921992309101 25.637245925654643 25.593297930781908 25.593297930781908 25.527375938472808 25.50540194103644 25.461453946163708 25.43947994872734 25.43947994872734 25.417505951290973 25.417505951290973 25.417505951290973 25.395531953854604 25.395531953854604 25.37355795641824 25.35158395898187 25.35158395898187 25.35158395898187 25.35158395898187 25.35158395898187 25.329609961545504 25.329609961545504 25.30763596410914 25.30763596410914 25.30763596410914 25.30763596410914 25.28566196667277 25.28566196667277 25.28566196667277 25.28566196667277 25.28566196667277 25.263687969236404 25.263687969236404 25.263687969236404 25.263687969236404 25.263687969236404 25.241713971800035 25.241713971800035 25.241713971800035 25.241713971800035 25.21973997436367 25.21973997436367 25.21973997436367 25.21973997436367 25.21973997436367 25.197765976927304 25.197765976927304 25.21973997436367 25.21973997436367 25.21973997436367 25.197765976927304 25.197765976927304 25.197765976927304 25.197765976927304 25.197765976927304 25.197765976927304 25.197765976927304 25.197765976927304 25.197765976927304 25.175791979490935 25.197765976927304 25.175791979490935 25.175791979490935 25.175791979490935 25.175791979490935 25.175791979490935 25.175791979490935 25.175791979490935 25.175791979490935 25.175791979490935 25.175791979490935 25.175791979490935 25.175791979490935 25.175791979490935 25.15381798205457 25.15381798205457 25.15381798205457 25.15381798205457 25.15381798205457 25.175791979490935 25.15381798205457 25.15381798205457 25.15381798205457 25.15381798205457 25.15381798205457 25.15381798205457 25.15381798205457 25.15381798205457 25.15381798205457 25.15381798205457 25.15381798205457 25.15381798205457 25.15381798205457 25.15381798205457 25.15381798205457 25.15381798205457 25.15381798205457 25.15381798205457 25.15381798205457 25.15381798205457 25.15381798205457 25.1318439846182 25.15381798205457 25.15381798205457 25.15381798205457 25.15381798205457 25.15381798205457 25.1318439846182 25.1318439846182 25.1318439846182 25.15381798205457 25.15381798205457 25.1318439846182 25.1318439846182 25.1318439846182 25.1318439846182 25.1318439846182 25.1318439846182 25.1318439846182 25.1318439846182 25.1318439846182 25.1318439846182 25.1318439846182 25.1318439846182 25.1318439846182 25.1318439846182 25.1318439846182 25.1318439846182 25.1318439846182 25.1318439846182 25.1318439846182 25.1318439846182 25.1318439846182 25.1318439846182 25.1318439846182 25.1318439846182 25.109869987181835 25.1318439846182 25.1318439846182 25.109869987181835 25.109869987181835 25.109869987181835 25.109869987181835 25.109869987181835 25.109869987181835 25.109869987181835 25.109869987181835 25.109869987181835 25.109869987181835 25.109869987181835 25.109869987181835 25.109869987181835 25.109869987181835 25.109869987181835 25.109869987181835 25.109869987181835 25.109869987181835 25.109869987181835 25.109869987181835 25.109869987181835 25.109869987181835 25.109869987181835 25.109869987181835 25.109869987181835 25.109869987181835 25.109869987181835 25.08789598974547 25.109869987181835 25.109869987181835 25.109869987181835 25.109869987181835 25.109869987181835 25.109869987181835 25.109869987181835 25.109869987181835 25.109869987181835 25.08789598974547 25.08789598974547 25.08789598974547 25.08789598974547 25.08789598974547 25.08789598974547 25.08789598974547 25.08789598974547 25.08789598974547 25.08789598974547 25.08789598974547 25.08789598974547 25.08789598974547 25.08789598974547 25.08789598974547 25.08789598974547 25.08789598974547 25.08789598974547 25.08789598974547 25.08789598974547 25.08789598974547 25.08789598974547 25.0659219923091 25.0659219923091 25.08789598974547 25.0659219923091 25.0659219923091 25.0659219923091 25.0659219923091 25.0659219923091 25.0659219923091 25.0659219923091 25.0659219923091 25.0659219923091 25.0659219923091 25.0659219923091 25.0659219923091 25.043947994872735 25.043947994872735 25.043947994872735 25.043947994872735 25.043947994872735 25.043947994872735 25.043947994872735 25.043947994872735 25.043947994872735 25.043947994872735 25.043947994872735 25.043947994872735 25.043947994872735 25.043947994872735 25.043947994872735 25.043947994872735 25.043947994872735 25.043947994872735 25.043947994872735 25.043947994872735 25.043947994872735 25.043947994872735 25.043947994872735 25.021973997436366 25.021973997436366 25.043947994872735 25.021973997436366 25.021973997436366 25.021973997436366 25.021973997436366 25.021973997436366 25.021973997436366 25.021973997436366 25.021973997436366 25.021973997436366 25.021973997436366 25.043947994872735 25.021973997436366 25.021973997436366 25.021973997436366 25.021973997436366 25.021973997436366 25.021973997436366 25.021973997436366 25.021973997436366 25.021973997436366 25.021973997436366 25.021973997436366 25.021973997436366 25.021973997436366 25.021973997436366 25.021973997436366 25.021973997436366 25.021973997436366 25.021973997436366 25.021973997436366 25.021973997436366 25.021973997436366 25.021973997436366 25.021973997436366 25.043947994872735 25.043947994872735 25.021973997436366 25.043947994872735 25.021973997436366 25.043947994872735 25.021973997436366 25.043947994872735 25.043947994872735 25.043947994872735 25.043947994872735 25.043947994872735 25.043947994872735 25.043947994872735 25.0659219923091 25.0659219923091 25.0659219923091 25.0659219923091 25.08789598974547 25.0659219923091 25.08789598974547 25.109869987181835 25.109869987181835 25.175791979490935 25.197765976927304 25.21973997436367 25.263687969236404 25.30763596410914 25.37355795641824 25.395531953854604 25.571323933345543 25.72514191540011 25.835011902581943 26.032777879509247 26.252517853872916 26.406335835927486 26.67002380516389 26.88976377952756 27.329243728254898 27.856619666727706 28.208203625709576 28.867423548800588 29.61453946163706 30.054019410364404 30.801135323200878 31.328511261673686 32.07562717451016 32.800769089910276 33.54788500274675 34.29500091558323 34.7784288591833 35.48159677714705 36.250686687419886 36.558322651529025 37.28346456692913 38.31624244643838 38.84361838491119 39.5687603003113 40.030214246475005 40.71140816700238 41.41457608496612 41.83208203625709 42.51327595678447 43.194469877311846 43.655923823475554 44.31514374656656 44.77659769273027 45.72147958249405 46.424647500457795 46.73228346456693 47.457425379967034 48.27046328511261 49.12744918513093 50.028383080021975 50.665629005676614 51.5445889031313 52.44552279802234 53.060794726240616 53.632118659586155 54.79674052371361 55.34609045962278 56.13715436733199 56.64255630836843 57.323750228895804 57.93902215711408 58.51034609045962 58.83995605200513 59.2574620032961 59.521149972532506 59.894707928950744 60.114447903314414 60.575901849478115 60.90551181102362 61.14722578282366 61.36696575718733 61.63065372642373 61.82841970335103 62.0481596777147 62.26789965207837 62.42171763413294 62.59750961362388 62.64145760849661 62.68540560336935 62.72935359824208 62.75132759567845 62.75132759567845 62.75132759567845 62.75132759567845 62.75132759567845 62.75132759567845 62.75132759567845 62.75132759567845 62.75132759567845 62.75132759567845 62.72935359824208 62.75132759567845 62.72935359824208 62.75132759567845 62.75132759567845 62.75132759567845 62.75132759567845 62.75132759567845 62.75132759567845 62.75132759567845 62.75132759567845 62.75132759567845 62.75132759567845 62.72935359824208 62.72935359824208 62.75132759567845 62.75132759567845 62.75132759567845 62.75132759567845 62.75132759567845 62.75132759567845 62.75132759567845 62.75132759567845 62.72935359824208 62.75132759567845 62.75132759567845 62.72935359824208 62.72935359824208 62.72935359824208 62.72935359824208 62.72935359824208 62.72935359824208 62.707379600805716 62.707379600805716 62.707379600805716 62.707379600805716 62.707379600805716 62.707379600805716 62.707379600805716 62.68540560336935 62.68540560336935 62.68540560336935 62.68540560336935 62.68540560336935 62.66343160593298 62.66343160593298 62.66343160593298 62.66343160593298 62.66343160593298 62.66343160593298 62.66343160593298 62.68540560336935 62.66343160593298 62.66343160593298 62.66343160593298 62.68540560336935 62.68540560336935 62.68540560336935 62.68540560336935 62.68540560336935 62.66343160593298 62.66343160593298 62.66343160593298 62.66343160593298 62.64145760849661 62.61948361106025 62.61948361106025 62.59750961362388 62.57553561618751 62.57553561618751 62.55356161875115 62.53158762131478 62.50961362387841 62.487639626442046 62.487639626442046 62.487639626442046 62.487639626442046 62.50961362387841 62.487639626442046 62.487639626442046 62.487639626442046 62.46566562900568 62.46566562900568 62.44369163156931 62.42171763413294 62.42171763413294 62.39974363669658 62.37776963926021 62.37776963926021 62.35579564182384 62.33382164438748 62.33382164438748 62.33382164438748 62.33382164438748 62.33382164438748 62.33382164438748 62.35579564182384 62.33382164438748 62.33382164438748 62.35579564182384 62.35579564182384 62.35579564182384 62.33382164438748 62.35579564182384 62.35579564182384 62.35579564182384 62.35579564182384 62.35579564182384 62.35579564182384 62.35579564182384 62.35579564182384 62.35579564182384 62.33382164438748 62.33382164438748 62.33382164438748 62.31184764695111 62.28987364951474 62.28987364951474 62.28987364951474 62.26789965207837 62.26789965207837 62.26789965207837 62.26789965207837 62.26789965207837 62.24592565464201 62.24592565464201 62.24592565464201 62.24592565464201 62.22395165720564 62.22395165720564 62.20197765976927 62.20197765976927 62.20197765976927 62.18000366233291 62.18000366233291 62.18000366233291 62.18000366233291 62.18000366233291 62.18000366233291 62.18000366233291 62.18000366233291 62.18000366233291 62.18000366233291 62.15802966489654 62.15802966489654 62.15802966489654 62.13605566746017 62.13605566746017 62.11408167002381 62.11408167002381 62.11408167002381 62.11408167002381 62.11408167002381 62.11408167002381 62.11408167002381 62.11408167002381 62.11408167002381 62.13605566746017 62.11408167002381 62.11408167002381 62.13605566746017 62.15802966489654 62.18000366233291 62.18000366233291 62.18000366233291 62.18000366233291 62.18000366233291 62.20197765976927 62.20197765976927 62.20197765976927 62.20197765976927 62.22395165720564 62.22395165720564 62.24592565464201 62.26789965207837 62.26789965207837 62.26789965207837 62.28987364951474 62.26789965207837 62.26789965207837 62.26789965207837 62.26789965207837 62.26789965207837 62.26789965207837 62.26789965207837 62.26789965207837 62.26789965207837 62.26789965207837 62.26789965207837 62.26789965207837 62.26789965207837 62.26789965207837 62.28987364951474 62.26789965207837 62.26789965207837 62.26789965207837 62.26789965207837 62.26789965207837 62.26789965207837 62.26789965207837 62.24592565464201 62.22395165720564 62.20197765976927 62.18000366233291 62.15802966489654 62.13605566746017 62.09210767258744 62.07013367515107 62.0481596777147 62.02618568027834 62.02618568027834 62.00421168284197 62.00421168284197 61.96026368796924 61.9163156930965 61.89434169566014 61.8503937007874 61.7844717084783 61.7185497161692 61.63065372642373 61.5207837392419 61.38893975462369 61.19117377769639 61.03735579564182 60.83958981871452 60.575901849478115 60.312213880241714 60.136421900750776 59.850759934078006 59.652993957150706 59.3233839956052 58.94982603918696 58.70811206738693 58.46639809558689 57.93902215711408 57.49954220838674 57.21388024171397 56.818348287859365 56.400842336568395 56.13715436733199 55.74162241347739 55.47793444424098 55.06042849295001 54.64292254165903 54.35726057498627 53.93975462369529 53.412378685222485 53.214612708295185 52.841054751876946 52.53341878776781 52.04999084416774 51.50064090825856 50.90734297747665 50.29207104925838 49.63285112616737 49.19337117744003 48.75389122871269 48.31441127998535 47.457425379967034 46.79820545687603 46.358725508148694 45.69950558505768 45.0183116645303 44.53488372093023 43.80974180553012 43.436183849111885 42.798937923457245 42.1616919978026 41.72221204907526 41.06299212598425 40.227980223402305 39.810474272111335 39.34902032594763 38.93151437465666 38.31624244643838 37.7009705182201 37.327412561801864 36.58029664896539 36.052920710492586 35.72331074894708 35.30580479765611 35.17396081303791 34.73448086431057 34.16315693096502 33.877494964292254 33.48196301043765 33.086431056583045 32.800769089910276 32.36128914118294 32.0536531770738 31.59219923091009 31.15271928218275 30.823109320637247 30.317707379600805 29.966123420618935 29.350851492400658 28.867423548800588 28.669657571873284 27.988463651345906 26.97765976927303 26.757919794909355 26.713971800036624 26.098699871818347 25.966855887200147 25.878959897454678 25.791063907709212 25.527375938472808 25.417505951290973 25.395531953854604 25.35158395898187 25.37355795641824 25.263687969236404 25.175791979490935 25.65921992309101 26.186595861563816 26.29646584874565 26.23054385643655 26.164621864127447 26.098699871818347 26.054751876945616 26.032777879509247 26.01080388207288 25.988829884636512 25.988829884636512 25.966855887200147 25.966855887200147 25.944881889763778 25.900933894891047 25.856985900018312 25.769089910272843 25.72514191540011 25.65921992309101 25.637245925654643 25.615271928218274 25.615271928218274 25.571323933345543 25.527375938472808 25.50540194103644 25.461453946163708 25.43947994872734 25.417505951290973 25.395531953854604 25.395531953854604 25.35158395898187 25.35158395898187 25.35158395898187 25.35158395898187 25.329609961545504 25.329609961545504 25.329609961545504 25.329609961545504 25.329609961545504 25.329609961545504 25.30763596410914 25.30763596410914 25.30763596410914 25.28566196667277 25.28566196667277 25.28566196667277 25.28566196667277 25.263687969236404 25.263687969236404 25.263687969236404 25.263687969236404 25.263687969236404 25.263687969236404 25.263687969236404 25.263687969236404 25.263687969236404 25.263687969236404 25.263687969236404 25.263687969236404 25.263687969236404 25.241713971800035 25.263687969236404 25.241713971800035 25.241713971800035 25.241713971800035 25.241713971800035 25.241713971800035 25.241713971800035 25.241713971800035 25.241713971800035 25.241713971800035 25.241713971800035 25.241713971800035 25.241713971800035 25.241713971800035 25.241713971800035 25.241713971800035 25.241713971800035 25.241713971800035 25.241713971800035 25.241713971800035 25.241713971800035 25.241713971800035 25.241713971800035 25.241713971800035 25.241713971800035 25.241713971800035 25.241713971800035 25.241713971800035 25.241713971800035 25.241713971800035 25.241713971800035 25.241713971800035 25.241713971800035 25.241713971800035 25.241713971800035 25.241713971800035 25.241713971800035 25.241713971800035 25.241713971800035 25.241713971800035 25.21973997436367 25.241713971800035 25.241713971800035 25.241713971800035 25.241713971800035 25.241713971800035 25.241713971800035 25.21973997436367 25.21973997436367 25.21973997436367 25.21973997436367 25.21973997436367 25.241713971800035 25.21973997436367 25.21973997436367 25.21973997436367 25.21973997436367 25.21973997436367 25.21973997436367 25.21973997436367 25.21973997436367 25.21973997436367 25.21973997436367 25.21973997436367 25.21973997436367 25.21973997436367 25.241713971800035 25.21973997436367 25.241713971800035 25.21973997436367 25.21973997436367 25.241713971800035 25.21973997436367 25.241713971800035 25.241713971800035 25.21973997436367 25.241713971800035 25.241713971800035 25.21973997436367 25.241713971800035 25.241713971800035 25.21973997436367 25.241713971800035 25.241713971800035 25.241713971800035 25.241713971800035 25.241713971800035 25.21973997436367 25.241713971800035 25.241713971800035 25.241713971800035 25.241713971800035 25.241713971800035 25.21973997436367 25.21973997436367 25.21973997436367 25.21973997436367 25.241713971800035 25.21973997436367 25.21973997436367 25.21973997436367 25.21973997436367 25.241713971800035 25.21973997436367 25.21973997436367 25.21973997436367 25.21973997436367 25.21973997436367 25.21973997436367 25.21973997436367 25.21973997436367 25.21973997436367 25.21973997436367 25.21973997436367 25.21973997436367 25.21973997436367 25.21973997436367 25.21973997436367 25.21973997436367 25.21973997436367 25.197765976927304 25.21973997436367 25.21973997436367 25.21973997436367 25.21973997436367 25.21973997436367 25.21973997436367 25.21973997436367 25.197765976927304 25.21973997436367 25.197765976927304 25.197765976927304 25.197765976927304 25.197765976927304 25.197765976927304 25.197765976927304 25.197765976927304 25.197765976927304 25.197765976927304 25.197765976927304 25.197765976927304 25.197765976927304 25.197765976927304 25.197765976927304 25.197765976927304 25.197765976927304 25.197765976927304 25.197765976927304 25.197765976927304 25.197765976927304 25.197765976927304 25.197765976927304 25.197765976927304 25.197765976927304 25.197765976927304 25.197765976927304 25.197765976927304 25.197765976927304 25.21973997436367 25.197765976927304 25.197765976927304 25.21973997436367 25.21973997436367 25.21973997436367 25.21973997436367 25.197765976927304 25.21973997436367 25.21973997436367 25.241713971800035 25.241713971800035 25.241713971800035 25.241713971800035 25.241713971800035 25.263687969236404 25.263687969236404 25.30763596410914 25.329609961545504 25.37355795641824 25.461453946163708 25.549349935909174 25.615271928218274 25.747115912836477 25.900933894891047 25.966855887200147 26.208569859000182 26.406335835927486 26.560153817982055 26.779893792345725 26.95568577183666 27.219373741073063 27.74674967954587 28.010437648782275 28.38399560520051 28.889397546236953 29.240981505218826 29.70243545138253 30.14191540010987 30.537447353964474 30.998901300128182 31.328511261673686 31.702069218091925 32.22944515656473 32.62497711041934 33.416041018128546 33.789598974546784 34.33894891045596 34.9102728438015 35.28383080021974 35.81120673869255 36.338582677165356 36.712140633583594 37.28346456692913 37.74491851309284 38.33821644387475 38.97546236952939 39.656656290056766 40.118110236220474 40.93114814136605 41.30470609778429 42.07379600805713 42.62314594396631 43.699871818348285 44.53488372093023 45.12818165171214 45.78740157480315 46.468595495330526 47.56729536714887 48.44625526460355 49.03955319538546 49.874565097967405 50.665629005676614 51.19300494414942 52.2038088262223 52.44552279802234 53.192638710858816 54.15949459805896 54.42318256729537 55.08240249038637 55.74162241347739 56.20307635964109 56.8622962827321 57.27980223402307 58.07086614173228 58.48837209302326 58.88390404687786 59.3233839956052 59.982603918696206 60.290239882805345 60.641823841787215 60.90551181102362 61.38893975462369 61.74052371360557 61.96026368796924 62.24592565464201 62.487639626442046 62.66343160593298 62.86119758286028 62.993041567478485 63.16883354696942 63.322651529023986 63.432521516205824 63.564365500824024 63.696209485442225 63.80607947262406 63.89397546236953 63.95989745467863 64.06976744186046 64.13568943416956 64.22358542391504 64.28950741622413 64.3114814136605 64.35542940853324 64.39937740340596 64.42135140084233 64.46529939571508 64.4433253982787 64.46529939571508 64.4433253982787 64.46529939571508 64.4433253982787 64.42135140084233 64.42135140084233 64.3774034059696 64.33345541109688 64.28950741622413 64.26753341878776 64.2455594213514 64.20161142647866 64.1796374290423 64.15766343160593 64.15766343160593 64.15766343160593 64.15766343160593 64.15766343160593 64.15766343160593 64.15766343160593 64.13568943416956 64.15766343160593 64.15766343160593 64.15766343160593 64.13568943416956 64.13568943416956 64.13568943416956 64.1137154367332 64.1137154367332 64.1137154367332 64.1137154367332 64.1137154367332 64.1137154367332 64.1137154367332 64.1137154367332 64.13568943416956 64.1137154367332 64.1137154367332 64.1137154367332 64.1137154367332 64.1137154367332 64.1137154367332 64.1137154367332 64.1137154367332 64.1137154367332 64.13568943416956 64.1137154367332 64.1137154367332 64.09174143929684 64.06976744186046 64.06976744186046 64.09174143929684 64.06976744186046 64.09174143929684 64.09174143929684 64.09174143929684 64.09174143929684 64.09174143929684 64.09174143929684 64.09174143929684 64.09174143929684 64.1137154367332 64.1137154367332 64.1137154367332 64.1137154367332 64.1137154367332 64.1137154367332 64.13568943416956 64.13568943416956 64.13568943416956 64.13568943416956 64.13568943416956 64.13568943416956 64.15766343160593 64.13568943416956 64.15766343160593 64.15766343160593 64.15766343160593 64.1796374290423 64.1796374290423 64.1796374290423 64.20161142647866 64.22358542391504 64.22358542391504 64.22358542391504 64.2455594213514 64.2455594213514 64.2455594213514 64.2455594213514 64.2455594213514 64.2455594213514 64.22358542391504 64.1796374290423 64.1796374290423 64.15766343160593 64.15766343160593 64.15766343160593 64.13568943416956 64.13568943416956 64.13568943416956 64.13568943416956 64.13568943416956 64.13568943416956 64.13568943416956 64.13568943416956 64.15766343160593 64.13568943416956 64.13568943416956 64.13568943416956 64.15766343160593 64.15766343160593 64.15766343160593 64.15766343160593 64.15766343160593 64.1796374290423 64.20161142647866 64.20161142647866 64.20161142647866 64.20161142647866 64.22358542391504 64.22358542391504 64.22358542391504 64.22358542391504 64.22358542391504 64.20161142647866 64.20161142647866 64.20161142647866 64.20161142647866 64.1796374290423 64.15766343160593 64.15766343160593 64.13568943416956 64.13568943416956 64.13568943416956 64.1137154367332 64.1137154367332 64.1137154367332 64.09174143929684 64.09174143929684 64.09174143929684 64.09174143929684 64.09174143929684 64.09174143929684 64.09174143929684 64.09174143929684 64.09174143929684 64.09174143929684 64.09174143929684 64.09174143929684 64.06976744186046 64.06976744186046 64.06976744186046 64.06976744186046 64.06976744186046 64.06976744186046 64.06976744186046 64.09174143929684 64.06976744186046 64.06976744186046 64.06976744186046 64.06976744186046 64.06976744186046 64.06976744186046 64.06976744186046 64.06976744186046 64.06976744186046 64.04779344442409 64.06976744186046 64.06976744186046 64.06976744186046 64.06976744186046 64.06976744186046 64.09174143929684 64.09174143929684 64.1137154367332 64.1137154367332 64.13568943416956 64.15766343160593 64.1796374290423 64.1796374290423 64.1796374290423 64.1796374290423 64.1796374290423 64.1796374290423 64.1796374290423 64.1796374290423 64.1796374290423 64.1796374290423 64.1796374290423 64.1796374290423 64.1796374290423 64.1796374290423 64.1796374290423 64.1796374290423 64.1796374290423 64.1796374290423 64.1796374290423 64.1796374290423 64.1796374290423 64.1796374290423 64.1796374290423 64.1796374290423 64.1796374290423 64.1796374290423 64.15766343160593 64.15766343160593 64.15766343160593 64.13568943416956 64.13568943416956 64.13568943416956 64.13568943416956 64.15766343160593 64.15766343160593 64.15766343160593 64.15766343160593 64.15766343160593 64.15766343160593 64.15766343160593 64.15766343160593 64.15766343160593 64.15766343160593 64.15766343160593 64.15766343160593 64.15766343160593 64.15766343160593 64.15766343160593 64.15766343160593 64.15766343160593 64.13568943416956 64.15766343160593 64.15766343160593 64.15766343160593 64.15766343160593 64.15766343160593 64.15766343160593 64.15766343160593 64.15766343160593 64.15766343160593 64.1796374290423 64.15766343160593 64.15766343160593 64.15766343160593 64.15766343160593 64.1796374290423 64.1796374290423 64.1796374290423 64.15766343160593 64.13568943416956 64.13568943416956 64.1137154367332 64.00384544955136 63.87200146493316 63.784105475187694 63.696209485442225 63.586339498260394 63.454495513642186 63.278703534151255 63.124885552096686 62.927119575169385 62.707379600805716 62.50961362387841 62.20197765976927 61.9822376854056 61.5207837392419 61.12525178538729 60.97143380333272 60.575901849478115 59.960629921259844 59.652993957150706 59.367331990477936 58.90587804431423 58.48837209302326 58.04889214429592 57.89507416224135 57.323750228895804 56.906244277604834 56.57663431605933 56.115180369895626 55.80754440578649 55.30214246475005 54.64292254165903 54.31331258011353 53.91778062625893 53.434352682658854 53.060794726240616 52.48947079289508 52.04999084416774 51.4786669108222 50.599707013367514 50.138253067203806 49.676799121040105 48.97363120307636 48.24848928767625 47.523347372276135 47.017945431239696 46.314777513275956 45.63358359274858 45.21607764145761 44.64475370811206 44.05145577733016 43.67789782091192 43.106573887566384 42.71104193371177 42.07379600805713 41.48049807727523 41.084966123420614 40.513642190075075 39.964292254165905 39.590734297747666 38.99743636696576 38.44808643105658 37.89873649514741 37.5032045412928 37.129646584874564 36.602270646401756 36.250686687419886 35.63541475920161 35.19593481047427 34.88829884636513 34.36092290789233 34.11920893609229 33.89946896172862 33.569859000183115 33.32814502838308 32.932613074528476 32.53708112067387 32.2514191540011 31.81193920527376 31.064823292437282 30.669291338582678 30.22981138985534 29.812305438564366 29.284929500091557 28.77952755905512 28.296099615455045 27.922541659036806 27.87859366416407 27.74674967954587 27.614905694927668 27.592931697491302 27.527009705182202 27.439113715436733 