25.0 25.0 25.0 25.0 25.0 25.0 25.0 25.0 25.0 25.0 25.0 25.0 25.0 25.0 25.0 25.0 25.0 25.0 25.0 25.0 25.0 25.0 25.0 25.0 25.0 25.0 25.0 25.021973997436366 25.0 25.0 25.0 25.0 25.0 25.0 25.0 25.0 25.0 25.0 25.0 25.0 25.021973997436366 25.0 25.0 25.0 25.0 25.0 25.0 25.0 25.0 25.0 25.0 25.0 25.0 25.0 25.0 25.0 25.0 25.0 25.0 25.0 25.0 25.0 25.0 25.0 25.0 25.0 25.0 25.0 25.0 25.0 25.0 25.0 25.0 25.0 25.0 25.0 25.0 25.0 25.0 25.0 25.0 25.0 25.0 25.0 25.0 25.0 25.0 25.0 25.0 25.0 25.0 25.0 25.0 25.0 25.0 25.0 25.0 25.0 25.0 25.0 25.0 25.0 25.0 25.0 25.0 25.0 25.0 25.0 25.021973997436366 25.0 25.0 25.0 25.0 25.0 25.0 25.0 25.0 25.0 25.0 25.0 25.0 25.0 25.021973997436366 25.0 25.0 25.0 25.0 25.0 25.0 25.0 25.0 25.0 25.0 25.0 25.0 25.0 25.021973997436366 25.0 25.0 25.0 25.0 25.0 25.0 25.0 25.0 25.0 25.0 25.0 25.0 25.0 25.0 25.0 25.0 25.0 25.0 25.0 25.0 25.0 25.0 25.0 25.0 25.0 25.0 25.0 25.0 25.0 25.0 25.0 25.0 25.0 25.0 25.0 25.0 25.0 25.0 25.0 25.0 25.0 25.021973997436366 25.0 25.0 25.0 25.0 25.0 25.0 25.0 25.021973997436366 25.0 25.0 25.0 25.0 25.0 25.0 25.0 25.0 25.0 25.0 25.0 25.0 25.0 25.0 25.0 25.0 25.0 25.0 25.0 25.0 25.0 25.0 25.021973997436366 25.0 25.0 25.0 25.0 25.0 25.0 25.0 25.0 25.0 25.0 25.0 25.0 25.0 25.0 25.0 25.0 25.0 25.0 25.0 25.0 25.0 25.0 25.0 25.0 25.0 25.0 25.0 25.0 25.0 25.0 25.0 25.0 25.0 25.0 25.0 25.0 25.0 25.0 25.0 25.0 25.0 25.0 25.0 25.0 25.0 25.0 25.0 25.0 25.0 25.0 25.0 25.0 25.0 25.0 25.0 25.0 25.0 25.0 25.0 25.0 25.0 25.0 25.0 25.0 25.0 25.0 25.0 25.0 25.0 25.0 25.0 25.0 25.0 25.0 25.0 25.0 25.0 25.0 25.0 25.0 25.0 25.0 25.0 25.0 25.0 25.0 25.0 25.0 25.0 25.0 25.0 25.0 25.0 25.0 25.0 25.0 25.0 25.0 25.0 25.0 25.0 25.0 25.0 25.0 25.0 25.0 25.0 25.0 25.0 25.0 25.0 24.978026002563634 25.0 25.0 25.0 25.0 25.0 25.0 25.0 25.0 24.978026002563634 25.0 25.0 25.0 25.0 25.0 25.0 25.0 25.0 25.0 25.0 25.0 25.0 25.0 25.0 24.978026002563634 25.0 25.0 25.0 25.0 25.0 25.0 25.0 25.0 25.0 25.0 25.0 25.0 24.978026002563634 25.0 24.978026002563634 25.0 25.0 25.0 24.978026002563634 24.978026002563634 25.0 25.0 24.978026002563634 25.0 24.978026002563634 25.0 25.0 25.0 25.0 25.0 24.978026002563634 25.0 25.0 24.978026002563634 24.978026002563634 25.0 25.0 25.0 24.978026002563634 25.0 24.978026002563634 25.0 25.0 24.978026002563634 25.0 24.978026002563634 25.0 25.0 25.0 25.0 25.0 25.0 25.0 25.0 25.0 25.0 25.0 25.0 25.0 25.0 25.0 25.0 25.0 25.0 25.0 25.0 25.0 25.0 25.0 25.0 25.0 25.0 25.0 25.0 25.0 25.0 25.0 25.0 25.0 25.0 25.0 25.0 25.0 25.0 25.0 25.0 25.0 25.0 25.0 25.0 25.0 25.0 25.0 25.0 25.0 25.0 25.0 25.0 25.0 25.0 25.0 25.0 25.0 25.0 25.0 25.0 25.0 25.0 25.0 25.0 25.0 25.0 25.0 25.0 25.0 25.0 25.0 25.0 25.0 25.0 25.0 25.0 25.0 25.0 25.0 25.0 25.0 25.0 25.0 25.0 25.0 25.0 25.0 25.0 25.0 25.0 25.0 25.0 25.0 25.0 25.0 25.0 25.0 25.0 25.0 25.0 25.0 25.0 25.0 25.0 25.0 25.0 25.0 25.0 25.0 25.0 25.0 25.0 25.0 24.978026002563634 25.0 25.0 25.0 25.0 25.0 25.0 25.0 25.0 25.0 25.0 25.0 25.0 25.0 25.0 25.0 25.0 25.0 25.0 25.0 25.0 25.0 25.0 25.0 25.0 25.0 25.0 25.0 25.0 25.0 25.0 25.0 25.0 25.0 25.0 25.0 25.0 24.978026002563634 25.0 25.0 25.0 25.0 25.0 25.0 25.0 25.0 25.0 25.0 25.0 25.0 25.0 25.0 25.0 25.0 25.0 25.0 25.0 25.0 25.0 25.0 25.0 25.0 25.0 25.0 25.0 25.0 25.0 25.0 25.0 25.0 25.0 25.0 25.0 25.0 25.0 25.0 25.0 25.0 25.0 25.0 25.0 25.0 25.0 25.0 25.0 25.0 25.0 25.0 25.0 25.0 25.0 25.0 25.0 25.0 25.0 25.0 25.0 25.0 25.0 25.0 25.0 25.0 25.0 25.0 25.0 25.0 25.0 25.0 25.0 25.0 25.0 25.0 25.0 25.0 25.0 25.0 25.0 25.0 25.0 25.0 25.0 25.0 25.0 25.0 25.0 25.0 25.0 25.0 25.0 25.0 25.0 25.0 25.0 25.0 25.0 25.0 25.0 25.0 25.0 25.0 25.0 25.0 25.0 25.0 25.0 25.0 25.0 25.0 25.0 25.0 25.0 25.0 25.0 25.0 25.0 25.0 25.0 25.0 25.0 25.0 25.0 25.0 25.0 25.0 25.0 25.0 25.0 25.0 25.0 25.0 25.0 25.0 25.0 25.0 25.0 25.0 25.0 25.0 25.0 25.0 25.0 25.0 25.0 25.0 25.0 25.0 25.0 25.0 25.0 25.0 25.0 25.0 25.0 25.0 25.0 25.0 25.0 25.0 25.0 25.0 25.0 25.0 25.0 25.0 25.0 25.0 25.0 25.0 25.0 25.0 25.0 25.0 25.0 25.0 25.0 25.0 25.0 25.0 25.0 25.0 25.0 25.0 25.0 25.0 25.0 25.0 25.0 25.0 25.0 25.0 25.0 25.0 25.0 25.0 25.0 25.0 25.0 25.0 25.0 25.0 25.0 25.0 25.0 25.0 25.0 25.021973997436366 25.0 25.021973997436366 25.0 25.0 25.0 25.0 25.0 25.0 25.0 25.0 25.0 25.021973997436366 25.0 25.0 25.0 25.0 25.0 25.0 25.0 25.0 25.0 25.0 25.0 25.0 25.021973997436366 25.0 25.0 25.0 25.0 25.0 25.0 25.0 25.0 25.0 25.0 25.0 25.021973997436366 25.0 25.0 25.0 25.0 25.021973997436366 25.0 25.0 25.0 25.021973997436366 25.0 25.021973997436366 25.0 25.0 25.0 25.0 25.0 25.0 25.0 25.0 25.0 25.021973997436366 25.0 25.0 25.0 25.0 25.0 25.0 25.0 25.021973997436366 25.0 25.0 25.0 25.0 25.0 25.0 25.021973997436366 25.0 25.0 25.0 25.0 25.0 25.021973997436366 25.0 25.0 25.0 25.0 25.0 25.0 25.0 25.021973997436366 25.0 25.0 25.0 25.0 25.0 25.021973997436366 25.021973997436366 25.021973997436366 25.043947994872735 25.043947994872735 25.043947994872735 25.043947994872735 25.021973997436366 25.0 25.021973997436366 25.021973997436366 25.021973997436366 25.021973997436366 25.021973997436366 25.021973997436366 25.043947994872735 25.021973997436366 25.043947994872735 25.043947994872735 25.043947994872735 25.043947994872735 25.0659219923091 25.0659219923091 25.0659219923091 25.0659219923091 25.0659219923091 25.0659219923091 25.0659219923091 25.08789598974547 25.08789598974547 25.109869987181835 25.109869987181835 25.109869987181835 25.15381798205457 25.175791979490935 25.21973997436367 25.263687969236404 25.28566196667277 25.30763596410914 25.35158395898187 25.37355795641824 25.417505951290973 25.461453946163708 25.527375938472808 25.615271928218274 25.703167917963743 25.835011902581943 25.922907892327412 26.07672587438198 26.23054385643655 26.36238784105475 26.60410181285479 26.933711774400294 27.197399743636698 27.658853689800402 28.18622962827321 28.603735579564184 29.19703351034609 29.63651345907343 30.185863394982604 30.779161325764512 31.196667277055482 31.81193920527376 32.712873100164806 33.262223036073976 33.81157297198315 34.55868888481963 35.41567478483794 36.09686870536532 36.953854605383626 37.85478850027467 38.25032045412928 39.32704632851126 40.140084233656836 40.73338216443875 41.61234206189343 42.46932796191174 43.08459989013001 44.02948177989379 44.71067570042116 45.69950558505768 46.71030946713056 47.43545138253067 48.40230726973082 49.76469511078557 50.46786302874931 51.10510895440396 51.76432887749496 52.731184764695115 53.93975462369529 54.57700054934993 55.49990844167735 56.466764328877495 57.125984251968504 58.11481413660502 58.79600805713239 59.916681926387106 60.97143380333272 61.7185497161692 62.79527559055118 63.784105475187694 64.4433253982787 65.717817249588 66.35506317524263 67.01428309833364 68.00311298297015 68.66233290606115 69.58524079838858 70.79381065738875 71.38710858817066 72.26606848562534 72.8373924189709 73.40871635231643 74.24372825489837 74.81505218824393 75.86980406518953 76.63889397546237 77.1442959164988 77.80351583958982 78.24299578831716 78.90221571140816 79.51748763962644 79.93499359091741 80.57223951657207 81.1435634499176 81.60501739608131 82.15436733199049 82.70371726789965 83.03332722944516 83.56070316791798 83.89031312946346 84.37374107306354 84.68137703717268 85.25270097051822 85.6702069218092 85.9338948910456 86.17560886284564 86.50521882439114 86.81285478850029 87.01062076542757 87.31825672953671 87.62589269364585 87.91155466031863 88.13129463468229 88.41695660135505 88.68064457059147 88.8564365500824 89.0542025270097 89.16407251419155 89.29591649880975 89.40578648599158 89.44973448086431 89.49368247573705 89.51565647317341 89.51565647317341 89.51565647317341 89.51565647317341 89.51565647317341 89.40578648599158 89.31789049624611 89.22999450650065 89.0542025270097 88.8564365500824 88.63669657571873 88.48287859366417 88.30708661417323 88.10932063724593 87.99945065006409 87.80168467313679 87.62589269364585 87.49404870902765 87.31825672953671 87.23036073979125 87.05456876030031 86.98864676799121 86.9227247756821 86.85680278337301 86.7908807910639 86.76890679362754 86.74693279619117 86.72495879875481 86.68101080388207 86.61508881157297 86.57114081670024 86.48324482695477 86.41732283464567 86.32942684490021 86.21955685771837 86.15363486540927 86.02179088079106 85.8679728987365 85.69218091924556 85.538362937191 85.4065189525728 85.23072697308186 85.03296099615454 84.90111701153634 84.72532503204542 84.54953305255447 84.48361106024538 84.3957150704999 84.35176707562718 84.28584508331807 84.24189708844534 84.21992309100898 84.21992309100898 84.1979490935726 84.1979490935726 84.17597509613624 84.1320271012635 84.11005310382714 84.0661051089544 84.02215711408166 83.97820911920894 83.9342611243362 83.91228712689984 83.89031312946346 83.8683391320271 83.84636513459074 83.82439113715438 83.802417139718 83.78044314228164 83.75846914484526 83.71452114997254 83.71452114997254 83.71452114997254 83.69254715253618 83.71452114997254 83.69254715253618 83.69254715253618 83.69254715253618 83.71452114997254 83.71452114997254 83.69254715253618 83.69254715253618 83.71452114997254 83.71452114997254 83.69254715253618 83.69254715253618 83.71452114997254 83.71452114997254 83.71452114997254 83.71452114997254 83.69254715253618 83.71452114997254 83.71452114997254 83.71452114997254 83.69254715253618 83.71452114997254 83.71452114997254 83.69254715253618 83.71452114997254 83.71452114997254 83.71452114997254 83.69254715253618 83.71452114997254 83.71452114997254 83.71452114997254 83.71452114997254 83.71452114997254 83.71452114997254 83.71452114997254 83.71452114997254 83.71452114997254 83.71452114997254 83.71452114997254 83.71452114997254 83.71452114997254 83.71452114997254 83.71452114997254 83.71452114997254 83.69254715253618 83.67057315509979 83.64859915766343 83.62662516022706 83.6046511627907 83.6046511627907 83.58267716535434 83.58267716535434 83.56070316791798 83.53872917048159 83.53872917048159 83.51675517304523 83.4728071781725 83.4728071781725 83.42885918329976 83.40688518586339 83.36293719099066 83.31898919611793 83.29701519868156 83.29701519868156 83.27504120124519 83.27504120124519 83.27504120124519 83.27504120124519 83.27504120124519 83.27504120124519 83.27504120124519 83.27504120124519 83.27504120124519 83.27504120124519 83.27504120124519 83.27504120124519 83.27504120124519 83.25306720380883 83.23109320637246 83.18714521149973 83.16517121406336 83.14319721662699 83.09924922175426 83.09924922175426 83.09924922175426 83.09924922175426 83.0772752243179 83.0772752243179 83.0772752243179 83.0772752243179 83.0772752243179 83.0772752243179 83.0772752243179 83.0772752243179 83.0772752243179 83.0772752243179 83.0772752243179 83.0772752243179 83.0772752243179 83.09924922175426 83.0772752243179 83.09924922175426 83.0772752243179 83.0772752243179 83.0772752243179 83.09924922175426 83.0772752243179 83.0772752243179 83.0772752243179 83.0772752243179 83.0772752243179 83.0772752243179 83.0772752243179 83.05530122688153 83.03332722944516 83.03332722944516 83.01135323200879 82.98937923457243 82.98937923457243 82.98937923457243 82.98937923457243 82.98937923457243 82.98937923457243 82.98937923457243 82.98937923457243 82.98937923457243 82.98937923457243 82.98937923457243 82.98937923457243 82.98937923457243 82.98937923457243 82.98937923457243 82.98937923457243 82.96740523713606 82.9454312396997 82.92345724226331 82.90148324482695 82.90148324482695 82.90148324482695 82.90148324482695 82.90148324482695 82.90148324482695 82.90148324482695 82.87950924739059 82.85753524995422 82.85753524995422 82.8135872550815 82.8135872550815 82.79161325764511 82.79161325764511 82.76963926020875 82.76963926020875 82.76963926020875 82.76963926020875 82.76963926020875 82.76963926020875 82.76963926020875 82.76963926020875 82.76963926020875 82.76963926020875 82.76963926020875 82.76963926020875 82.76963926020875 82.76963926020875 82.74766526277239 82.74766526277239 82.74766526277239 82.74766526277239 82.74766526277239 82.74766526277239 82.74766526277239 82.74766526277239 82.74766526277239 82.74766526277239 82.74766526277239 82.72569126533602 82.72569126533602 82.70371726789965 82.70371726789965 82.70371726789965 82.68174327046329 82.68174327046329 82.65976927302691 82.65976927302691 82.63779527559055 82.61582127815419 82.59384728071782 82.52792528840871 82.48397729353599 82.46200329609962 82.41805530122689 82.39608130379051 82.37410730635415 82.33015931148142 82.28621131660869 82.26423731917231 82.26423731917231 82.26423731917231 82.26423731917231 82.24226332173595 82.24226332173595 82.22028932429959 82.22028932429959 82.19831532686322 82.17634132942685 82.17634132942685 82.15436733199049 82.13239333455411 82.11041933711775 82.08844533968139 82.08844533968139 82.06647134224502 82.04449734480863 82.02252334737227 82.02252334737227 82.02252334737227 82.02252334737227 82.00054934993591 82.00054934993591 81.97857535249955 81.95660135506317 81.95660135506317 81.93462735762681 81.93462735762681 81.93462735762681 81.93462735762681 81.93462735762681 81.93462735762681 81.91265336019043 81.89067936275407 81.86870536531771 81.84673136788135 81.82475737044497 81.80278337300861 81.78080937557223 81.73686138069951 81.71488738326315 81.69291338582677 81.64896539095403 81.62699139351767 81.60501739608131 81.58304339864495 81.56106940120857 81.56106940120857 81.53909540377221 81.53909540377221 81.53909540377221 81.51712140633583 81.51712140633583 81.49514740889947 81.47317341146311 81.45119941402675 81.42922541659037 81.40725141915401 81.38527742171763 81.36330342428127 81.34132942684491 81.31935542940855 81.2754074345358 81.25343343709943 81.20948544222671 81.16553744735396 81.09961545504487 81.03369346273576 80.98974546786303 80.87987548068119 80.83592748580847 80.77000549349935 80.63816150888115 80.52829152169933 80.33052554477202 80.17670756271745 79.95696758835379 79.671305621681 79.47353964475371 79.2757736678264 78.96813770371728 78.63852774217176 78.33089177806264 78.0891778062626 77.73759384728072 77.38600988829884 77.16626991393517 76.79271195751694 76.44112799853508 76.2213880241714 75.86980406518953 75.62809009338949 75.29848013184399 74.88097418055301 74.66123420618933 74.44149423182567 74.13385826771653 73.91411829335286 73.6284563266801 73.4306903497528 73.01318439846182 72.70554843435269 72.48580845998902 72.26606848562534 71.98040651895258 71.73869254715254 71.34316059329794 71.12342061893426 70.79381065738875 70.48617469327962 70.31038271378868 70.02472074711591 69.80498077275224 69.6291887932613 69.34352682658854 69.12378685222487 68.77220289324299 68.42061893426111 68.09100897271563 67.76139901117011 67.54165903680644 67.34389305987915 67.08020509064274 66.86046511627907 66.5088811572972 66.02545321369712 65.78373924189708 65.34425929316976 64.86083134956968 64.53122138802416 64.04779344442409 63.74015748031496 63.23475553927852 62.75132759567845 62.39974363669658 61.87236769822377 61.49880974180553 60.729719831532684 60.33418787767808 59.960629921259844 59.367331990477936 58.75206006225966 58.33455411096869 57.54349020325947 57.104010254532135 56.664530305804796 55.85149240065922 55.45596044680461 54.86266251602271 54.4671305621681 53.87383263138619 53.324482695477016 53.104742721113354 52.55539278520418 52.1378868339132 51.85222486724043 51.43471891594946 50.84142098516755 50.68760300311298 50.226149056949275 49.89653909540377 49.39113715436733 48.88573521333089 48.53415125434902 48.02874931331258 47.391503387657934 47.039919428676065 46.71030946713056 46.358725508148694 45.853323567112255 45.30397363120308 44.7546236952939 44.18329976194836 43.633949826039185 43.282365867057315 42.733015931148145 42.38143197216627 41.89800402856619 41.39260208752975 41.06299212598425 40.535616187511444 39.986266251602274 39.590734297747666 38.77769639260209 38.36019044131112 37.92071049258378 37.28346456692913 36.909906610510895 36.338582677165356 35.59146676432888 35.19593481047427 34.6465848745651 34.29500091558323 33.943416956601354 33.459989013001284 32.998535066837576 32.55905511811024 32.27339315143747 31.767991210401025 31.52627723860099 31.30653726423732 31.020875297564547 30.735213330891778 30.537447353964474 30.22981138985534 30.032045412928035 29.70243545138253 29.19703351034609 28.91137154367332 28.603735579564184 28.16425563083684 27.922541659036806 27.74674967954587 27.636879692364037 27.373191723127633 27.219373741073063 27.131477751327594 27.02160776414576 26.933711774400294 26.845815784654825 26.779893792345725 26.73594579747299 26.67002380516389 26.626075810291155 26.58212781541842 26.51620582310932 26.45028383080022 26.38436183849112 26.29646584874565 26.252517853872916 26.164621864127447 26.120673869254716 26.098699871818347 26.032777879509247 25.966855887200147 25.900933894891047 25.835011902581943 25.769089910272843 25.703167917963743 25.637245925654643 25.593297930781908 25.527375938472808 25.483427943600073 25.43947994872734 25.37355795641824 25.35158395898187 25.329609961545504 25.30763596410914 25.30763596410914 25.28566196667277 25.263687969236404 25.241713971800035 25.21973997436367 25.21973997436367 25.21973997436367 25.197765976927304 25.197765976927304 25.197765976927304 25.175791979490935 25.175791979490935 25.175791979490935 25.15381798205457 25.1318439846182 25.1318439846182 25.1318439846182 25.109869987181835 25.109869987181835 25.109869987181835 25.08789598974547 25.08789598974547 25.08789598974547 25.08789598974547 25.08789598974547 25.08789598974547 25.08789598974547 25.08789598974547 25.08789598974547 25.08789598974547 25.08789598974547 25.08789598974547 25.0659219923091 25.0659219923091 25.0659219923091 25.0659219923091 25.0659219923091 25.0659219923091 25.0659219923091 25.0659219923091 25.0659219923091 25.0659219923091 25.0659219923091 25.0659219923091 25.0659219923091 25.0659219923091 25.0659219923091 25.0659219923091 25.0659219923091 25.0659219923091 25.0659219923091 25.0659219923091 25.0659219923091 25.0659219923091 25.0659219923091 25.0659219923091 25.0659219923091 25.0659219923091 25.0659219923091 25.0659219923091 25.0659219923091 25.0659219923091 25.0659219923091 25.0659219923091 25.0659219923091 25.0659219923091 25.0659219923091 25.043947994872735 25.0659219923091 25.0659219923091 25.0659219923091 25.0659219923091 25.0659219923091 25.0659219923091 25.043947994872735 25.043947994872735 25.0659219923091 25.0659219923091 25.043947994872735 25.0659219923091 25.0659219923091 25.043947994872735 25.0659219923091 25.043947994872735 25.043947994872735 25.043947994872735 25.043947994872735 25.043947994872735 25.043947994872735 25.043947994872735 25.043947994872735 25.043947994872735 25.043947994872735 25.043947994872735 25.043947994872735 25.043947994872735 25.043947994872735 25.043947994872735 25.043947994872735 25.043947994872735 25.043947994872735 25.043947994872735 25.043947994872735 25.043947994872735 25.043947994872735 25.043947994872735 25.043947994872735 25.043947994872735 25.043947994872735 25.043947994872735 25.043947994872735 25.043947994872735 25.021973997436366 25.021973997436366 25.043947994872735 25.043947994872735 25.043947994872735 25.043947994872735 25.043947994872735 25.043947994872735 25.043947994872735 25.043947994872735 25.043947994872735 25.021973997436366 25.043947994872735 25.043947994872735 25.043947994872735 25.043947994872735 25.043947994872735 25.043947994872735 25.043947994872735 25.043947994872735 25.043947994872735 25.043947994872735 25.043947994872735 25.043947994872735 25.043947994872735 25.043947994872735 25.043947994872735 25.043947994872735 25.043947994872735 25.043947994872735 25.043947994872735 25.043947994872735 25.043947994872735 25.043947994872735 25.043947994872735 25.043947994872735 25.043947994872735 25.043947994872735 25.043947994872735 25.043947994872735 25.043947994872735 25.043947994872735 25.043947994872735 25.043947994872735 25.043947994872735 25.043947994872735 25.043947994872735 25.043947994872735 25.043947994872735 25.043947994872735 25.043947994872735 25.043947994872735 25.043947994872735 25.0659219923091 25.0659219923091 25.043947994872735 25.043947994872735 25.043947994872735 25.043947994872735 25.043947994872735 25.043947994872735 25.043947994872735 25.043947994872735 25.043947994872735 25.043947994872735 25.043947994872735 25.043947994872735 25.043947994872735 25.043947994872735 25.043947994872735 25.043947994872735 25.043947994872735 25.043947994872735 25.043947994872735 25.043947994872735 25.043947994872735 25.043947994872735 25.043947994872735 25.043947994872735 25.043947994872735 25.043947994872735 25.043947994872735 25.043947994872735 25.043947994872735 25.043947994872735 25.043947994872735 25.043947994872735 25.043947994872735 25.043947994872735 25.043947994872735 25.043947994872735 25.043947994872735 25.043947994872735 25.021973997436366 25.043947994872735 25.021973997436366 25.043947994872735 25.021973997436366 25.021973997436366 25.043947994872735 25.021973997436366 25.021973997436366 25.043947994872735 25.021973997436366 25.021973997436366 25.043947994872735 25.021973997436366 25.021973997436366 25.021973997436366 25.021973997436366 25.021973997436366 25.021973997436366 25.021973997436366 25.021973997436366 25.021973997436366 25.021973997436366 25.021973997436366 25.021973997436366 25.021973997436366 25.021973997436366 25.021973997436366 25.021973997436366 25.021973997436366 25.021973997436366 25.021973997436366 25.021973997436366 25.021973997436366 25.021973997436366 25.021973997436366 25.021973997436366 25.021973997436366 25.021973997436366 25.021973997436366 25.021973997436366 25.021973997436366 25.021973997436366 25.043947994872735 25.021973997436366 25.021973997436366 25.021973997436366 25.021973997436366 25.021973997436366 25.021973997436366 25.021973997436366 25.021973997436366 25.021973997436366 25.021973997436366 25.021973997436366 25.021973997436366 25.021973997436366 25.021973997436366 25.021973997436366 25.021973997436366 25.021973997436366 25.021973997436366 25.021973997436366 25.021973997436366 25.021973997436366 25.021973997436366 25.021973997436366 25.021973997436366 25.021973997436366 25.021973997436366 25.021973997436366 25.021973997436366 25.021973997436366 25.021973997436366 25.021973997436366 25.021973997436366 25.021973997436366 25.021973997436366 25.021973997436366 25.021973997436366 25.021973997436366 25.021973997436366 25.021973997436366 25.021973997436366 25.021973997436366 25.021973997436366 25.021973997436366 25.021973997436366 25.021973997436366 25.021973997436366 25.021973997436366 25.021973997436366 25.021973997436366 25.021973997436366 25.021973997436366 25.021973997436366 25.021973997436366 25.021973997436366 25.0 25.021973997436366 25.021973997436366 25.0 25.021973997436366 25.021973997436366 25.021973997436366 25.021973997436366 25.021973997436366 25.043947994872735 25.043947994872735 25.043947994872735 25.043947994872735 25.043947994872735 25.043947994872735 25.043947994872735 25.043947994872735 25.0659219923091 25.0659219923091 25.0659219923091 25.0659219923091 25.08789598974547 25.08789598974547 25.109869987181835 25.109869987181835 25.109869987181835 25.1318439846182 25.1318439846182 25.175791979490935 25.30763596410914 25.395531953854604 25.461453946163708 25.549349935909174 25.637245925654643 25.703167917963743 25.813037905145578 25.878959897454678 25.966855887200147 26.07672587438198 26.14264786669108 26.252517853872916 26.36238784105475 26.472257828236586 26.58212781541842 26.691997802600255 26.933711774400294 27.373191723127633 27.614905694927668 28.05438564365501 28.34004761032778 28.64768357443692 29.109137520600623 29.570591466764327 30.054019410364404 30.559421351400843 30.932979307819082 31.43838124885552 31.767991210401025 32.09760117194653 32.712873100164806 33.04248306171031 33.569859000183115 34.09723493865592 34.47079289507416 35.08606482329244 35.72331074894708 36.118842702801686 36.73411463101996 37.2395165720564 37.87676249771104 38.60190441311115 39.370994323384 40.118110236220474 40.447720197765975 41.15088811572972 41.89800402856619 42.42537996703901 43.436183849111885 44.22724775682109 44.79857169016664 45.61160959531222 45.96319355429409 47.039919428676065 47.89690532869437 48.51217725691265 49.369163156930966 50.270097051822006 50.90734297747665 51.85222486724043 52.48947079289508 53.412378685222485 54.35726057498627 55.06042849295001 55.93938839040469 56.840322285295734 57.76323017762314 58.66416407251419 59.27943600073247 59.894707928950744 61.12525178538729 61.7185497161692 62.59750961362388 63.454495513642186 64.04779344442409 64.9047793444424 65.45412928035158 66.3111151803699 67.19007507782457 67.76139901117011 68.57443691631569 69.3655008240249 69.84892876762498 70.42025270097052 70.94762863944334 71.7606665445889 72.52975645486175 73.05713239333456 73.98004028566197 74.72715619849845 75.21058414209853 75.97967405237137 76.39718000366233 76.83665995238968 77.45193188060796 78.02325581395348 78.59457974729904 79.07800769089911 79.42959164988098 79.91301959348105 80.22065555759019 80.66013550631753 81.05566746017213 81.29738143197216 81.60501739608131 81.80278337300861 82.17634132942685 82.44002929866325 82.54989928584509 82.76963926020875 83.01135323200879 83.2091192089361 83.49478117560886 83.7364951474089 83.95623512177258 84.1320271012635 84.21992309100898 84.30781908075444 84.46163706280902 84.54953305255447 84.65940303973632 84.74729902948178 84.87914301409998 84.98901300128182 85.05493499359092 85.14283098333638 85.23072697308186 85.27467496795458 85.36257095770006 85.42849295000916 85.51638893975462 85.64823292437282 85.71415491668193 85.8020509064274 85.84599890130013 85.88994689617286 85.9338948910456 85.97784288591834 86.02179088079106 86.08771287310017 86.10968687053654 86.19758286028201 86.2635048525911 86.32942684490021 86.3953488372093 86.41732283464567 86.43929683208204 86.43929683208204 86.43929683208204 86.43929683208204 86.43929683208204 86.43929683208204 86.43929683208204 86.3953488372093 86.35140084233657 86.30745284746384 86.2635048525911 86.24153085515474 86.21955685771837 86.19758286028201 86.19758286028201 86.19758286028201 86.15363486540927 86.1316608679729 86.1316608679729 86.10968687053654 86.10968687053654 86.08771287310017 86.08771287310017 86.08771287310017 86.08771287310017 86.08771287310017 86.08771287310017 86.08771287310017 86.08771287310017 86.08771287310017 86.08771287310017 86.06573887566381 86.08771287310017 86.08771287310017 86.08771287310017 86.08771287310017 86.08771287310017 86.08771287310017 86.06573887566381 86.06573887566381 86.08771287310017 86.08771287310017 86.08771287310017 86.08771287310017 86.08771287310017 86.08771287310017 86.08771287310017 86.08771287310017 86.08771287310017 86.06573887566381 86.06573887566381 86.02179088079106 86.02179088079106 86.02179088079106 86.02179088079106 86.02179088079106 86.02179088079106 86.02179088079106 85.9998168833547 86.02179088079106 86.02179088079106 86.02179088079106 86.02179088079106 85.9998168833547 85.9998168833547 86.02179088079106 86.02179088079106 86.02179088079106 86.02179088079106 85.9998168833547 86.02179088079106 86.02179088079106 86.02179088079106 86.02179088079106 85.9998168833547 85.9998168833547 85.9998168833547 85.97784288591834 85.9338948910456 85.91192089360922 85.84599890130013 85.82402490386376 85.8020509064274 85.75810291155466 85.75810291155466 85.7361289141183 85.71415491668193 85.69218091924556 85.6702069218092 85.6702069218092 85.62625892693646 85.6042849295001 85.56033693462736 85.51638893975462 85.45046694744553 85.4065189525728 85.36257095770006 85.31862296282733 85.27467496795458 85.23072697308186 85.23072697308186 85.2087529756455 85.18677897820913 85.16480498077274 85.14283098333638 85.14283098333638 85.14283098333638 85.16480498077274 85.16480498077274 85.14283098333638 85.14283098333638 85.14283098333638 85.14283098333638 85.14283098333638 85.14283098333638 85.14283098333638 85.14283098333638 85.14283098333638 85.14283098333638 85.14283098333638 85.14283098333638 85.14283098333638 85.12085698590002 85.09888298846366 85.05493499359092 85.01098699871818 84.98901300128182 84.96703900384546 84.92309100897272 84.87914301409998 84.85716901666362 84.79124702435452 84.76927302691814 84.70335103460906 84.68137703717268 84.65940303973632 84.63742904229994 84.61545504486358 84.59348104742722 84.59348104742722 84.57150704999086 84.57150704999086 84.57150704999086 84.57150704999086 84.54953305255447 84.5275590551181 84.5275590551181 84.5275590551181 84.50558505768174 84.5275590551181 84.5275590551181 84.50558505768174 84.5275590551181 84.50558505768174 84.50558505768174 84.48361106024538 84.48361106024538 84.48361106024538 84.48361106024538 84.48361106024538 84.48361106024538 84.48361106024538 84.48361106024538 84.46163706280902 84.43966306537266 84.41768906793627 84.3957150704999 84.3957150704999 84.37374107306354 84.35176707562718 84.35176707562718 84.3297930781908 84.30781908075444 84.30781908075444 84.28584508331807 84.2638710858817 84.2638710858817 84.24189708844534 84.21992309100898 84.21992309100898 84.1979490935726 84.17597509613624 84.17597509613624 84.1320271012635 84.1320271012635 84.1320271012635 84.1320271012635 84.1320271012635 84.1320271012635 84.1320271012635 84.1320271012635 84.11005310382714 84.11005310382714 84.11005310382714 84.08807910639078 84.04413111151804 84.02215711408166 84.0001831166453 83.97820911920894 83.95623512177258 83.91228712689984 83.91228712689984 83.8683391320271 83.82439113715438 83.802417139718 83.78044314228164 83.75846914484526 83.7364951474089 83.71452114997254 83.69254715253618 83.69254715253618 83.67057315509979 83.69254715253618 83.69254715253618 83.67057315509979 83.67057315509979 83.67057315509979 83.67057315509979 83.67057315509979 83.67057315509979 83.69254715253618 83.67057315509979 83.67057315509979 83.67057315509979 83.67057315509979 83.67057315509979 83.67057315509979 83.67057315509979 83.67057315509979 83.67057315509979 83.67057315509979 83.67057315509979 83.67057315509979 83.67057315509979 83.67057315509979 83.67057315509979 83.69254715253618 83.69254715253618 83.71452114997254 83.7364951474089 83.75846914484526 83.78044314228164 83.82439113715438 83.84636513459074 83.8683391320271 83.8683391320271 83.8683391320271 83.8683391320271 83.8683391320271 83.8683391320271 83.78044314228164 83.69254715253618 83.56070316791798 83.3409631935543 83.23109320637246 83.01135323200879 82.76963926020875 82.61582127815419 82.35213330891779 82.17634132942685 81.86870536531771 81.38527742171763 81.1435634499176 80.92382347555393 80.63816150888115 80.30855154733565 79.71525361655375 79.4076176524446 78.96813770371728 78.52865775498992 78.24299578831716 77.80351583958982 77.58377586522616 77.10034792162608 76.66086797289874 76.3532320087896 76.00164804980773 75.58414209851676 75.29848013184399 74.74913019593481 74.57333821644387 74.13385826771653 73.58450833180737 73.18897637795277 72.61765244460722 71.78264054202528 71.38710858817066 70.81578465482514 70.42025270097052 70.02472074711591 69.40944881889763 68.99194286760667 68.04706097784288 67.32191906244277 66.83849111884271 66.15729719831532 65.73979124702436 65.10254532136972 64.48727339315144 64.04779344442409 63.476469511078555 62.971067570042116 62.59750961362388 62.11408167002381 61.56473173411463 61.19117377769639 60.70774583409632 60.33418787767808 59.674967954587075 59.08167002380517 58.46639809558689 57.93902215711408 57.54349020325947 57.257828236586704 57.21388024171397 56.9941402673503 56.57663431605933 56.115180369895626 55.71964841604102 55.21424647500458 54.84068851858634 54.29133858267717 53.67606665445889 53.214612708295185 52.53341878776781 52.0719648416041 51.36879692364036 50.709577000549345 50.050357077458344 49.654825123603736 49.105475187694566 48.73191723127633 47.96282732100348 47.61124336202161 47.23768540560337 46.468595495330526 46.09503753891229 45.65555759018495 44.99633766709394 44.6227797106757 44.05145577733016 43.67789782091192 43.172495879875484 42.62314594396631 42.24958798754807 41.72221204907526 41.21681010803882 40.88720014649331 40.403772202893244 40.096136238784105 39.4369163156931 39.107306354147596 38.75572239516572 38.25032045412928 37.7668925105292 37.4372825489837 36.822010620765425 36.51437465665629 36.07489470792895 35.70133675151071 35.45962277971068 35.10803882072881 34.86632484892877 34.51474088994689 34.16315693096502 33.943416956601354 33.61380699505585 33.306171030946714 32.998535066837576 32.800769089910276 32.49313312580114 32.2514191540011 31.87786119758286 31.636147225782825 31.21864127449185 30.625343343709943 30.29573338216444 29.812305438564366 29.438747482146127 29.109137520600623 28.53781358725508 28.25215162058231 28.076359641091376 27.96648965390954 27.90056766160044 27.834645669291337 27.81267167185497 27.74674967954587 27.724775682109502 27.724775682109502 27.68082768723677 27.658853689800402 27.636879692364037 27.527009705182202 27.461087712873102 27.395165720564 27.241347738509432 27.131477751327594 26.95568577183666 26.73594579747299 26.626075810291155 26.494231825672955 26.406335835927486 26.340413843618386 26.29646584874565 26.274491851309286 26.274491851309286 26.274491851309286 26.252517853872916 26.23054385643655 26.208569859000182 26.164621864127447 26.098699871818347 26.054751876945616 25.988829884636512 25.944881889763778 25.944881889763778 25.922907892327412 25.856985900018312 25.835011902581943 25.769089910272843 25.747115912836477 25.72514191540011 25.681193920527377 25.65921992309101 25.615271928218274 25.615271928218274 25.593297930781908 25.549349935909174 25.527375938472808 25.527375938472808 25.50540194103644 25.50540194103644 25.483427943600073 25.483427943600073 25.461453946163708 25.461453946163708 25.461453946163708 25.43947994872734 25.43947994872734 25.417505951290973 25.417505951290973 25.417505951290973 25.395531953854604 25.395531953854604 25.37355795641824 25.37355795641824 25.37355795641824 25.37355795641824 25.37355795641824 25.37355795641824 25.37355795641824 25.37355795641824 25.37355795641824 25.37355795641824 25.37355795641824 25.37355795641824 25.37355795641824 25.37355795641824 25.35158395898187 25.37355795641824 25.35158395898187 25.35158395898187 25.35158395898187 25.35158395898187 25.35158395898187 25.35158395898187 25.35158395898187 25.35158395898187 25.35158395898187 25.35158395898187 25.35158395898187 25.35158395898187 25.329609961545504 25.329609961545504 25.329609961545504 25.329609961545504 25.329609961545504 25.329609961545504 25.30763596410914 25.329609961545504 25.30763596410914 25.329609961545504 25.30763596410914 25.30763596410914 25.30763596410914 25.30763596410914 25.30763596410914 25.30763596410914 25.30763596410914 25.28566196667277 25.30763596410914 25.28566196667277 25.30763596410914 25.28566196667277 25.28566196667277 25.28566196667277 25.263687969236404 25.263687969236404 25.263687969236404 25.263687969236404 25.263687969236404 25.263687969236404 25.263687969236404 25.241713971800035 25.241713971800035 25.241713971800035 25.241713971800035 25.263687969236404 25.241713971800035 25.241713971800035 25.241713971800035 25.21973997436367 25.241713971800035 25.21973997436367 25.21973997436367 25.21973997436367 25.21973997436367 25.21973997436367 25.197765976927304 25.197765976927304 25.197765976927304 25.197765976927304 25.197765976927304 25.197765976927304 25.197765976927304 25.175791979490935 25.175791979490935 25.175791979490935 25.175791979490935 25.175791979490935 25.15381798205457 25.15381798205457 25.15381798205457 25.15381798205457 25.1318439846182 25.15381798205457 25.15381798205457 25.1318439846182 25.1318439846182 25.1318439846182 25.1318439846182 25.1318439846182 25.1318439846182 25.1318439846182 25.1318439846182 25.1318439846182 25.1318439846182 25.1318439846182 25.1318439846182 25.1318439846182 25.1318439846182 25.1318439846182 25.1318439846182 25.1318439846182 25.1318439846182 25.1318439846182 25.1318439846182 25.109869987181835 25.1318439846182 25.109869987181835 25.109869987181835 25.1318439846182 25.1318439846182 25.109869987181835 25.1318439846182 25.109869987181835 25.109869987181835 25.109869987181835 25.109869987181835 25.109869987181835 25.109869987181835 25.109869987181835 25.109869987181835 25.1318439846182 25.109869987181835 25.109869987181835 25.109869987181835 25.109869987181835 25.109869987181835 25.109869987181835 25.109869987181835 25.109869987181835 25.109869987181835 25.109869987181835 25.109869987181835 25.109869987181835 25.109869987181835 25.109869987181835 25.109869987181835 25.109869987181835 25.109869987181835 25.1318439846182 25.1318439846182 25.1318439846182 25.1318439846182 25.1318439846182 25.1318439846182 25.15381798205457 25.15381798205457 25.15381798205457 25.15381798205457 25.175791979490935 25.175791979490935 25.175791979490935 25.197765976927304 25.197765976927304 25.21973997436367 25.21973997436367 25.241713971800035 25.263687969236404 25.263687969236404 25.28566196667277 25.28566196667277 25.329609961545504 25.35158395898187 25.417505951290973 25.461453946163708 25.571323933345543 25.703167917963743 25.791063907709212 26.01080388207288 26.098699871818347 26.208569859000182 26.36238784105475 26.472257828236586 26.626075810291155 26.80186778978209 26.999633766709394 27.285295733382164 27.329243728254898 27.548983702618568 27.856619666727706 28.142281633400476 28.49386559238235 28.867423548800588 29.131111518036988 29.504669474455227 29.76835744369163 30.14191540010987 30.51547335652811 30.779161325764512 31.15271928218275 31.614173228346456 31.987731184764694 32.55905511811024 33.086431056583045 33.723676982237684 34.44881889763779 34.9761948361106 35.74528474638345 36.843984618201794 37.48123054385644 38.31624244643838 38.97546236952939 39.612708295184035 40.93114814136605 41.61234206189343 42.62314594396631 43.61197582860282 44.31514374656656 45.41384361838491 46.13898553378502 47.193737410730634 48.24848928767625 48.97363120307636 50.006409082585606 51.083134956967584 52.11591283647684 52.906976744186046 53.54422266984069 54.5330525544772 55.49990844167735 56.20307635964109 57.47756821095037 58.42245010071415 59.10364402124153 59.894707928950744 60.422083867423545 60.83958981871452 61.30104376487823 62.00421168284197 62.79527559055118 63.586339498260394 64.09174143929684 64.83885735213332 65.52005127266068 66.06940120856986 66.9044131111518 67.56363303424281 68.35469694195203 68.94799487273393 70.13459073429775 70.9036806445706 71.4310565830434 71.91448452664348 72.59567844717085 73.12305438564366 73.84819630104377 74.50741622413477 75.18861014466215 75.80388207288043 76.19941402673503 76.616919978026 77.276139901117 77.62772386009888 78.1550997985717 78.50668375755356 79.03405969602638 79.60538362937191 79.95696758835379 80.57223951657207 81.05566746017213 81.40725141915401 81.80278337300861 82.08844533968139 82.46200329609962 82.85753524995422 83.0772752243179 83.29701519868156 83.56070316791798 83.7364951474089 84.0001831166453 84.1320271012635 84.35176707562718 84.48361106024538 84.54953305255447 84.65940303973632 84.79124702435452 84.90111701153634 85.07690899102728 85.18677897820913 85.38454495513642 85.56033693462736 85.6702069218092 85.78007690899102 85.84599890130013 85.84599890130013 85.8679728987365 85.84599890130013 85.8679728987365 85.84599890130013 85.84599890130013 85.8020509064274 85.75810291155466 85.71415491668193 85.62625892693646 85.58231093206373 85.49441494231826 85.4065189525728 85.36257095770006 85.27467496795458 85.2087529756455 85.14283098333638 85.05493499359092 84.98901300128182 84.92309100897272 84.83519501922726 84.79124702435452 84.72532503204542 84.70335103460906 84.63742904229994 84.61545504486358 84.61545504486358 84.61545504486358 84.61545504486358 84.61545504486358 84.61545504486358 84.61545504486358 84.57150704999086 84.54953305255447 84.5275590551181 84.50558505768174 84.46163706280902 84.46163706280902 84.41768906793627 84.3957150704999 84.35176707562718 84.28584508331807 84.2638710858817 84.21992309100898 84.17597509613624 84.1320271012635 84.11005310382714 84.08807910639078 84.08807910639078 84.08807910639078 84.0661051089544 84.04413111151804 84.02215711408166 84.0001831166453 83.97820911920894 83.95623512177258 83.95623512177258 83.91228712689984 83.91228712689984 83.89031312946346 83.8683391320271 83.84636513459074 83.8683391320271 83.8683391320271 83.84636513459074 83.82439113715438 83.82439113715438 83.802417139718 83.802417139718 83.78044314228164 83.802417139718 83.802417139718 83.78044314228164 83.78044314228164 83.802417139718 83.78044314228164 83.78044314228164 83.75846914484526 83.7364951474089 83.7364951474089 83.7364951474089 83.71452114997254 83.71452114997254 83.69254715253618 83.69254715253618 83.69254715253618 83.64859915766343 83.64859915766343 83.62662516022706 83.6046511627907 83.58267716535434 83.56070316791798 83.53872917048159 83.53872917048159 83.53872917048159 83.53872917048159 83.53872917048159 83.53872917048159 83.53872917048159 83.53872917048159 83.53872917048159 83.51675517304523 83.53872917048159 83.53872917048159 83.53872917048159 83.53872917048159 83.53872917048159 83.53872917048159 83.51675517304523 83.53872917048159 83.51675517304523 83.53872917048159 83.53872917048159 83.53872917048159 83.53872917048159 83.53872917048159 83.53872917048159 83.51675517304523 83.51675517304523 83.51675517304523 83.51675517304523 83.51675517304523 83.51675517304523 83.51675517304523 83.51675517304523 83.51675517304523 83.51675517304523 83.51675517304523 83.51675517304523 83.49478117560886 83.51675517304523 83.51675517304523 83.51675517304523 83.51675517304523 83.51675517304523 83.51675517304523 83.51675517304523 83.51675517304523 83.51675517304523 83.51675517304523 83.51675517304523 83.49478117560886 83.51675517304523 83.51675517304523 83.51675517304523 83.51675517304523 83.51675517304523 83.51675517304523 83.49478117560886 83.45083318073613 83.38491118842703 83.36293719099066 83.31898919611793 83.29701519868156 83.25306720380883 83.23109320637246 83.2091192089361 83.18714521149973 83.14319721662699 83.12122321919063 83.05530122688153 83.05530122688153 83.03332722944516 83.05530122688153 83.03332722944516 83.05530122688153 83.05530122688153 83.05530122688153 83.05530122688153 83.05530122688153 83.03332722944516 83.05530122688153 83.05530122688153 83.05530122688153 83.0772752243179 83.05530122688153 83.05530122688153 83.0772752243179 83.0772752243179 83.0772752243179 83.0772752243179 83.05530122688153 83.0772752243179 83.0772752243179 83.0772752243179 83.0772752243179 83.0772752243179 83.0772752243179 83.0772752243179 83.0772752243179 83.0772752243179 83.0772752243179 83.0772752243179 83.09924922175426 83.0772752243179 83.0772752243179 83.0772752243179 83.0772752243179 83.01135323200879 82.90148324482695 82.8135872550815 82.72569126533602 82.57187328328145 82.39608130379051 82.33015931148142 82.17634132942685 82.11041933711775 81.97857535249955 81.82475737044497 81.62699139351767 81.45119941402675 81.1435634499176 80.96777147042667 80.66013550631753 80.50631752426295 80.35249954220839 80.13275956784472 79.95696758835379 79.73722761399011 79.34169566013551 79.05603369346274 78.63852774217176 78.37483977293536 77.93535982420804 77.53982787035342 77.276139901117 76.92455594213514 76.57297198315328 76.30928401391687 76.00164804980773 75.86980406518953 75.47427211133493 75.03479216260759 74.88097418055301 74.24372825489837 73.93609229078925 73.6284563266801 73.14502838308002 72.66160043947995 72.17817249587988 71.73869254715254 71.47500457791614 71.07947262406154 70.61801867789782 70.22248672404322 69.58524079838858 69.21168284197034 68.57443691631569 67.89324299578831 67.1681010803882 66.70664713422451 66.00347921626076 65.47610327778796 64.7729353598242 64.26753341878776 63.498443508514924 62.55356161875115 62.09210767258744 61.38893975462369 60.94945980589635 60.509979857169014 59.60904596227797 59.14759201611427 58.53232008789599 57.89507416224135 57.389672221204904 56.7304522981139 56.400842336568395 55.983336385277426 55.56583043398645 55.23622047244095 54.81871452114997 54.335286577549894 54.02765061344076 53.302508698040654 53.03882072880425 52.51144479033144 51.91814685954954 51.52261490569492 50.88536898004028 50.379967039003844 49.89653909540377 49.43508514924007 49.06152719282183 48.62204724409449 47.76506134407617 47.259659403039734 46.424647500457795 45.63358359274858 45.0183116645303 44.33711774400293 43.765793810657385 42.864859915766345 41.98590001831167 41.28273210034792 40.513642190075075 39.876396264420436 39.34902032594763 38.57993041567478 37.8328145028383 37.3713605566746 36.602270646401756 36.16279069767442 35.37172678996521 35.13001281816517 34.53671488738326 33.92144295916499 33.525911005310384 33.240249038637614 32.62497711041934 32.33931514374657 32.0536531770738 31.767991210401025 31.57022523347372 31.130745284746382 30.801135323200878 30.405603369346274 30.405603369346274 30.42757736678264 30.032045412928035 29.70243545138253 29.109137520600623 28.427943600073245 28.03241164621864 27.527009705182202 26.82384178721846 26.318439846182017 25.681193920527377 25.461453946163708 25.0659219923091 24.49459805896356 24.252884087163523 24.143014099981688 24.230910089727157 24.077092107672588 23.725508148690714 23.70353415125435 23.527742171763414 23.439846182017945 23.41787218458158 23.461820179454314 23.461820179454314 23.461820179454314 23.41787218458158 23.351950192272476 24.604468046145396 24.9340780076909 24.9340780076909 24.78026002563633 24.802234023072696 25.813037905145578 26.14264786669108 26.208569859000182 26.208569859000182 26.186595861563816 26.186595861563816 26.186595861563816 26.186595861563816 26.186595861563816 26.164621864127447 26.14264786669108 26.120673869254716 26.07672587438198 26.032777879509247 25.944881889763778 25.900933894891047 25.856985900018312 25.813037905145578 25.791063907709212 25.791063907709212 25.747115912836477 25.703167917963743 25.681193920527377 25.65921992309101 25.615271928218274 25.571323933345543 25.527375938472808 25.483427943600073 25.43947994872734 25.43947994872734 25.417505951290973 25.417505951290973 25.417505951290973 25.395531953854604 25.395531953854604 25.37355795641824 25.37355795641824 25.35158395898187 25.35158395898187 25.35158395898187 25.35158395898187 25.37355795641824 25.37355795641824 25.37355795641824 25.35158395898187 25.35158395898187 25.35158395898187 25.35158395898187 25.35158395898187 25.35158395898187 25.35158395898187 25.35158395898187 25.35158395898187 25.35158395898187 25.35158395898187 25.35158395898187 25.329609961545504 25.35158395898187 25.329609961545504 25.329609961545504 25.329609961545504 25.329609961545504 25.329609961545504 25.329609961545504 25.30763596410914 25.30763596410914 25.30763596410914 25.30763596410914 25.30763596410914 25.30763596410914 25.30763596410914 25.30763596410914 25.28566196667277 25.28566196667277 25.28566196667277 25.28566196667277 25.28566196667277 25.28566196667277 25.28566196667277 25.28566196667277 25.28566196667277 25.28566196667277 25.28566196667277 25.28566196667277 25.28566196667277 25.28566196667277 25.28566196667277 25.28566196667277 25.28566196667277 25.28566196667277 25.28566196667277 25.28566196667277 25.28566196667277 25.28566196667277 25.28566196667277 25.28566196667277 25.263687969236404 25.28566196667277 25.28566196667277 25.28566196667277 25.28566196667277 25.263687969236404 25.263687969236404 25.263687969236404 25.28566196667277 25.28566196667277 25.28566196667277 25.263687969236404 25.263687969236404 25.263687969236404 25.263687969236404 25.263687969236404 25.263687969236404 25.263687969236404 25.263687969236404 25.263687969236404 25.241713971800035 25.263687969236404 25.263687969236404 25.263687969236404 25.241713971800035 25.241713971800035 25.241713971800035 25.241713971800035 25.241713971800035 25.241713971800035 25.241713971800035 25.241713971800035 25.241713971800035 25.241713971800035 25.21973997436367 25.21973997436367 25.241713971800035 25.21973997436367 25.21973997436367 25.21973997436367 25.21973997436367 25.21973997436367 25.21973997436367 25.21973997436367 25.21973997436367 25.21973997436367 25.21973997436367 25.21973997436367 25.21973997436367 25.21973997436367 25.21973997436367 25.21973997436367 25.21973997436367 25.21973997436367 25.21973997436367 25.21973997436367 25.197765976927304 25.197765976927304 25.197765976927304 25.197765976927304 25.197765976927304 25.21973997436367 25.197765976927304 25.197765976927304 25.197765976927304 25.197765976927304 25.197765976927304 25.197765976927304 25.197765976927304 25.197765976927304 25.197765976927304 25.197765976927304 25.197765976927304 25.197765976927304 25.197765976927304 25.197765976927304 25.197765976927304 25.197765976927304 25.197765976927304 25.175791979490935 25.175791979490935 25.175791979490935 25.197765976927304 25.197765976927304 25.197765976927304 25.197765976927304 25.197765976927304 25.197765976927304 25.197765976927304 25.197765976927304 25.175791979490935 25.197765976927304 25.175791979490935 25.175791979490935 25.175791979490935 25.175791979490935 25.197765976927304 25.175791979490935 25.175791979490935 25.175791979490935 25.175791979490935 25.175791979490935 25.175791979490935 25.175791979490935 25.175791979490935 25.175791979490935 25.175791979490935 25.175791979490935 25.175791979490935 25.175791979490935 25.175791979490935 25.175791979490935 25.175791979490935 25.175791979490935 25.175791979490935 25.175791979490935 25.175791979490935 25.175791979490935 25.175791979490935 25.175791979490935 25.175791979490935 25.15381798205457 25.175791979490935 25.175791979490935 25.175791979490935 25.15381798205457 25.175791979490935 25.175791979490935 25.175791979490935 25.175791979490935 25.15381798205457 25.175791979490935 25.175791979490935 25.175791979490935 25.175791979490935 25.175791979490935 25.175791979490935 25.15381798205457 25.175791979490935 25.175791979490935 25.175791979490935 25.15381798205457 25.175791979490935 25.175791979490935 25.175791979490935 25.175791979490935 25.175791979490935 25.175791979490935 25.175791979490935 25.175791979490935 25.175791979490935 25.15381798205457 25.175791979490935 25.175791979490935 25.175791979490935 25.175791979490935 25.175791979490935 25.175791979490935 25.175791979490935 25.175791979490935 25.197765976927304 25.197765976927304 25.21973997436367 25.21973997436367 25.21973997436367 25.241713971800035 25.263687969236404 25.263687969236404 25.263687969236404 25.28566196667277 25.28566196667277 25.329609961545504 25.35158395898187 25.395531953854604 25.43947994872734 25.571323933345543 25.615271928218274 25.703167917963743 25.856985900018312 25.988829884636512 26.098699871818347 26.29646584874565 26.38436183849112 26.560153817982055 26.713971800036624 26.80186778978209 26.95568577183666 26.933711774400294 26.340413843618386 26.933711774400294 27.17542574620033 27.724775682109502 28.427943600073245 28.955319538546053 29.680461453946165 30.163889397546235 30.823109320637247 31.41640725141915 31.81193920527376 32.60300311298297 33.262223036073976 33.74565097967405 34.27302691814686 34.9761948361106 35.50357077458341 36.44845266434719 36.997802600256364 37.8328145028383 38.62387841054752 39.19520234389306 40.052188243911374 40.667460172129644 41.43655008240249 42.24958798754807 42.75498992858451 43.502105841420985 44.24922175425746 44.93041567478484 45.65555759018495 46.117011536348656 46.556491485075995 47.23768540560337 47.72111334920344 48.75389122871269 49.50100714154917 50.028383080021975 50.86339498260392 51.43471891594946 52.006042849295 52.81908075444058 53.67606665445889 54.401208569859 55.08240249038637 55.56583043398645 56.181102362204726 56.664530305804796 57.169932246841235 57.80717817249588 58.24665812122322 58.88390404687786 59.2574620032961 59.82878593664164 60.509979857169014 60.88353781358725 61.21314777513276 61.67460172129647 61.96026368796924 62.39974363669658 62.68540560336935 63.322651529023986 63.718183482878594 64.02581944698773 64.3114814136605 64.86083134956968 65.14649331624244 65.54202527009704 65.89360922907892 66.33308917780627 66.72862113166087 67.03625709577 67.40981505218824 67.82732100347921 68.09100897271563 68.50851492400659 68.79417689067935 69.18970884453397 69.5632668009522 69.80498077275224 70.17853872917048 70.46420069584326 70.66196667277055 71.05749862662516 71.25526460355246 71.4310565830434 71.78264054202528 71.95843252151622 72.20014649331624 72.44186046511629 72.61765244460722 72.88134041384362 73.1010803882073 73.38674235488006 73.71635231642557 73.95806628822561 74.30965024720747 74.72715619849845 74.99084416773485 75.47427211133493 75.78190807544406 76.37520600622597 76.66086797289874 76.9465299395715 77.34206189342612 77.71561984984436 77.97930781908076 78.39681377037172 78.59457974729904 78.81431972166271 78.99011170115364 79.07800769089911 79.18787767808094 79.20985167551731 79.29774766526278 79.38564365500824 79.45156564731734 79.56143563449919 79.64933162424464 79.78117560886285 79.86907159860831 79.95696758835379 80.08881157297199 80.24262955502655 80.35249954220839 80.63816150888115 80.83592748580847 80.98974546786303 81.20948544222671 81.36330342428127 81.49514740889947 81.73686138069951 81.89067936275407 82.11041933711775 82.28621131660869 82.41805530122689 82.59384728071782 82.74766526277239 82.83556125251786 82.9454312396997 83.01135323200879 83.09924922175426 83.18714521149973 83.25306720380883 83.31898919611793 83.3409631935543 83.38491118842703 83.38491118842703 83.38491118842703 83.36293719099066 83.36293719099066 83.38491118842703 83.38491118842703 83.38491118842703 83.36293719099066 83.36293719099066 83.3409631935543 83.29701519868156 83.25306720380883 83.2091192089361 83.18714521149973 83.16517121406336 83.16517121406336 83.14319721662699 83.16517121406336 83.14319721662699 83.14319721662699 83.14319721662699 83.12122321919063 83.14319721662699 83.14319721662699 83.14319721662699 83.14319721662699 83.12122321919063 83.14319721662699 83.16517121406336 83.14319721662699 83.14319721662699 83.14319721662699 83.14319721662699 83.16517121406336 83.16517121406336 83.18714521149973 83.2091192089361 83.25306720380883 83.25306720380883 83.25306720380883 83.27504120124519 83.27504120124519 83.27504120124519 83.27504120124519 83.27504120124519 83.27504120124519 83.27504120124519 83.27504120124519 83.27504120124519 83.27504120124519 83.27504120124519 83.27504120124519 83.25306720380883 83.27504120124519 83.27504120124519 83.27504120124519 83.25306720380883 83.27504120124519 83.27504120124519 83.27504120124519 83.27504120124519 83.27504120124519 83.27504120124519 83.27504120124519 83.27504120124519 83.27504120124519 83.27504120124519 83.27504120124519 83.27504120124519 83.27504120124519 83.27504120124519 83.27504120124519 83.27504120124519 83.27504120124519 83.27504120124519 83.27504120124519 83.27504120124519 83.27504120124519 83.25306720380883 83.25306720380883 83.25306720380883 83.25306720380883 83.25306720380883 83.23109320637246 83.23109320637246 83.23109320637246 83.25306720380883 83.25306720380883 83.25306720380883 83.23109320637246 83.25306720380883 83.23109320637246 83.23109320637246 83.23109320637246 83.23109320637246 83.2091192089361 83.23109320637246 83.2091192089361 83.2091192089361 83.18714521149973 83.16517121406336 83.14319721662699 83.12122321919063 83.09924922175426 83.0772752243179 83.03332722944516 82.98937923457243 82.96740523713606 82.9454312396997 82.9454312396997 82.92345724226331 82.92345724226331 82.92345724226331 82.90148324482695 82.90148324482695 82.90148324482695 82.90148324482695 82.92345724226331 82.90148324482695 82.90148324482695 82.90148324482695 82.90148324482695 82.90148324482695 82.90148324482695 82.90148324482695 82.90148324482695 82.87950924739059 82.85753524995422 82.85753524995422 82.83556125251786 82.83556125251786 82.83556125251786 82.83556125251786 82.83556125251786 82.83556125251786 82.85753524995422 82.83556125251786 82.83556125251786 82.85753524995422 82.85753524995422 82.85753524995422 82.85753524995422 82.85753524995422 82.85753524995422 82.85753524995422 82.85753524995422 82.85753524995422 82.85753524995422 82.85753524995422 82.85753524995422 82.85753524995422 82.85753524995422 82.85753524995422 82.87950924739059 82.87950924739059 82.85753524995422 82.85753524995422 82.87950924739059 82.87950924739059 82.85753524995422 82.87950924739059 82.87950924739059 82.85753524995422 82.85753524995422 82.85753524995422 82.85753524995422 82.85753524995422 82.85753524995422 82.85753524995422 82.85753524995422 82.85753524995422 82.85753524995422 82.83556125251786 82.8135872550815 82.76963926020875 82.68174327046329 82.59384728071782 82.50595129097235 82.33015931148142 82.19831532686322 82.00054934993591 81.86870536531771 81.56106940120857 81.29738143197216 81.12158945248123 80.92382347555393 80.63816150888115 80.44039553195387 79.95696758835379 79.69327961911739 79.29774766526278 78.96813770371728 78.70444973448086 78.30891778062626 77.91338582677164 77.64969785753524 77.23219190624428 76.92455594213514 76.50704999084417 76.0895440395532 75.80388207288043 75.10071415491669 74.63926020875297 74.17780626258927 73.60648232924373 73.12305438564366 72.57370444973449 71.6288225599707 71.167368613807 70.42025270097052 70.15656473173412 69.45339681377037 68.77220289324299 68.02508698040651 67.43178904962461 66.9044131111518 66.48690715986083 65.56399926753342 65.1684673136788 64.70701336751512 64.09174143929684 63.696209485442225 63.080937557223955 62.46566562900568 62.0481596777147 61.36696575718733 60.83958981871452 60.290239882805345 59.60904596227797 59.16956601355063 58.51034609045962 57.80717817249588 57.060062259659404 56.22505035707746 55.78557040835012 55.34609045962278 54.29133858267717 53.720014649331624 52.906976744186046 52.11591283647684 51.5445889031313 50.75352499542208 50.160227064640175 49.50100714154917 48.86376121589453 48.44625526460355 47.69913935176707 46.842153451748764 46.22688152353049 45.36989562351218 44.820545687603 44.02948177989379 43.436183849111885 43.062625892693646 42.44735396447537 41.98590001831167 41.83208203625709 41.12891411829335 40.513642190075075 39.942318256729536 39.26112433620216 38.88756637978392 38.31624244643838 37.85478850027467 37.52517853872917 36.997802600256364 36.624244643838125 36.22871268998352 35.87712873100165 35.59146676432888 35.32777879509247 35.19593481047427 34.69053286943783 34.31697491301959 34.09723493865592 33.789598974546784 33.459989013001284 33.284197033510345 32.69089910272844 32.4491851309284 32.2514191540011 31.89983519501923 31.59219923091009 31.28456326680095 30.647317341146312 30.51547335652811 30.119941402673504 29.746383446255265 29.065189525727888 28.47189159494598 27.834645669291337 27.527009705182202 27.219373741073063 26.95568577183666 26.58212781541842 26.29646584874565 25.813037905145578 25.571323933345543 25.461453946163708 25.395531953854604 25.241713971800035 25.109869987181835 24.538546053836292 24.230910089727157 23.92327412561802 23.879326130745284 24.582494048709027 24.34078007690899 24.208936092290788 24.077092107672588 23.945248123054384 23.813404138436184 23.63761215894525 23.61563816150888 23.48379417689068 23.813404138436184 23.967222120490753 23.76945614356345 23.61563816150888 23.791430140999818 23.967222120490753 24.27485808459989 24.252884087163523 24.27485808459989 24.27485808459989 24.230910089727157 23.945248123054384 23.879326130745284 23.92327412561802 23.945248123054384 23.945248123054384 23.98919611792712 24.27485808459989 25.966855887200147 26.054751876945616 26.01080388207288 25.922907892327412 25.835011902581943 25.791063907709212 25.72514191540011 25.681193920527377 25.637245925654643 25.615271928218274 25.571323933345543 25.527375938472808 25.483427943600073 25.461453946163708 25.461453946163708 25.43947994872734 25.43947994872734 25.417505951290973 25.417505951290973 25.395531953854604 25.395531953854604 25.37355795641824 25.35158395898187 25.35158395898187 25.35158395898187 25.329609961545504 25.329609961545504 25.30763596410914 25.28566196667277 25.28566196667277 25.263687969236404 25.263687969236404 25.263687969236404 25.263687969236404 25.263687969236404 25.241713971800035 25.241713971800035 25.21973997436367 25.21973997436367 25.21973997436367 25.21973997436367 25.21973997436367 25.21973997436367 25.21973997436367 25.21973997436367 25.21973997436367 25.21973997436367 25.21973997436367 25.21973997436367 25.21973997436367 25.197765976927304 25.21973997436367 25.21973997436367 25.21973997436367 25.197765976927304 25.21973997436367 25.21973997436367 25.21973997436367 25.197765976927304 25.21973997436367 25.197765976927304 25.197765976927304 25.197765976927304 25.197765976927304 25.197765976927304 25.197765976927304 25.197765976927304 25.197765976927304 25.197765976927304 25.197765976927304 25.197765976927304 25.197765976927304 25.197765976927304 25.197765976927304 25.197765976927304 25.197765976927304 25.197765976927304 25.197765976927304 25.175791979490935 25.175791979490935 25.175791979490935 25.175791979490935 25.175791979490935 25.175791979490935 25.175791979490935 25.175791979490935 25.175791979490935 25.175791979490935 25.175791979490935 25.175791979490935 25.175791979490935 25.175791979490935 25.175791979490935 25.175791979490935 25.175791979490935 25.175791979490935 25.175791979490935 25.175791979490935 25.175791979490935 25.175791979490935 25.197765976927304 25.197765976927304 25.197765976927304 25.197765976927304 25.21973997436367 25.21973997436367 25.241713971800035 25.263687969236404 25.28566196667277 25.28566196667277 25.30763596410914 25.35158395898187 25.395531953854604 25.483427943600073 25.549349935909174 25.637245925654643 25.72514191540011 25.856985900018312 26.01080388207288 26.098699871818347 26.29646584874565 26.406335835927486 26.60410181285479 26.867789782091194 27.087529756454863 27.614905694927668 27.988463651345906 28.31807361289141 29.109137520600623 29.570591466764327 29.944149423182566 30.801135323200878 31.24061527192822 31.94378318989196 32.646951107855706 33.152353048892145 33.89946896172862 34.47079289507416 35.28383080021974 36.118842702801686 36.668192638710856 37.54715253616554 38.42611243362022 39.370994323384 39.942318256729536 40.55759018494781 41.48049807727523 42.38143197216627 42.996703900384546 44.22724775682109 45.12818165171214 45.74345357993042 46.688335469694195 47.3475553927852 47.98480131843985 49.25929316974913 49.91851309284014 50.88536898004028 51.89617286211316 52.62131477751328 53.654092657022524 54.73081853140451 55.43398644936825 56.466764328877495 57.169932246841235 58.15876213147775 59.16956601355063 60.04852591100531 60.88353781358725 61.43288774949643 61.93828969053287 62.64145760849661 63.01501556491485 63.52041750595129 64.39937740340596 64.83885735213332 65.45412928035158 65.93755722395166 66.377037172679 67.08020509064274 67.78337300860647 68.72825489837027 68.9699688701703 69.71708478300678 70.50814869071598 70.99157663431606 71.69474455227981 72.35396447537082 72.85936641640725 73.54056033693463 73.98004028566197 74.68320820362571 75.58414209851676 76.04559604468047 76.4850759934078 77.0124519318806 77.36403589086248 77.93535982420804 78.30891778062626 78.99011170115364 79.47353964475371 79.82512360373559 80.17670756271745 80.74803149606299 81.05566746017213 81.40725141915401 81.62699139351767 81.93462735762681 82.24226332173595 82.44002929866325 82.72569126533602 82.98937923457243 83.18714521149973 83.45083318073613 83.6046511627907 83.8683391320271 84.1320271012635 84.30781908075444 84.63742904229994 84.81322102179088 85.01098699871818 85.36257095770006 85.64823292437282 85.84599890130013 86.10968687053654 86.30745284746384 86.57114081670024 86.76890679362754 86.9227247756821 87.09851675517305 87.20838674235489 87.31825672953671 87.42812671671855 87.51602270646401 87.60391869620949 87.66984068851858 87.71378868339133 87.77971067570043 87.82365867057317 87.88958066288225 87.91155466031863 87.93352865775499 87.91155466031863 87.91155466031863 87.91155466031863 87.91155466031863 87.91155466031863 87.91155466031863 87.91155466031863 87.91155466031863 87.88958066288225 87.88958066288225 87.86760666544589 87.84563266800953 87.84563266800953 87.84563266800953 87.86760666544589 87.84563266800953 87.84563266800953 87.86760666544589 87.86760666544589 87.84563266800953 87.86760666544589 87.86760666544589 87.86760666544589 87.86760666544589 87.86760666544589 87.86760666544589 87.86760666544589 87.86760666544589 87.86760666544589 87.86760666544589 87.84563266800953 87.86760666544589 87.84563266800953 87.86760666544589 87.86760666544589 87.86760666544589 87.86760666544589 87.86760666544589 87.86760666544589 87.86760666544589 87.86760666544589 87.86760666544589 87.86760666544589 87.86760666544589 87.84563266800953 87.84563266800953 87.84563266800953 87.77971067570043 87.73576268082769 87.69181468595497 87.66984068851858 87.62589269364585 87.62589269364585 87.60391869620949 87.60391869620949 87.62589269364585 87.62589269364585 87.62589269364585 87.64786669108221 87.64786669108221 87.64786669108221 87.66984068851858 87.71378868339133 87.73576268082769 87.77971067570043 87.82365867057317 87.82365867057317 87.84563266800953 87.84563266800953 87.84563266800953 87.84563266800953 87.84563266800953 87.84563266800953 87.84563266800953 87.84563266800953 87.84563266800953 87.84563266800953 87.84563266800953 87.84563266800953 87.84563266800953 87.84563266800953 87.84563266800953 87.84563266800953 87.82365867057317 87.84563266800953 87.82365867057317 87.84563266800953 87.82365867057317 87.82365867057317 87.82365867057317 87.82365867057317 87.82365867057317 87.82365867057317 87.80168467313679 87.77971067570043 87.75773667826405 87.71378868339133 87.66984068851858 87.62589269364585 87.58194469877311 87.55997070133675 87.49404870902765 87.45010071415491 87.42812671671855 87.38417872184581 87.38417872184581 87.38417872184581 87.38417872184581 87.38417872184581 87.38417872184581 87.38417872184581 87.38417872184581 87.38417872184581 87.38417872184581 87.38417872184581 87.38417872184581 87.40615271928218 87.40615271928218 87.40615271928218 87.42812671671855 87.42812671671855 87.42812671671855 87.45010071415491 87.47207471159129 87.47207471159129 87.47207471159129 87.47207471159129 87.51602270646401 87.49404870902765 87.51602270646401 87.49404870902765 87.51602270646401 87.49404870902765 87.49404870902765 87.49404870902765 87.49404870902765 87.47207471159129 87.47207471159129 87.47207471159129 87.49404870902765 87.47207471159129 87.49404870902765 87.47207471159129 87.45010071415491 87.42812671671855 87.45010071415491 87.42812671671855 87.45010071415491 87.45010071415491 87.45010071415491 87.42812671671855 87.42812671671855 87.45010071415491 87.45010071415491 87.45010071415491 87.45010071415491 87.42812671671855 87.45010071415491 87.42812671671855 87.45010071415491 87.45010071415491 87.45010071415491 87.45010071415491 87.47207471159129 87.47207471159129 87.47207471159129 87.47207471159129 87.49404870902765 87.49404870902765 87.47207471159129 87.49404870902765 87.47207471159129 87.49404870902765 87.47207471159129 87.49404870902765 87.47207471159129 87.47207471159129 87.47207471159129 87.47207471159129 87.49404870902765 87.51602270646401 87.53799670390038 87.55997070133675 87.60391869620949 87.62589269364585 87.64786669108221 87.69181468595497 87.69181468595497 87.71378868339133 87.75773667826405 87.77971067570043 87.80168467313679 87.80168467313679 87.77971067570043 87.75773667826405 87.73576268082769 87.66984068851858 87.53799670390038 87.40615271928218 87.16443874748215 86.94469877311849 86.48324482695477 86.32942684490021 86.15363486540927 85.75810291155466 85.31862296282733 84.96703900384546 84.3957150704999 84.11005310382714 83.67057315509979 83.25306720380883 82.9454312396997 82.70371726789965 82.19831532686322 81.91265336019043 81.51712140633583 81.20948544222671 80.74803149606299 80.04486357809925 79.64933162424464 79.20985167551731 78.59457974729904 78.11115180369896 77.47390587804432 77.05639992675334 76.28731001648049 75.73796008057133 75.34242812671673 74.77110419337117 74.35359824208021 73.91411829335286 73.01318439846182 72.48580845998902 71.73869254715254 71.01355063175242 70.53012268815235 69.80498077275224 69.12378685222487 68.68430690349753 68.00311298297015 67.56363303424281 66.86046511627907 66.22321919062443 65.76176524446072 64.9047793444424 64.5092473905878 64.06976744186046 63.432521516205824 62.993041567478485 62.33382164438748 61.45486174693279 61.01538179820545 60.444057864859914 59.916681926387106 59.433253982787036 58.81798205456876 58.22468412378685 57.58743819813221 56.972166269913934 56.57663431605933 56.13715436733199 55.78557040835012 55.12635048525911 54.57700054934993 54.11554660318623 53.478300677531585 52.797106757004215 52.31367881340414 51.65445889031313 51.03918696209485 50.68760300311298 50.116279069767444 49.654825123603736 48.92968320820363 48.27046328511261 47.3475553927852 46.468595495330526 45.78740157480315 44.8864676799121 43.699871818348285 43.414209851675515 42.864859915766345 42.27156198498443 41.91997802600257 41.52444607214796 41.17286211316609 40.052188243911374 39.26112433620216 38.86559238234756 38.18439846182018 37.34938655923823 37.195568577183664 36.887932613074526 36.712140633583594 36.360556674601725 36.184764695110786 36.118842702801686 35.87712873100165 35.50357077458341 35.19593481047427 34.7784288591833 34.47079289507416 34.25105292071049 33.98736495147409 33.635780992492215 33.350119025819446 33.086431056583045 32.60300311298297 32.1195751693829 31.74601721296466 31.50430324116462 31.394433253982786 30.954953305255447 30.383629371909905 30.097967405237135 29.570591466764327 29.021241530855153 28.669657571873284 28.362021607764145 28.142281633400476 28.03241164621864 27.527009705182202 27.219373741073063 26.648049807727524 26.757919794909355 26.80186778978209 26.560153817982055 26.23054385643655 26.186595861563816 26.120673869254716 26.07672587438198 25.966855887200147 25.944881889763778 25.856985900018312 25.791063907709212 25.703167917963743 25.637245925654643 25.549349935909174 25.50540194103644 25.50540194103644 26.252517853872916 26.42830983336385 26.472257828236586 26.406335835927486 26.340413843618386 26.186595861563816 26.054751876945616 25.944881889763778 25.878959897454678 25.856985900018312 25.856985900018312 25.835011902581943 25.791063907709212 25.747115912836477 25.72514191540011 25.703167917963743 25.681193920527377 25.637245925654643 25.593297930781908 25.593297930781908 25.593297930781908 25.571323933345543 25.549349935909174 25.527375938472808 25.527375938472808 25.527375938472808 25.50540194103644 25.483427943600073 25.483427943600073 25.43947994872734 25.43947994872734 25.417505951290973 25.395531953854604 25.395531953854604 25.37355795641824 25.37355795641824 25.37355795641824 25.37355795641824 25.35158395898187 25.35158395898187 25.35158395898187 25.35158395898187 25.329609961545504 25.35158395898187 25.329609961545504 25.329609961545504 25.329609961545504 25.30763596410914 25.329609961545504 25.30763596410914 25.329609961545504 25.329609961545504 25.329609961545504 25.30763596410914 25.30763596410914 25.30763596410914 25.30763596410914 25.30763596410914 25.30763596410914 25.30763596410914 25.30763596410914 25.30763596410914 25.28566196667277 25.28566196667277 25.28566196667277 25.28566196667277 25.28566196667277 25.28566196667277 25.28566196667277 25.28566196667277 25.263687969236404 25.263687969236404 25.263687969236404 25.263687969236404 25.263687969236404 25.263687969236404 25.263687969236404 25.263687969236404 25.263687969236404 25.263687969236404 25.241713971800035 25.263687969236404 25.241713971800035 25.241713971800035 25.241713971800035 25.241713971800035 25.241713971800035 25.241713971800035 25.241713971800035 25.241713971800035 25.241713971800035 25.241713971800035 25.21973997436367 25.21973997436367 25.21973997436367 25.21973997436367 25.21973997436367 25.21973997436367 25.21973997436367 25.21973997436367 25.21973997436367 25.21973997436367 25.21973997436367 25.21973997436367 25.21973997436367 25.21973997436367 25.21973997436367 25.197765976927304 25.21973997436367 25.21973997436367 25.21973997436367 25.21973997436367 25.197765976927304 25.197765976927304 25.21973997436367 25.21973997436367 25.197765976927304 25.197765976927304 25.197765976927304 25.197765976927304 25.197765976927304 25.197765976927304 25.197765976927304 25.197765976927304 25.197765976927304 25.197765976927304 25.197765976927304 25.197765976927304 25.197765976927304 25.197765976927304 25.197765976927304 25.197765976927304 25.197765976927304 25.175791979490935 25.197765976927304 25.197765976927304 25.175791979490935 25.197765976927304 25.175791979490935 25.197765976927304 25.175791979490935 25.197765976927304 25.197765976927304 25.175791979490935 25.175791979490935 25.175791979490935 25.175791979490935 25.197765976927304 25.197765976927304 25.175791979490935 25.175791979490935 25.175791979490935 25.175791979490935 25.175791979490935 25.175791979490935 25.175791979490935 25.175791979490935 25.175791979490935 25.175791979490935 25.175791979490935 25.175791979490935 25.175791979490935 25.175791979490935 25.175791979490935 25.175791979490935 25.175791979490935 25.175791979490935 25.175791979490935 25.175791979490935 25.175791979490935 25.15381798205457 25.175791979490935 25.175791979490935 25.175791979490935 25.175791979490935 25.175791979490935 25.175791979490935 25.175791979490935 25.175791979490935 25.175791979490935 25.175791979490935 25.175791979490935 25.175791979490935 25.175791979490935 25.175791979490935 25.175791979490935 25.175791979490935 25.175791979490935 25.175791979490935 25.175791979490935 25.175791979490935 25.175791979490935 25.175791979490935 25.175791979490935 25.175791979490935 25.175791979490935 25.175791979490935 25.175791979490935 25.175791979490935 25.175791979490935 25.175791979490935 25.15381798205457 25.175791979490935 25.175791979490935 25.175791979490935 25.175791979490935 25.175791979490935 25.175791979490935 25.175791979490935 25.175791979490935 25.175791979490935 25.175791979490935 25.175791979490935 25.175791979490935 25.175791979490935 25.175791979490935 25.175791979490935 25.175791979490935 25.175791979490935 25.197765976927304 25.197765976927304 25.197765976927304 25.197765976927304 25.197765976927304 25.197765976927304 25.197765976927304 25.197765976927304 25.197765976927304 25.21973997436367 25.21973997436367 25.21973997436367 25.21973997436367 25.21973997436367 25.21973997436367 25.21973997436367 25.241713971800035 25.241713971800035 25.241713971800035 25.241713971800035 25.263687969236404 25.30763596410914 25.329609961545504 25.35158395898187 25.417505951290973 25.50540194103644 25.571323933345543 25.703167917963743 25.835011902581943 25.944881889763778 26.098699871818347 26.252517853872916 26.494231825672955 26.757919794909355 27.02160776414576 27.307269730818533 27.527009705182202 27.81267167185497 28.47189159494598 28.823475553927853 29.372825489837027 29.9221754257462 30.29573338216444 30.823109320637247 31.37245925654642 31.767991210401025 32.36128914118294 32.800769089910276 33.48196301043765 34.09723493865592 34.58066288225599 35.17396081303791 35.61344076176525 36.316608679728986 37.041750595129095 37.52517853872917 38.57993041567478 39.370994323384 39.920344259293174 40.77733015931148 41.10694012085699 41.94195202343893 43.08459989013001 43.721845815784654 44.66672770554844 45.63358359274858 46.292803515839594 47.30360739791247 47.96282732100348 48.99560520051273 50.006409082585606 50.709577000549345 51.76432887749496 53.14869071598608 53.80791063907709 54.79674052371361 55.45596044680461 56.20307635964109 57.14795824940487 57.80717817249588 59.10364402124153 60.026551913568944 60.641823841787215 61.586705731551 62.31184764695111 62.94909357260575 64.04779344442409 64.68503937007874 65.65189525727888 66.59677714704267 67.25599707013367 68.17890496246109 69.14576084966123 69.7610327778795 70.63999267533418 71.2332906061161 72.11225050357078 72.99121040102546 73.562534334371 74.66123420618933 75.21058414209853 75.73796008057133 76.46310199597144 76.9465299395715 77.51785387291704 78.1550997985717 78.59457974729904 79.45156564731734 79.71525361655375 80.19868156015382 80.96777147042667 81.60501739608131 82.00054934993591 82.37410730635415 82.87950924739059 83.36293719099066 83.69254715253618 84.15400109869987 84.57150704999086 84.87914301409998 85.29664896539094 85.58231093206373 85.97784288591834 86.70298480131844 86.83482878593665 87.12049075260941 87.45010071415491 87.69181468595497 88.13129463468229 88.35103460904597 88.70261856802784 89.0542025270097 89.31789049624611 89.58157846548252 89.99908441677348 90.21882439113715 90.54843435268266 90.76817432704634 91.07581029115548 91.3175242629555 91.47134224501008 91.69108221937374 91.86687419886468 91.99871818348288 92.17451016297382 92.32832814502838 92.57004211682842 92.67991210401026 92.74583409631936 92.87767808093756 92.89965207837392 92.89965207837392 92.96557407068303 92.96557407068303 92.96557407068303 92.96557407068303 92.96557407068303 92.96557407068303 92.96557407068303 92.9216260758103 92.83373008606483 92.7897820911921 92.6579381065739 92.54806811939206 92.46017212964658 92.43819813221022 92.3942501373375 92.3942501373375 92.35030214246476 92.30635414759202 92.21845815784656 92.17451016297382 92.10858817066472 91.99871818348288 91.95477018861015 91.82292620399194 91.64713422450102 91.55923823475554 91.36147225782824 91.20765427577368 91.0538362937191 90.9219923091009 90.7901483244827 90.65830433986449 90.52646035524629 90.41659036806446 90.26277238600989 90.15290239882806 89.99908441677348 89.84526643471892 89.77934444240981 89.64750045779161 89.53763047060978 89.42776048342795 89.33986449368247 89.20802050906427 89.16407251419155 89.09815052188245 89.07617652444607 89.07617652444607 89.07617652444607 89.07617652444607 89.07617652444607 89.07617652444607 89.07617652444607 89.07617652444607 89.07617652444607 89.07617652444607 89.07617652444607 89.0542025270097 89.03222852957333 89.01025453213697 89.01025453213697 88.94433253982787 88.9223585423915 88.87841054751877 88.87841054751877 88.87841054751877 88.8564365500824 88.83446255264604 88.7905145577733 88.74656656290057 88.74656656290057 88.74656656290057 88.70261856802784 88.70261856802784 88.68064457059147 88.70261856802784 88.70261856802784 88.68064457059147 88.68064457059147 88.6586705731551 88.61472257828237 88.61472257828237 88.57077458340964 88.57077458340964 88.52682658853689 88.52682658853689 88.52682658853689 88.50485259110053 88.50485259110053 88.4609045962278 88.41695660135505 88.39498260391869 88.32906061160959 88.28511261673685 88.26313861930049 88.24116462186413 88.19721662699139 88.17524262955503 88.10932063724593 88.08734663980957 88.02142464750045 87.99945065006409 87.95550265519137 87.91155466031863 87.86760666544589 87.82365867057317 87.77971067570043 87.77971067570043 87.73576268082769 87.69181468595497 87.71378868339133 87.69181468595497 87.69181468595497 87.69181468595497 87.66984068851858 87.69181468595497 87.69181468595497 87.69181468595497 87.69181468595497 87.69181468595497 87.69181468595497 87.69181468595497 87.71378868339133 87.73576268082769 87.73576268082769 87.73576268082769 87.73576268082769 87.71378868339133 87.69181468595497 87.69181468595497 87.69181468595497 87.69181468595497 87.66984068851858 87.64786669108221 87.64786669108221 87.62589269364585 87.60391869620949 87.60391869620949 87.60391869620949 87.58194469877311 87.58194469877311 87.55997070133675 87.53799670390038 87.53799670390038 87.53799670390038 87.51602270646401 87.49404870902765 87.47207471159129 87.45010071415491 87.38417872184581 87.34023072697309 87.29628273210035 87.25233473722761 87.20838674235489 87.14246475004578 87.12049075260941 87.05456876030031 86.96667277055485 86.94469877311849 86.87877678080937 86.83482878593665 86.7908807910639 86.70298480131844 86.70298480131844 86.6590368064457 86.59311481413661 86.57114081670024 86.5271928218275 86.48324482695477 86.43929683208204 86.37337483977294 86.32942684490021 86.28547885002747 86.24153085515474 86.19758286028201 86.1316608679729 86.06573887566381 86.02179088079106 85.95586888848196 85.88994689617286 85.82402490386376 85.78007690899102 85.75810291155466 85.71415491668193 85.71415491668193 85.71415491668193 85.71415491668193 85.71415491668193 85.71415491668193 85.71415491668193 85.69218091924556 85.69218091924556 85.69218091924556 85.69218091924556 85.69218091924556 85.6702069218092 85.6042849295001 85.45046694744553 85.36257095770006 85.25270097051822 85.09888298846366 84.96703900384546 84.72532503204542 84.57150704999086 84.28584508331807 84.1320271012635 83.89031312946346 83.6046511627907 83.42885918329976 83.2091192089361 82.72569126533602 82.41805530122689 82.13239333455411 81.91265336019043 81.60501739608131 81.2754074345358 81.05566746017213 80.72605749862663 80.37447353964475 80.13275956784472 79.73722761399011 79.51748763962644 78.99011170115364 78.63852774217176 78.39681377037172 78.1550997985717 77.82548983702618 77.49587987548068 77.1442959164988 76.92455594213514 76.59494598058964 76.30928401391687 76.06757004211683 75.80388207288043 75.45229811389855 75.21058414209853 74.88097418055301 74.61728621131661 74.22175425746201 73.8262223036074 73.32082036257097 72.79344442409815 72.44186046511629 72.06830250869804 71.47500457791614 71.1014466214979 70.55209668558872 69.8269547701886 69.45339681377037 68.8381248855521 68.44259293169749 68.02508698040651 67.43178904962461 66.81651712140633 66.28914118293352 65.78373924189708 65.36623329060612 64.86083134956968 64.28950741622413 63.850027467496794 63.278703534151255 62.86119758286028 62.18000366233291 61.5207837392419 61.08130379051456 60.224317890496245 60.026551913568944 59.41127998535067 58.81798205456876 58.42245010071415 57.85112616736861 57.257828236586704 56.686504303241165 56.181102362204726 56.00531038271379 55.60977842885919 54.92858450833181 54.57700054934993 54.09357260574986 53.52224867240432 53.170664713422454 52.68723676982238 52.3356528108405 51.7423548800586 51.12708295184032 50.665629005676614 50.072331074894706 49.544955136421905 49.237319172312766 48.84178721845816 48.53415125434902 48.05072331074895 47.457425379967034 47.039919428676065 46.358725508148694 45.80937557223952 45.34792162607581 44.66672770554844 44.22724775682109 43.787767808093754 43.106573887566384 42.864859915766345 42.51327595678447 42.11774400292987 41.91997802600257 41.61234206189343 41.37062809009339 41.019044131111514 40.667460172129644 40.403772202893244 40.030214246475005 39.524812305438566 38.97546236952939 38.47006042849295 38.16242446438381 37.67899652078374 37.195568577183664 36.909906610510895 36.492400659219925 36.16279069767442 35.85515473356528 35.30580479765611 35.0421168284197 34.73448086431057 34.141182933528654 33.83354696941952 33.48196301043765 33.218275041201245 32.95458707196484 32.5151071232375 32.36128914118294 32.1195751693829 31.833913202710125 31.50430324116462 31.108771287310017 30.845083318073613 30.383629371909905 29.70243545138253 29.131111518036988 28.38399560520051 28.010437648782275 27.614905694927668 26.648049807727524 26.208569859000182 25.483427943600073 25.0 24.56052005127266 24.208936092290788 23.76945614356345 23.505768174327045 23.066288225599706 22.648782274308736 22.165354330708663 21.87969236403589 21.87969236403589 21.65995238967222 21.61600439479949 21.572056399926755 21.59403039736312 21.59403039736312 21.72587438198132 22.12140633583593 22.011536348654094 22.011536348654094 22.25325032045413 22.714704266617836 22.846548251236037 23.000366233290606 22.95641823841787 22.89049624610877 22.780626258926937 22.868522248672406 22.89049624610877 22.95641823841787 23.04431422816334 23.26405420252701 24.011170115363488 24.84618201794543 25.571323933345543 25.835011902581943 25.835011902581943 25.813037905145578 25.747115912836477 25.703167917963743 25.637245925654643 25.571323933345543 25.50540194103644 25.43947994872734 25.417505951290973 25.395531953854604 25.35158395898187 25.35158395898187 25.329609961545504 25.329609961545504 25.30763596410914 25.28566196667277 25.28566196667277 25.263687969236404 25.263687969236404 25.263687969236404 25.241713971800035 25.241713971800035 25.21973997436367 25.21973997436367 25.21973997436367 25.197765976927304 25.197765976927304 25.197765976927304 25.175791979490935 25.197765976927304 25.175791979490935 25.175791979490935 25.175791979490935 25.175791979490935 25.175791979490935 25.175791979490935 25.175791979490935 25.15381798205457 25.15381798205457 25.15381798205457 25.15381798205457 25.15381798205457 25.15381798205457 25.15381798205457 25.15381798205457 25.15381798205457 25.15381798205457 25.15381798205457 25.15381798205457 25.1318439846182 25.15381798205457 25.15381798205457 25.1318439846182 25.1318439846182 25.1318439846182 25.1318439846182 25.1318439846182 25.1318439846182 25.1318439846182 25.1318439846182 25.1318439846182 25.1318439846182 25.1318439846182 25.1318439846182 25.1318439846182 25.1318439846182 25.1318439846182 25.1318439846182 25.1318439846182 25.1318439846182 25.1318439846182 25.1318439846182 25.1318439846182 25.1318439846182 25.1318439846182 25.1318439846182 25.1318439846182 25.1318439846182 25.1318439846182 25.1318439846182 25.1318439846182 25.1318439846182 25.1318439846182 25.1318439846182 25.109869987181835 25.1318439846182 25.1318439846182 25.1318439846182 25.1318439846182 25.1318439846182 25.1318439846182 25.1318439846182 25.1318439846182 25.1318439846182 25.1318439846182 25.1318439846182 25.1318439846182 25.109869987181835 25.1318439846182 25.1318439846182 25.1318439846182 25.1318439846182 25.1318439846182 25.1318439846182 25.1318439846182 25.1318439846182 25.1318439846182 25.109869987181835 25.1318439846182 25.109869987181835 25.109869987181835 25.109869987181835 25.109869987181835 25.109869987181835 25.1318439846182 25.109869987181835 25.109869987181835 25.1318439846182 25.109869987181835 25.109869987181835 25.109869987181835 25.109869987181835 25.109869987181835 25.109869987181835 25.1318439846182 25.109869987181835 25.1318439846182 25.1318439846182 25.1318439846182 25.109869987181835 25.109869987181835 25.1318439846182 25.109869987181835 25.109869987181835 25.109869987181835 25.109869987181835 25.109869987181835 25.109869987181835 25.109869987181835 25.109869987181835 25.109869987181835 25.109869987181835 25.109869987181835 25.109869987181835 25.109869987181835 25.109869987181835 25.109869987181835 25.109869987181835 25.109869987181835 25.109869987181835 25.109869987181835 25.109869987181835 25.109869987181835 25.109869987181835 25.109869987181835 25.109869987181835 25.109869987181835 25.109869987181835 25.109869987181835 25.109869987181835 25.109869987181835 25.109869987181835 25.109869987181835 25.109869987181835 25.109869987181835 25.109869987181835 25.109869987181835 25.109869987181835 25.1318439846182 25.1318439846182 25.15381798205457 25.175791979490935 25.175791979490935 25.175791979490935 25.175791979490935 25.175791979490935 25.197765976927304 25.21973997436367 25.21973997436367 25.21973997436367 25.21973997436367 25.21973997436367 25.241713971800035 25.263687969236404 25.263687969236404 25.263687969236404 25.263687969236404 25.28566196667277 25.263687969236404 25.263687969236404 25.263687969236404 25.263687969236404 25.28566196667277 25.28566196667277 25.28566196667277 25.28566196667277 25.30763596410914 25.30763596410914 25.30763596410914 25.30763596410914 25.30763596410914 25.30763596410914 25.329609961545504 25.329609961545504 25.35158395898187 25.37355795641824 25.395531953854604 25.417505951290973 25.483427943600073 25.593297930781908 25.703167917963743 25.747115912836477 25.813037905145578 25.856985900018312 25.966855887200147 26.032777879509247 26.098699871818347 26.208569859000182 26.23054385643655 26.164621864127447 25.966855887200147 25.878959897454678 25.65921992309101 25.65921992309101 25.681193920527377 25.483427943600073 24.34078007690899 24.055118110236222 24.077092107672588 24.077092107672588 24.472624061527192 24.78026002563633 25.35158395898187 25.791063907709212 26.032777879509247 26.60410181285479 27.065555759018494 27.790697674418606 29.262955502655192 29.8562534334371 30.559421351400843 31.262589269364586 31.57022523347372 32.00970518220106 32.97656106940121 33.635780992492215 34.38289690532869 34.8443508514924 35.50357077458341 36.360556674601725 36.843984618201794 37.7009705182201 37.89873649514741 38.66782640542025 39.370994323384 39.876396264420436 41.019044131111514 41.9639260208753 42.667093938839045 43.61197582860282 44.007507782457424 45.04028566196667 46.292803515839594 47.061893426112434 48.18256729536715 49.39113715436733 50.160227064640175 51.32484892876762 52.02801684673137 52.97289873649515 53.80791063907709 54.401208569859 55.28016846731368 56.049258377586526 56.664530305804796 57.67533418787768 58.11481413660502 58.53232008789599 59.1256180186779 59.54312396996887 60.356161875114445 61.03735579564182 61.54275773667826 62.24592565464201 62.72935359824208 63.16883354696942 64.06976744186046 64.53122138802416 65.21241530855156 65.95953122138803 66.4429591649881 67.19007507782457 67.73942501373375 68.57443691631569 69.3655008240249 69.8928767624977 70.66196667277055 71.3651345907343 71.87053653177074 72.79344442409815 73.29884636513458 73.7603003112983 74.41952023438931 74.85900018311665 75.6940120856986 76.11151803698957 76.59494598058964 77.03442592931697 77.34206189342612 77.58377586522616 78.1550997985717 78.46273576268084 78.8802417139718 79.16590368064458 79.64933162424464 80.13275956784472 80.46236952939023 80.92382347555393 81.38527742171763 81.67093938839041 82.06647134224502 82.33015931148142 82.72569126533602 83.0772752243179 83.31898919611793 83.69254715253618 84.02215711408166 84.24189708844534 84.61545504486358 84.83519501922726 85.05493499359092 85.31862296282733 85.45046694744553 85.64823292437282 85.82402490386376 85.9338948910456 86.06573887566381 86.15363486540927 86.2635048525911 86.41732283464567 86.46127082951841 86.50521882439114 86.54916681926387 86.54916681926387 86.57114081670024 86.57114081670024 86.57114081670024 86.54916681926387 86.57114081670024 86.57114081670024 86.57114081670024 86.54916681926387 86.57114081670024 86.57114081670024 86.57114081670024 86.57114081670024 86.57114081670024 86.57114081670024 86.54916681926387 86.57114081670024 86.57114081670024 86.54916681926387 86.54916681926387 86.57114081670024 86.54916681926387 86.54916681926387 86.54916681926387 86.54916681926387 86.54916681926387 86.54916681926387 86.54916681926387 86.54916681926387 86.54916681926387 86.5271928218275 86.5271928218275 86.50521882439114 86.46127082951841 86.43929683208204 86.3953488372093 86.37337483977294 86.35140084233657 86.32942684490021 86.30745284746384 86.28547885002747 86.28547885002747 86.2635048525911 86.24153085515474 86.21955685771837 86.19758286028201 86.17560886284564 86.17560886284564 86.15363486540927 86.15363486540927 86.1316608679729 86.10968687053654 86.10968687053654 86.10968687053654 86.10968687053654 86.10968687053654 86.08771287310017 86.06573887566381 86.06573887566381 86.02179088079106 86.02179088079106 86.02179088079106 85.9998168833547 86.02179088079106 85.9998168833547 85.9998168833547 85.97784288591834 85.97784288591834 85.95586888848196 85.95586888848196 85.9338948910456 85.9338948910456 85.9338948910456 85.95586888848196 85.9338948910456 85.9338948910456 85.9338948910456 85.9338948910456 85.9338948910456 85.9338948910456 85.9338948910456 85.9338948910456 85.9338948910456 85.91192089360922 85.8679728987365 85.84599890130013 85.8020509064274 85.75810291155466 85.7361289141183 85.71415491668193 85.69218091924556 85.69218091924556 85.6702069218092 85.64823292437282 85.62625892693646 85.62625892693646 85.58231093206373 85.56033693462736 85.538362937191 85.49441494231826 85.4724409448819 85.4724409448819 85.4724409448819 85.4724409448819 85.4724409448819 85.45046694744553 85.45046694744553 85.42849295000916 85.42849295000916 85.42849295000916 85.4065189525728 85.4065189525728 85.4065189525728 85.36257095770006 85.31862296282733 85.27467496795458 85.25270097051822 85.18677897820913 85.14283098333638 85.12085698590002 85.09888298846366 85.05493499359092 85.05493499359092 85.01098699871818 85.03296099615454 85.01098699871818 85.01098699871818 85.03296099615454 85.03296099615454 85.03296099615454 85.03296099615454 85.05493499359092 85.05493499359092 85.05493499359092 85.05493499359092 85.05493499359092 85.05493499359092 85.05493499359092 85.05493499359092 85.05493499359092 85.05493499359092 85.05493499359092 85.05493499359092 85.05493499359092 85.05493499359092 85.05493499359092 85.05493499359092 85.05493499359092 85.05493499359092 85.03296099615454 85.03296099615454 85.01098699871818 85.01098699871818 84.98901300128182 84.96703900384546 84.94506500640908 84.94506500640908 84.92309100897272 84.92309100897272 84.92309100897272 84.90111701153634 84.92309100897272 84.90111701153634 84.92309100897272 84.90111701153634 84.90111701153634 84.90111701153634 84.90111701153634 84.90111701153634 84.90111701153634 84.87914301409998 84.87914301409998 84.83519501922726 84.81322102179088 84.76927302691814 84.74729902948178 84.74729902948178 84.70335103460906 84.70335103460906 84.68137703717268 84.65940303973632 84.65940303973632 84.65940303973632 84.65940303973632 84.65940303973632 84.65940303973632 84.65940303973632 84.65940303973632 84.65940303973632 84.65940303973632 84.65940303973632 84.65940303973632 84.65940303973632 84.65940303973632 84.65940303973632 84.65940303973632 84.65940303973632 84.65940303973632 84.65940303973632 84.63742904229994 84.57150704999086 84.5275590551181 84.50558505768174 84.43966306537266 84.41768906793627 84.35176707562718 84.24189708844534 84.17597509613624 84.08807910639078 84.02215711408166 83.91228712689984 83.78044314228164 83.69254715253618 83.51675517304523 83.38491118842703 83.2091192089361 83.01135323200879 82.87950924739059 82.70371726789965 82.52792528840871 82.39608130379051 82.19831532686322 82.04449734480863 81.82475737044497 81.53909540377221 81.42922541659037 81.29738143197216 81.1435634499176 81.0117194652994 80.83592748580847 80.70408350119027 80.48434352682659 80.30855154733565 80.19868156015382 80.08881157297199 79.97894158579015 79.82512360373559 79.73722761399011 79.671305621681 79.60538362937191 79.56143563449919 79.51748763962644 79.45156564731734 79.31972166269914 79.23182567295368 79.03405969602638 78.90221571140816 78.6824757370445 78.46273576268084 78.2869437831899 77.91338582677164 77.73759384728072 77.60574986266252 77.38600988829884 77.25416590368064 77.05639992675334 76.77073796008057 76.59494598058964 76.39718000366233 76.2213880241714 76.0895440395532 75.71598608313496 75.5621681010804 75.12268815235305 74.70518220106207 74.41952023438931 74.06793627540745 73.67240432155283 73.38674235488006 72.88134041384362 72.50778245742538 71.91448452664348 71.34316059329794 70.9696026368797 70.39827870353415 70.02472074711591 69.4973448086431 69.01391686504303 68.64035890862479 67.98113898553379 67.65152902398827 67.12415308551547 66.61875114447903 66.377037172679 65.95953122138803 65.30031129829702 64.97070133675152 64.48727339315144 63.981871452114994 63.652261490569494 63.190807544405786 62.88317158029665 62.42171763413294 61.96026368796924 61.63065372642373 61.16919978026002 60.575901849478115 60.290239882805345 59.960629921259844 59.63101995971434 59.1256180186779 58.62021607764146 58.26863211865959 57.609412195568574 57.125984251968504 56.796374290423 56.444790331441126 56.09320637245926 55.87346639809559 55.39003845449551 55.14832448269547 54.77476652627723 54.29133858267717 53.93975462369529 53.302508698040654 53.060794726240616 52.48947079289508 51.8741988646768 51.5445889031313 50.99523896722212 50.379967039003844 49.852591100531036 49.39113715436733 49.06152719282183 48.70994323383995 48.16059329793078 47.67716535433071 46.622413477385095 45.94121955685772 45.52371360556674 44.66672770554844 44.09540377220289 43.54605383629372 42.776963926020876 42.35945797472991 41.94195202343893 41.74418604651163 41.45852407983885 41.23878410547519 40.88720014649331 40.27192821827504 39.6346822926204 39.28309833363853 38.88756637978392 38.40413843618385 37.59110053103827 36.80003662332906 36.58029664896539 36.294634682292624 35.59146676432888 35.30580479765611 34.73448086431057 34.38289690532869 34.03131294634682 33.635780992492215 33.39406702069218 32.998535066837576 32.62497711041934 32.4491851309284 32.1195751693829 31.68009522065556 31.174693279619117 30.735213330891778 30.471525361655374 29.834279436000735 29.48269547701886 29.043215528291523 28.076359641091376 27.658853689800402 26.757919794909355 25.637245925654643 25.21973997436367 24.69236403589086 24.099066105108953 23.725508148690714 22.758652261490568 22.451016297381432 21.87969236403589 21.52810840505402 21.198498443508516 20.956784471708477 20.824940487090277 20.693096502472073 20.561252517853873 20.495330525544773 20.51730452298114 20.58322651529024 20.693096502472073 20.868888481963012 20.912836476835743 20.912836476835743 21.044680461453947 21.22047244094488 21.52810840505402 21.59403039736312 21.637978392235855 21.989562351217725 22.560886284563267 22.472990294817798 22.648782274308736 22.692730269181467 22.714704266617836 22.736678264054202 22.82457425379967 22.89049624610877 22.912470243545137 23.000366233290606 23.088262223036075 23.088262223036075 23.19813221021791 23.791430140999818 24.143014099981688 24.56052005127266 24.802234023072696 24.956052005127265 25.08789598974547 25.329609961545504 25.593297930781908 25.681193920527377 25.681193920527377 25.681193920527377 25.681193920527377 25.681193920527377 25.637245925654643 25.637245925654643 25.615271928218274 25.593297930781908 25.571323933345543 25.527375938472808 25.50540194103644 25.483427943600073 25.461453946163708 25.417505951290973 25.395531953854604 25.35158395898187 25.329609961545504 25.329609961545504 25.329609961545504 25.30763596410914 25.30763596410914 25.30763596410914 25.28566196667277 25.28566196667277 25.28566196667277 25.28566196667277 25.28566196667277 25.263687969236404 25.263687969236404 25.263687969236404 25.263687969236404 25.263687969236404 25.241713971800035 25.241713971800035 25.241713971800035 25.241713971800035 25.241713971800035 25.241713971800035 25.241713971800035 25.241713971800035 25.241713971800035 25.241713971800035 25.241713971800035 25.241713971800035 25.241713971800035 25.241713971800035 25.21973997436367 25.21973997436367 25.21973997436367 25.21973997436367 25.21973997436367 25.21973997436367 25.21973997436367 25.21973997436367 25.21973997436367 25.21973997436367 25.197765976927304 25.21973997436367 25.21973997436367 25.197765976927304 25.197765976927304 25.197765976927304 25.197765976927304 25.197765976927304 25.197765976927304 25.197765976927304 25.197765976927304 25.197765976927304 25.197765976927304 25.197765976927304 25.197765976927304 25.175791979490935 25.197765976927304 25.175791979490935 25.175791979490935 25.197765976927304 25.175791979490935 25.175791979490935 25.175791979490935 25.175791979490935 25.175791979490935 25.175791979490935 25.175791979490935 25.175791979490935 25.175791979490935 25.175791979490935 25.15381798205457 25.15381798205457 25.15381798205457 25.15381798205457 25.15381798205457 25.15381798205457 25.15381798205457 25.15381798205457 25.175791979490935 25.15381798205457 25.15381798205457 25.15381798205457 25.15381798205457 25.15381798205457 25.15381798205457 25.15381798205457 25.1318439846182 25.15381798205457 25.1318439846182 25.15381798205457 25.1318439846182 25.1318439846182 25.1318439846182 25.1318439846182 25.1318439846182 25.1318439846182 25.1318439846182 25.1318439846182 25.1318439846182 25.1318439846182 25.1318439846182 25.1318439846182 25.1318439846182 25.1318439846182 25.1318439846182 25.1318439846182 25.1318439846182 25.1318439846182 25.1318439846182 25.1318439846182 25.1318439846182 25.1318439846182 25.109869987181835 25.1318439846182 25.1318439846182 25.109869987181835 25.109869987181835 25.1318439846182 25.109869987181835 25.109869987181835 25.109869987181835 25.109869987181835 25.109869987181835 25.109869987181835 25.109869987181835 25.109869987181835 25.109869987181835 25.109869987181835 25.109869987181835 25.1318439846182 25.109869987181835 25.109869987181835 25.109869987181835 25.109869987181835 25.1318439846182 25.109869987181835 25.1318439846182 25.1318439846182 25.109869987181835 25.109869987181835 25.109869987181835 25.109869987181835 25.109869987181835 25.109869987181835 25.109869987181835 25.109869987181835 25.109869987181835 25.109869987181835 25.109869987181835 25.109869987181835 25.109869987181835 25.109869987181835 25.109869987181835 25.109869987181835 25.109869987181835 25.109869987181835 25.109869987181835 25.109869987181835 25.1318439846182 25.109869987181835 25.1318439846182 25.1318439846182 25.109869987181835 25.1318439846182 25.1318439846182 25.1318439846182 25.1318439846182 25.1318439846182 25.1318439846182 25.1318439846182 25.1318439846182 25.1318439846182 25.1318439846182 25.15381798205457 25.15381798205457 25.15381798205457 25.175791979490935 25.175791979490935 25.175791979490935 25.175791979490935 25.175791979490935 25.175791979490935 25.197765976927304 25.197765976927304 25.21973997436367 25.263687969236404 25.263687969236404 25.30763596410914 25.329609961545504 25.37355795641824 25.417505951290973 25.43947994872734 25.50540194103644 25.549349935909174 25.615271928218274 25.681193920527377 25.72514191540011 25.835011902581943 25.922907892327412 26.01080388207288 25.417505951290973 25.1318439846182 24.121040102545322 23.879326130745284 23.70353415125435 23.505768174327045 23.461820179454314 23.351950192272476 23.41787218458158 23.461820179454314 23.725508148690714 23.85735213330892 23.967222120490753 23.945248123054384 23.967222120490753 24.538546053836292 24.956052005127265 25.527375938472808 26.58212781541842 27.614905694927668 28.12030763596411 28.91137154367332 29.284929500091557 29.746383446255265 30.22981138985534 30.669291338582678 31.21864127449185 31.74601721296466 31.987731184764694 32.95458707196484 33.284197033510345 33.61380699505585 34.207104925837754 35.08606482329244 35.74528474638345 37.2395165720564 37.98663248489288 38.90954037722029 39.32704632851126 39.7006042849295 40.73338216443875 41.45852407983885 42.64511994140267 43.721845815784654 44.60080571323933 45.58963559787585 46.248855520966856 47.30360739791247 48.44625526460355 49.14942318256729 50.248123054385644 51.30287493133126 51.98406885185864 52.994872733931516 53.91778062625893 54.48910455960447 55.60977842885919 56.312946346822926 57.58743819813221 58.51034609045962 59.10364402124153 59.960629921259844 60.61984984435085 61.586705731551 62.57553561618751 63.212781541842155 64.1137154367332 64.75096136238784 65.43215528291522 66.3111151803699 66.94836110602454 67.87126899835195 68.8381248855521 69.45339681377037 70.26643471891595 71.12342061893426 72.0243545138253 72.85936641640725 73.12305438564366 73.8921442959165 74.61728621131661 75.12268815235305 76.13349203442593 76.5509979857169 77.18824391137156 77.80351583958982 78.2210217908808 78.66050173960812 79.42959164988098 79.82512360373559 80.39644753708112 80.74803149606299 81.25343343709943 81.82475737044497 82.08844533968139 82.35213330891779 82.65976927302691 82.87950924739059 83.18714521149973 83.38491118842703 83.802417139718 84.11005310382714 84.3297930781908 84.63742904229994 84.85716901666362 85.07690899102728 85.42849295000916 85.62625892693646 85.8679728987365 86.06573887566381 86.21955685771837 86.35140084233657 86.43929683208204 86.46127082951841 86.46127082951841 86.46127082951841 86.46127082951841 86.46127082951841 86.41732283464567 86.35140084233657 86.30745284746384 86.2635048525911 86.21955685771837 86.19758286028201 86.17560886284564 86.15363486540927 86.15363486540927 86.15363486540927 86.15363486540927 86.15363486540927 86.15363486540927 86.15363486540927 86.15363486540927 86.1316608679729 86.15363486540927 86.15363486540927 86.15363486540927 86.15363486540927 86.1316608679729 86.15363486540927 86.1316608679729 86.10968687053654 86.10968687053654 86.10968687053654 86.10968687053654 86.08771287310017 86.06573887566381 86.02179088079106 85.97784288591834 85.97784288591834 85.95586888848196 85.95586888848196 85.95586888848196 85.95586888848196 85.95586888848196 85.9338948910456 85.88994689617286 85.8679728987365 85.8679728987365 85.8679728987365 85.84599890130013 85.84599890130013 85.84599890130013 85.82402490386376 85.82402490386376 85.8020509064274 85.75810291155466 85.75810291155466 85.7361289141183 85.71415491668193 85.71415491668193 85.71415491668193 85.71415491668193 85.71415491668193 85.71415491668193 85.69218091924556 85.6702069218092 85.6702069218092 85.58231093206373 85.58231093206373 85.538362937191 85.49441494231826 85.4724409448819 85.42849295000916 85.4065189525728 85.4065189525728 85.38454495513642 85.36257095770006 85.36257095770006 85.36257095770006 85.36257095770006 85.3405969602637 85.3405969602637 85.36257095770006 85.36257095770006 85.3405969602637 85.36257095770006 85.36257095770006 85.36257095770006 85.3405969602637 85.3405969602637 85.3405969602637 85.36257095770006 85.36257095770006 85.36257095770006 85.36257095770006 85.3405969602637 85.36257095770006 85.36257095770006 85.3405969602637 85.3405969602637 85.31862296282733 85.31862296282733 85.3405969602637 85.31862296282733 85.31862296282733 85.3405969602637 85.3405969602637 85.3405969602637 85.3405969602637 85.31862296282733 85.31862296282733 85.31862296282733 85.31862296282733 85.31862296282733 85.31862296282733 85.31862296282733 85.3405969602637 85.31862296282733 85.31862296282733 85.31862296282733 85.31862296282733 85.3405969602637 85.36257095770006 85.36257095770006 85.36257095770006 85.38454495513642 85.38454495513642 85.38454495513642 85.4065189525728 85.4065189525728 85.42849295000916 85.42849295000916 85.45046694744553 85.45046694744553 85.45046694744553 85.45046694744553 85.45046694744553 85.45046694744553 85.45046694744553 85.45046694744553 85.45046694744553 85.45046694744553 85.45046694744553 85.45046694744553 85.45046694744553 85.42849295000916 85.42849295000916 85.42849295000916 85.4065189525728 85.4065189525728 85.4065189525728 85.4065189525728 85.42849295000916 85.4065189525728 85.4065189525728 85.4065189525728 85.4065189525728 85.4065189525728 85.4065189525728 85.4065189525728 85.4065189525728 85.4065189525728 85.4065189525728 85.4065189525728 85.36257095770006 85.31862296282733 85.29664896539094 85.2087529756455 85.09888298846366 85.05493499359092 85.03296099615454 85.01098699871818 84.98901300128182 84.98901300128182 84.96703900384546 84.96703900384546 84.96703900384546 84.96703900384546 84.98901300128182 84.96703900384546 84.98901300128182 84.98901300128182 84.98901300128182 84.98901300128182 84.98901300128182 84.98901300128182 84.96703900384546 84.96703900384546 84.96703900384546 84.94506500640908 84.92309100897272 84.90111701153634 84.87914301409998 84.85716901666362 84.85716901666362 84.85716901666362 84.85716901666362 84.85716901666362 84.85716901666362 84.85716901666362 84.85716901666362 84.85716901666362 84.83519501922726 84.79124702435452 84.79124702435452 84.79124702435452 84.76927302691814 84.76927302691814 84.76927302691814 84.76927302691814 84.74729902948178 84.72532503204542 84.72532503204542 84.72532503204542 84.72532503204542 84.72532503204542 84.70335103460906 84.70335103460906 84.68137703717268 84.68137703717268 84.65940303973632 84.63742904229994 84.61545504486358 84.59348104742722 84.57150704999086 84.57150704999086 84.57150704999086 84.57150704999086 84.59348104742722 84.59348104742722 84.57150704999086 84.54953305255447 84.5275590551181 84.5275590551181 84.5275590551181 84.5275590551181 84.50558505768174 84.50558505768174 84.48361106024538 84.46163706280902 84.43966306537266 84.41768906793627 84.41768906793627 84.41768906793627 84.3957150704999 84.41768906793627 84.41768906793627 84.41768906793627 84.3957150704999 84.3957150704999 84.37374107306354 84.37374107306354 84.35176707562718 84.35176707562718 84.3297930781908 84.28584508331807 84.21992309100898 84.15400109869987 84.04413111151804 84.02215711408166 84.0001831166453 83.97820911920894 83.95623512177258 83.97820911920894 83.97820911920894 84.0001831166453 84.0001831166453 84.0001831166453 84.0001831166453 84.0001831166453 84.0001831166453 84.0001831166453 84.0001831166453 84.0001831166453 84.0001831166453 84.0001831166453 84.0001831166453 84.02215711408166 84.0001831166453 84.0001831166453 84.0001831166453 84.02215711408166 84.04413111151804 84.04413111151804 84.08807910639078 84.08807910639078 84.11005310382714 84.08807910639078 84.11005310382714 84.08807910639078 84.02215711408166 83.9342611243362 83.78044314228164 83.67057315509979 83.53872917048159 83.2091192089361 83.05530122688153 82.79161325764511 82.54989928584509 82.39608130379051 82.04449734480863 81.62699139351767 81.29738143197216 80.79197949093573 80.26460355246292 79.95696758835379 79.4076176524446 78.83629371909907 78.2869437831899 77.89141182933528 77.53982787035342 77.0124519318806 76.6828419703351 76.19941402673503 75.54019410364401 75.18861014466215 74.72715619849845 74.28767624977111 73.4966123420619 72.74949642922542 72.33199047793445 71.56290056766161 70.99157663431606 70.24446072147958 69.60721479582494 69.25563083684307 68.66233290606115 68.06903497527925 67.65152902398827 66.99230910089727 66.46493316242447 65.8496612342062 65.30031129829702 64.94872733931514 64.5092473905878 63.80607947262406 63.366599523896724 62.88317158029665 62.50961362387841 61.9163156930965 61.30104376487823 60.90551181102362 60.312213880241714 59.674967954587075 59.16956601355063 58.51034609045962 58.13678813404138 57.45559421351401 56.77440029298663 56.400842336568395 55.82951840322285 55.17029848013185 54.75279252884087 54.15949459805896 53.720014649331624 52.70921076725874 52.18183482878594 51.4786669108222 50.75352499542208 50.314045046694744 49.45705914667643 48.84178721845816 48.53415125434902 47.87493133125801 47.2816334004761 46.973997436366965 46.57846548251236 46.117011536348656 45.80937557223952 45.39186962094854 45.15015564914851 44.7546236952939 44.205273759384724 43.98553378502106 43.74381981322102 43.436183849111885 43.216443874748215 42.95275590551181 42.776963926020876 42.38143197216627 42.0957700054935 41.85405603369347 41.54642006958433 41.37062809009339 41.019044131111514 40.579564182384175 40.27192821827504 39.744552279802235 39.19520234389306 38.77769639260209 37.8328145028383 37.5691265336019 37.28346456692913 37.041750595129095 36.887932613074526 36.843984618201794 36.426478666910825 36.20673869254715 35.87712873100165 35.72331074894708 35.48159677714705 35.06409082585607 34.7784288591833 33.943416956601354 33.32814502838308 32.88866507965574 32.49313312580114 32.09760117194653 31.94378318989196 31.41640725141915 31.28456326680095 30.691265336019043 30.20783739241897 29.746383446255265 29.350851492400658 28.669657571873284 28.34004761032778 27.81267167185497 27.351217725691264 26.73594579747299 26.14264786669108 25.65921992309101 25.0 24.472624061527192 24.077092107672588 23.57169016663615 22.97839223585424 22.407068302508698 22.18732832814503 21.637978392235855 21.74784837941769 21.72587438198132 21.65995238967222 21.44021241530855 21.50613440761765 22.03351034609046 22.165354330708663 22.363120307635963 23.154184215345175 23.57169016663615 23.725508148690714 23.593664164072514 23.57169016663615 23.54971616919978 23.505768174327045 23.505768174327045 23.48379417689068 23.527742171763414 23.593664164072514 23.747482146127084 24.318806079472623 24.802234023072696 25.0659219923091 25.28566196667277 25.856985900018312 25.856985900018312 25.813037905145578 25.769089910272843 25.72514191540011 25.681193920527377 25.637245925654643 25.593297930781908 25.549349935909174 25.527375938472808 25.50540194103644 25.483427943600073 25.461453946163708 25.461453946163708 25.43947994872734 25.417505951290973 25.417505951290973 25.417505951290973 25.395531953854604 25.395531953854604 25.37355795641824 25.37355795641824 25.37355795641824 25.37355795641824 25.35158395898187 25.35158395898187 25.35158395898187 25.35158395898187 25.329609961545504 25.329609961545504 25.329609961545504 25.329609961545504 25.30763596410914 25.30763596410914 25.30763596410914 25.28566196667277 25.28566196667277 25.28566196667277 25.28566196667277 25.28566196667277 25.263687969236404 25.263687969236404 25.263687969236404 25.263687969236404 25.263687969236404 25.263687969236404 25.241713971800035 25.241713971800035 25.241713971800035 25.241713971800035 25.241713971800035 25.241713971800035 25.241713971800035 25.241713971800035 25.241713971800035 25.241713971800035 25.241713971800035 25.241713971800035 25.21973997436367 25.21973997436367 25.21973997436367 25.21973997436367 25.21973997436367 25.21973997436367 25.21973997436367 25.21973997436367 25.21973997436367 25.21973997436367 25.21973997436367 25.21973997436367 25.21973997436367 25.21973997436367 25.21973997436367 25.21973997436367 25.21973997436367 25.21973997436367 25.197765976927304 25.21973997436367 25.197765976927304 25.197765976927304 25.197765976927304 25.197765976927304 25.197765976927304 25.197765976927304 25.197765976927304 25.197765976927304 25.197765976927304 25.197765976927304 25.197765976927304 25.197765976927304 25.197765976927304 25.197765976927304 25.197765976927304 25.175791979490935 25.175791979490935 25.197765976927304 25.197765976927304 25.197765976927304 25.197765976927304 25.197765976927304 25.175791979490935 25.175791979490935 25.197765976927304 25.175791979490935 25.175791979490935 25.197765976927304 25.175791979490935 25.175791979490935 25.175791979490935 25.175791979490935 25.175791979490935 25.175791979490935 25.175791979490935 25.175791979490935 25.175791979490935 25.175791979490935 25.175791979490935 25.175791979490935 25.175791979490935 25.175791979490935 25.175791979490935 25.175791979490935 25.175791979490935 25.175791979490935 25.175791979490935 25.175791979490935 25.175791979490935 25.175791979490935 25.175791979490935 25.175791979490935 25.175791979490935 25.175791979490935 25.175791979490935 25.175791979490935 25.175791979490935 25.175791979490935 25.175791979490935 25.197765976927304 25.197765976927304 25.197765976927304 25.197765976927304 25.21973997436367 25.21973997436367 25.21973997436367 25.21973997436367 25.21973997436367 25.21973997436367 25.21973997436367 25.241713971800035 25.241713971800035 25.241713971800035 25.241713971800035 25.241713971800035 25.241713971800035 25.241713971800035 25.241713971800035 25.263687969236404 25.263687969236404 25.263687969236404 25.263687969236404 25.263687969236404 25.263687969236404 25.263687969236404 25.263687969236404 25.263687969236404 25.263687969236404 25.263687969236404 25.263687969236404 25.263687969236404 25.28566196667277 25.28566196667277 25.28566196667277 25.329609961545504 25.329609961545504 25.35158395898187 25.35158395898187 25.37355795641824 25.395531953854604 25.461453946163708 25.483427943600073 25.527375938472808 25.549349935909174 25.571323933345543 25.615271928218274 25.637245925654643 25.65921992309101 25.703167917963743 25.72514191540011 25.791063907709212 25.856985900018312 25.988829884636512 26.098699871818347 26.164621864127447 26.252517853872916 26.29646584874565 26.164621864127447 25.856985900018312 25.835011902581943 25.856985900018312 25.835011902581943 25.813037905145578 25.72514191540011 25.549349935909174 25.175791979490935 24.384728071781726 24.077092107672588 23.945248123054384 23.791430140999818 23.747482146127084 23.791430140999818 23.76945614356345 23.747482146127084 23.945248123054384 24.143014099981688 24.604468046145396 25.175791979490935 25.65921992309101 26.626075810291155 27.768723676982237 28.31807361289141 28.75755356161875 29.262955502655192 29.790331441127996 30.29573338216444 30.603369346273574 31.41640725141915 31.96575718732833 32.40523713605567 32.866691082219376 33.064457059146676 33.67972898736495 34.36092290789233 35.21790880791064 36.14081670023805 36.887932613074526 37.34938655923823 38.44808643105658 39.06335835927486 39.524812305438566 40.29390221571141 41.10694012085699 41.98590001831167 42.60117194652994 43.568027833730085 44.53488372093023 45.21607764145761 45.919245559421356 46.842153451748764 47.65519135689434 49.105475187694566 49.808643105658305 50.86339498260392 51.85222486724043 52.40157480314961 53.01684673136788 54.04962461087713 54.68687053653177 55.65372642373192 56.15912836476836 57.016114264786665 57.91704815967771 58.70811206738693 59.301409998168836 60.092473905878045 60.641823841787215 61.56473173411463 62.09210767258744 63.256729536714886 64.06976744186046 64.61911737776964 65.41018128547884 65.95953122138803 66.55282915216993 67.71745101629739 68.33272294451567 69.18970884453397 69.98077275224318 70.50814869071598 71.25526460355246 71.98040651895258 72.57370444973449 73.34279436000733 73.87017029848013 74.68320820362571 75.54019410364401 76.0895440395532 77.0124519318806 77.53982787035342 78.00128181651712 78.57260574986266 78.99011170115364 79.62735762680828 80.44039553195387 80.83592748580847 81.31935542940855 81.53909540377221 82.13239333455411 82.54989928584509 82.85753524995422 83.29701519868156 83.69254715253618 84.0001831166453 84.43966306537266 84.70335103460906 85.09888298846366 85.4724409448819 85.71415491668193 85.9998168833547 86.28547885002747 86.43929683208204 86.59311481413661 86.70298480131844 86.90075077824574 87.07654275773669 87.25233473722761 87.36220472440945 87.47207471159129 87.49404870902765 87.55997070133675 87.58194469877311 87.60391869620949 87.62589269364585 87.62589269364585 87.62589269364585 87.62589269364585 87.60391869620949 87.62589269364585 87.60391869620949 87.62589269364585 87.60391869620949 87.55997070133675 87.53799670390038 87.47207471159129 87.45010071415491 87.40615271928218 87.38417872184581 87.38417872184581 87.36220472440945 87.36220472440945 87.34023072697309 87.36220472440945 87.36220472440945 87.36220472440945 87.36220472440945 87.34023072697309 87.29628273210035 87.27430873466398 87.25233473722761 87.25233473722761 87.25233473722761 87.23036073979125 87.23036073979125 87.23036073979125 87.23036073979125 87.25233473722761 87.25233473722761 87.23036073979125 87.25233473722761 87.25233473722761 87.25233473722761 87.25233473722761 87.25233473722761 87.25233473722761 87.25233473722761 87.25233473722761 87.25233473722761 87.25233473722761 87.23036073979125 87.20838674235489 87.18641274491851 87.18641274491851 87.16443874748215 87.14246475004578 87.12049075260941 87.09851675517305 87.05456876030031 87.03259476286395 87.03259476286395 87.03259476286395 87.03259476286395 87.03259476286395 87.03259476286395 87.03259476286395 87.03259476286395 87.03259476286395 87.03259476286395 87.01062076542757 87.03259476286395 87.03259476286395 87.03259476286395 87.03259476286395 87.03259476286395 87.01062076542757 87.01062076542757 86.98864676799121 86.98864676799121 86.94469877311849 86.90075077824574 86.83482878593665 86.83482878593665 86.76890679362754 86.76890679362754 86.74693279619117 86.72495879875481 86.72495879875481 86.68101080388207 86.68101080388207 86.6590368064457 86.6590368064457 86.6590368064457 86.63706280900934 86.63706280900934 86.63706280900934 86.63706280900934 86.63706280900934 86.63706280900934 86.63706280900934 86.63706280900934 86.63706280900934 86.63706280900934 86.61508881157297 86.63706280900934 86.63706280900934 86.63706280900934 86.63706280900934 86.63706280900934 86.63706280900934 86.61508881157297 86.59311481413661 86.57114081670024 86.54916681926387 86.5271928218275 86.48324482695477 86.46127082951841 86.41732283464567 86.37337483977294 86.35140084233657 86.28547885002747 86.2635048525911 86.24153085515474 86.19758286028201 86.15363486540927 86.1316608679729 86.10968687053654 86.08771287310017 86.08771287310017 86.08771287310017 86.06573887566381 86.06573887566381 86.06573887566381 86.06573887566381 86.06573887566381 86.08771287310017 86.08771287310017 86.08771287310017 86.08771287310017 86.10968687053654 86.10968687053654 86.10968687053654 86.10968687053654 86.10968687053654 86.10968687053654 86.1316608679729 86.1316608679729 86.15363486540927 86.15363486540927 86.15363486540927 86.15363486540927 86.15363486540927 