-0.0002556526387829439	0.0032926597680889035	-0.01714498009025813	1.3832886675940357	1.3834591368984148	1.3839720349278493	1.3840030293468273	1.383828685740076	164.0	255.0	11111110.0	
-0.0014456621868309289	0.0032838697310378947	-0.017143191950701707	1.3832812170125506	1.3834531764332267	1.383965180392883	1.3839955787653422	1.3838218312051096	165.0	255.0	11111110.0	
-0.003894756980154737	0.003275062697842374	-0.017156304974115487	1.3832764486404001	1.3834493021308545	1.383960710043992	1.3839920024862293	1.383817658879478	166.0	255.0	11111110.0	
-0.006931455767714353	0.003266238816513591	-0.017165841718416418	1.3832791308497348	1.3834516863169297	1.3839645843463642	1.3839970688816392	1.383822129228369	167.0	255.0	11111110.0	
-0.009506595651108375	0.0032573982360726036	-0.01717120613708569	1.3832737664310655	1.3834451298052228	1.3839583258579167	1.3839899163234135	1.3838170628329591	168.0	255.0	11111110.0	
-0.010975175961172067	0.003248541106546325	-0.01716882195101046	1.3832678059658774	1.3834403614330724	1.3839493851601345	1.383983657834966	1.383809612251474	169.0	255.0	11111110.0	
-0.011281557929354495	0.003239667578963104	-0.017159583229968932	1.3832698921286932	1.3834457258517416	1.3839532594625068	1.3839890222536353	1.383814678646884	170.0	255.0	11111110.0	
-0.010802455381364297	0.003230777805347842	-0.017153324741521446	1.3832663158495804	1.3834436396889258	1.3839520673694692	1.383988128183857	1.383814678646884	171.0	255.0	11111110.0	
-0.010071365741736515	0.0032218719387166273	-0.017139615671588858	1.3832552889889824	1.3834317187585496	1.383940146439093	1.383979187486075	1.3838060359723612	172.0	255.0	11111110.0	
-0.00953655189060128	0.0032129501330709106	-0.0171279927644721	1.3832624415472081	1.383437083177219	1.3839458088810217	1.3839857439977818	1.3838108043445116	173.0	255.0	11111110.0	
-0.009425523687621987	0.0032040125433912318	-0.017127098694693886	1.383260951430911	1.3834376792237377	1.383945212834503	1.383980677602372	1.3838084201584364	174.0	255.0	11111110.0	
-0.009724028122344366	0.003195059325630522	-0.017129184857509715	1.3832567791052794	1.3834323148050685	1.3839398484158336	1.383974717137184	1.3838018636467295	175.0	255.0	11111110.0	
-0.010237393295718723	0.0031860906367069883	-0.017133357183141372	1.3832633356169863	1.3834376792237377	1.3839484910903563	1.3839812736488908	1.38380663201888	176.0	255.0	11111110.0	
-0.010689109958865751	0.003177106634496583	-0.017128290787731502	1.3832648257332834	1.3834379772469971	1.3839505772531722	1.3839839558582254	1.3838087181816958	177.0	255.0	11111110.0	
-0.01081746295951487	0.0031681074778250598	-0.01711487974105832	1.3832648257332834	1.3834391693400347	1.3839502792299128	1.3839824657419284	1.3838078241119176	178.0	255.0	11111110.0	
-0.01044561760383616	0.0031590933264595946	-0.01711279357824249	1.3832523087563884	1.3834257582933616	1.3839359741134614	1.383969650741774	1.3837967972513197	179.0	255.0	11111110.0	
-0.009515591340332186	0.0031500643410999523	-0.017115475787577127	1.3832570771285388	1.3834308246887714	1.3839410405088712	1.3839753131837027	1.3838018636467295	180.0	255.0	11111110.0	
-0.00808715823055823	0.0031410206833691755	-0.017119052066689976	1.3832537988726854	1.3834284405026962	1.3839377622530178	1.3839732270208869	1.3837973932978385	181.0	255.0	11111110.0	
-0.006310545778164564	0.0031319625158037806	-0.017124714508618653	1.3832588652680953	1.3834332088748467	1.3839425306251683	1.3839779953930373	1.3838018636467295	182.0	255.0	11111110.0	
-0.004386003253971255	0.003122890001843449	-0.017127694741212694	1.3832588652680953	1.3834317187585496	1.3839434246949465	1.383977697369778	1.3838012676002107	183.0	255.0	11111110.0	
-0.002521866103010024	0.0031138033058202156	-0.01712531055513746	1.3832514146866102	1.3834257582933616	1.383934185973905	1.383969650741774	1.3837947110885038	184.0	255.0	11111110.0	
-0.0008990684780334063	0.003104702592947164	-0.017119946136468188	1.3832472423609785	1.3834206918979517	1.3839288215552357	1.3839660744626612	1.3837914328326504	185.0	255.0	11111110.0	
0.00035338559353326237	0.003095588029306669	-0.01711070741542666	1.383249030500535	1.3834233741072863	1.3839309077180515	1.3839699487650334	1.3837953071350226	186.0	255.0	11111110.0	
0.0011706523891410314	0.003086459781838215	-0.01710772718283262	1.383243964105125	1.3834197978281735	1.3839249472528634	1.383965180392883	1.3837914328326504	187.0	255.0	11111110.0	
0.0015528503073177224	0.003077318018325861	-0.017114581717798914	1.3832472423609785	1.3834263543398804	1.3839315037645703	1.383972630974368	1.3837973932978385	188.0	255.0	11111110.0	
0.0015569234790963704	0.0030681629073853953	-0.017124118462099845	1.383247540384238	1.3834263543398804	1.3839318017878297	1.383972630974368	1.3837979893443573	189.0	255.0	11111110.0	
0.0012826655293144398	0.003058994618451259	-0.0171354433459572	1.3832418779423092	1.3834212879444705	1.3839255432993822	1.3839672665556988	1.3837914328326504	190.0	255.0	11111110.0	
0.0008551168609237936	0.0030498133217632998	-0.017147960322852172	1.3832523087563884	1.3834314207352902	1.383934185973905	1.3839753131837027	1.383802161669989	191.0	255.0	11111110.0	
0.00040525426300212764	0.003040619188353415	-0.01715868916019072	1.3832529048029072	1.3834317187585496	1.383937166206499	1.383976207253481	1.3838024596932483	192.0	255.0	11111110.0	
5.171127069201765e-05	0.0030314123900321323	-0.017154814857818466	1.3832487324772755	1.3834257582933616	1.383932695857608	1.3839723329511087	1.3837959031815414	193.0	255.0	11111110.0	
-0.00011397519267517355	0.0030221930993751603	-0.0171425959041829	1.3832403878260122	1.383415029456023	1.3839234571365664	1.3839613060905107	1.3837854723674623	194.0	255.0	11111110.0	
-3.752304163998375e-05	0.0030129614897099156	-0.017130078927287927	1.383242473988828	1.3834174136420982	1.3839243512063446	1.3839630942300671	1.3837878565535375	195.0	255.0	11111110.0	
0.0002932663113668886	0.0030037177351020052	-0.01712382043884044	1.3832478384074973	1.3834251622468428	1.3839303116715327	1.3839672665556988	1.3837920288791692	196.0	255.0	11111110.0	
0.0008501556054279241	0.0029944620103416583	-0.017121138229505804	1.3832523087563884	1.3834299306189932	1.3839362721367208	1.3839732270208869	1.3837991814373949	197.0	255.0	11111110.0	
0.0015728058677357223	0.002985194490930075	-0.017111899508464277	1.3832567791052794	1.3834302286422526	1.3839389543460554	1.3839735250441463	1.3838009695769513	198.0	255.0	11111110.0	
0.0023816864701096067	0.0029759153530656635	-0.01710981334564845	1.3832514146866102	1.3834269503863992	1.3839332919041267	1.383968160625477	1.3837962012048008	199.0	255.0	11111110.0	
0.003192025625820073	0.002966624773630149	-0.017111005438686065	1.3832567791052794	1.3834332088748467	1.3839407424856118	1.383975611206962	1.383802161669989	200.0	255.0	11111110.0	
0.003926573740772542	0.002957322930174542	-0.017109515322389045	1.3832627395704675	1.3834367851539595	1.3839428286484277	1.3839815716721502	1.3838078241119176	201.0	255.0	11111110.0	
0.004526000004321807	0.002948010000904959	-0.017113389624761298	1.3832666138728398	1.3834409574795912	1.3839484910903563	1.3839884262071165	1.3838158707399215	202.0	255.0	11111110.0	
0.00495538637263757	0.0029386861646682953	-0.01711577381083653	1.3832597593378735	1.383438573293516	1.3839458088810217	1.3839842538814848	1.3838119964375493	203.0	255.0	11111110.0	
0.005206339879056246	0.002929351600937757	-0.01711130346194547	1.383246944337719	1.3834296325957338	1.3839338879506455	1.3839729289976275	1.3837997774839137	204.0	255.0	11111110.0	
0.005295062997883198	0.0029200064897982603	-0.017108621252610832	1.3832445601516439	1.383429036549215	1.3839309077180515	1.3839717369045899	1.3837988834141355	205.0	255.0	11111110.0	
0.0052565692972781144	0.0029106510119317162	-0.017110409392167257	1.383242473988828	1.3834254602701022	1.3839300136482733	1.3839717369045899	1.3837976913210979	206.0	255.0	11111110.0	
0.005136400063160363	0.002901285348602226	-0.017116965903874147	1.383246944337719	1.3834302286422526	1.3839332919041267	1.383976207253481	1.383802161669989	207.0	255.0	11111110.0	
0.004982159654839991	0.0028919096816412003	-0.017123522415581037	1.383250520616832	1.3834346989911437	1.3839359741134614	1.3839794855093344	1.3838045458560642	208.0	255.0	11111110.0	
0.004836402496827008	0.0028825241934324272	-0.01713037695054733	1.3832537988726854	1.3834361891074407	1.3839380602762772	1.383979187486075	1.38380663201888	209.0	255.0	11111110.0	
0.0047313447418292345	0.00287312906689712	-0.017137827532032433	1.3832567791052794	1.383438573293516	1.3839422326019089	1.383980677602372	1.3838093142282146	210.0	255.0	11111110.0	
0.0046856496918583155	0.0028637244854789533	-0.017145278113517536	1.383246050267941	1.3834272484096586	1.3839309077180515	1.3839702467882928	1.383795605158282	211.0	255.0	11111110.0	
0.004703641944624306	0.0028543106331291113	-0.017152728695002638	1.3832555870122418	1.3834332088748467	1.3839398484158336	1.3839779953930373	1.383805141902583	212.0	255.0	11111110.0	
0.004777058718784618	0.002844887694291364	-0.017153920788040254	1.3832621435239487	1.383440063409813	1.3839455108577623	1.3839848499280036	1.3838108043445116	213.0	255.0	11111110.0	
0.004888845751221392	0.0028354558538871704	-0.017151834625224426	1.3832648257332834	1.383443043642407	1.3839484910903563	1.383988128183857	1.3838122944608087	214.0	255.0	11111110.0	
0.005017831355984971	0.0028260152973008284	-0.017148854392630385	1.3832591632913547	1.3834376792237377	1.3839437227182059	1.3839824657419284	1.383809612251474	215.0	255.0	11111110.0	
0.005143270913173092	0.0028165662103646666	-0.017140211718107666	1.3832555870122418	1.3834344009678843	1.3839407424856118	1.383979187486075	1.383808122135177	216.0	255.0	11111110.0	
0.005248746077216385	0.0028071087793442757	-0.01713186706684435	1.3832523087563884	1.3834323148050685	1.3839362721367208	1.3839773993465185	1.3838012676002107	217.0	255.0	11111110.0	
0.005324678770103284	0.0027976431909237883	-0.01712590660165627	1.3832514146866102	1.3834338049213655	1.3839362721367208	1.3839800815558532	1.3838033537630265	218.0	255.0	11111110.0	
0.005368913982917756	0.0027881696321911975	-0.01712888683425031	1.3832457522446815	1.3834281424794368	1.3839309077180515	1.3839720349278493	1.383800671553692	219.0	255.0	11111110.0	
0.005385699372145778	0.0027786882906237266	-0.017135145322697796	1.3832388977097152	1.3834248642235834	1.3839264373691604	1.383968160625477	1.3837959031815414	220.0	255.0	11111110.0	
0.0053839918023506714	0.0027691993540732394	-0.017129184857509715	1.383239493756234	1.3834269503863992	1.3839255432993822	1.3839702467882928	1.3837976913210979	221.0	255.0	11111110.0	
0.005375385217759772	0.002759703010751704	-0.017121138229505804	1.3832457522446815	1.3834341029446249	1.3839329938808673	1.3839750151604433	1.3838030557397671	222.0	255.0	11111110.0	
0.005370873851706742	0.0027501994492167073	-0.01711785997365236	1.383246050267941	1.3834346989911437	1.3839347820204237	1.3839794855093344	1.3838057379491018	223.0	255.0	11111110.0	
0.0053767725862840805	0.002740688858357033	-0.017126800671434482	1.3832517127098696	1.3834376792237377	1.3839389543460554	1.3839848499280036	1.3838108043445116	224.0	255.0	11111110.0	
0.005391900769272365	0.0027311714273782965	-0.017141403811145282	1.3832448581749033	1.3834311227120308	1.3839303116715327	1.3839753131837027	1.3838018636467295	225.0	255.0	11111110.0	
0.005407838942866632	0.0027216473457886445	-0.0171425959041829	1.3832418779423092	1.383426056316621	1.3839282255087169	1.3839717369045899	1.3837976913210979	226.0	255.0	11111110.0	
0.005411882579988024	0.0027121168033845205	-0.01713901962507005	1.3832403878260122	1.3834233741072863	1.383926139345901	1.3839687566719958	1.3837959031815414	227.0	255.0	11111110.0	
0.005390382405361051	0.002702579990236502	-0.017132165090103756	1.3832383016631964	1.383420989921211	1.3839225630667882	1.3839654784161424	1.3837938170187256	228.0	255.0	11111110.0	
0.005331070679437764	0.0026930370966751984	-0.017133655206400776	1.3832445601516439	1.3834251622468428	1.3839279274854575	1.3839705448115522	1.383797095274579	229.0	255.0	11111110.0	
0.005225128863747144	0.0026834883132772274	-0.017125012531878057	1.3832463482912003	1.3834266523631398	1.383929119578495	1.3839738230674057	1.3838003735304325	230.0	255.0	11111110.0	
0.005069806128129458	0.0026739338308512475	-0.01711070741542666	1.3832603553843923	1.3834403614330724	1.3839440207414653	1.3839869360908195	1.383814678646884	231.0	255.0	11111110.0	
0.004870306617325539	0.0026643738404240644	-0.0171062370665356	1.383263037593727	1.383443043642407	1.3839487891136157	1.3839893202768947	1.383817658879478	232.0	255.0	11111110.0	
0.00463923040290032	0.002654808533226803	-0.017118157996911763	1.38325648108202	1.3834391693400347	1.3839413385321306	1.3839845519047442	1.3838108043445116	233.0	255.0	11111110.0	
0.004394500691842996	0.002645238100681138	-0.01712948288076912	1.383257971198317	1.3834406594563318	1.3839422326019089	1.3839857439977818	1.3838137845771057	234.0	255.0	11111110.0	
0.004157525724729057	0.0026356627343856066	-0.017136635438994817	1.3832669118960992	1.383449600154114	1.383954153532285	1.3839955787653422	1.3838227252748878	235.0	255.0	11111110.0	
0.003951063347820463	0.0026260826261019815	-0.017140211718107666	1.3832591632913547	1.383444533758704	1.3839467029508	1.383990214346673	1.3838185529492562	236.0	255.0	11111110.0	
0.003795796471651655	0.002616497967741729	-0.01713097299706614	1.3832481364307567	1.3834329108515873	1.3839323978343485	1.3839794855093344	1.3838069300421394	237.0	255.0	11111110.0	
0.0037062994081595683	0.0026069089513525434	-0.017115177764317722	1.3832508186400914	1.3834367851539595	1.3839344839971643	1.3839830617884472	1.3838084201584364	238.0	255.0	11111110.0	
0.003687123161055514	0.0025973157691049726	-0.017117561950392955	1.383249030500535	1.383435593060922	1.3839323978343485	1.3839824657419284	1.3838078241119176	239.0	255.0	11111110.0	
0.0037299819696280517	0.002587718613279137	-0.017122628345802825	1.3832508186400914	1.3834364871307	1.383935676090202	1.3839827637651878	1.3838108043445116	240.0	255.0	11111110.0	
0.0038144920611150076	0.0025781176762515534	-0.017113985671280106	1.3832511166633508	1.3834373812004783	1.3839368681832396	1.3839827637651878	1.3838105063212522	241.0	255.0	11111110.0	
0.0039126218985653955	0.0025685131504820766	-0.017107429159573216	1.383246050267941	1.3834326128283279	1.3839329938808673	1.3839779953930373	1.3838072280653988	242.0	255.0	11111110.0	
0.003993751922636571	0.0025589052285009545	-0.017100872647866326	1.3832537988726854	1.3834391693400347	1.3839410405088712	1.3839833598117066	1.3838137845771057	243.0	255.0	11111110.0	
0.0040290083102666715	0.0025492941028960195	-0.017090441833787183	1.3832576731750577	1.3834424475958882	1.383945212834503	1.3839890222536353	1.3838170628329591	244.0	255.0	11111110.0	
0.003995386651237918	0.00253967996630001	-0.01708358729882089	1.3832514146866102	1.3834361891074407	1.3839392523693148	1.3839833598117066	1.3838093142282146	245.0	255.0	11111110.0	
0.0038789925604488648	0.002530063011378022	-0.017088355670971354	1.3832418779423092	1.383426056316621	1.3839300136482733	1.383972630974368	1.383800075507173	246.0	255.0	11111110.0	
0.003676856001451263	0.0025204434308150887	-0.01709610427571586	1.3832388977097152	1.3834233741072863	1.3839264373691604	1.3839702467882928	1.3837967972513197	247.0	255.0	11111110.0	
0.0033977860041030936	0.0025108214173038762	-0.017105044973497983	1.3832463482912003	1.383430526665512	1.3839329938808673	1.3839735250441463	1.3838003735304325	248.0	255.0	11111110.0	
0.0030619796000897867	0.002501197163532487	-0.01711428369453951	1.3832487324772755	1.3834329108515873	1.3839344839971643	1.3839779953930373	1.3838030557397671	249.0	255.0	11111110.0	
0.0026986629236398275	0.002491570862172357	-0.017117561950392955	1.3832353214306023	1.3834197978281735	1.383923159113307	1.3839660744626612	1.383792624925688	250.0	255.0	11111110.0	
0.0023420299083409144	0.002481942705866241	-0.017111899508464277	1.3832436660818657	1.3834281424794368	1.3839300136482733	1.383975611206962	1.383800671553692	251.0	255.0	11111110.0	
0.0020260471571572833	0.002472312887216271	-0.01710772718283262	1.3832484344540161	1.3834346989911437	1.3839347820204237	1.383980677602372	1.3838078241119176	252.0	255.0	11111110.0	
0.0017787938877343798	0.0024626815987720888	-0.017100574624606922	1.38323651352364	1.3834233741072863	1.3839243512063446	1.3839705448115522	1.3837967972513197	253.0	255.0	11111110.0	
0.0016177962323601078	0.002453049033019036	-0.01709461415941884	1.3832391957329746	1.3834251622468428	1.3839270334156792	1.3839735250441463	1.3838003735304325	254.0	255.0	11111110.0	
0.0015475073749355256	0.0024434153823664046	-0.017088951717490163	1.3832672099193586	1.3834567527123396	1.383954153532285	1.3840033273700867	1.383829579809854	255.0	255.0	11111110.0	
0.0015590549883716743	0.0024337808391357426	-0.01708507741511791	1.3832764486404001	1.3834668855031593	1.3839633922533265	1.3840134601609064	1.3838379244611174	0.0	255.0	11111110.0	
0.001631875144032678	0.002424145595549215	-0.0170916339268248	1.3832600573611329	1.383449004107595	1.383946106904281	1.3839952807420828	1.3838224272516284	1.0	255.0	11111110.0	
0.0017368012658088771	0.0024145098437180217	-0.017102958810682155	1.3832353214306023	1.3834266523631398	1.383923159113307	1.3839720349278493	1.3837994794606543	2.0	255.0	11111110.0	
0.0018406720375503394	0.0024048737756308786	-0.01710564102001679	1.3832260827095608	1.3834162215490606	1.383913622369006	1.3839598159742137	1.3837869624837593	3.0	255.0	11111110.0	
0.001911841918389163	0.002395237583142564	-0.01711070741542666	1.3832305530584519	1.3834153274792824	1.383915112485303	1.3839604120207325	1.3837863664372405	4.0	255.0	11111110.0	
0.0019247377294127816	0.0023856014579625427	-0.017115475787577127	1.3832487324772755	1.3834323148050685	1.3839347820204237	1.3839800815558532	1.3838060359723612	5.0	255.0	11111110.0	
0.0018627781008008287	0.0023759655916436705	-0.017116965903874147	1.3832481364307567	1.3834338049213655	1.383935676090202	1.383983657834966	1.38380663201888	6.0	255.0	11111110.0	
0.0017201755672629018	0.0023663301755709972	-0.01711636985735534	1.3832573751517983	1.3834439377121852	1.3839437227182059	1.3839925985327481	1.3838158707399215	7.0	255.0	11111110.0	
0.0015023548840359137	0.002356695400950669	-0.017121138229505804	1.3832639316635051	1.3834498981773733	1.3839505772531722	1.3839964728351204	1.383820639112072	8.0	255.0	11111110.0	
0.0012247261404764918	0.0023470614587989456	-0.01712441648535925	1.3832612494541705	1.3834454278284822	1.383946106904281	1.3839934926025264	1.3838164667864403	9.0	255.0	11111110.0	
0.0009103241233375965	0.0023374285399313283	-0.01713395322966018	1.383249030500535	1.3834326128283279	1.3839359741134614	1.383980677602372	1.3838048438793236	10.0	255.0	11111110.0	
0.0005867774083596186	0.0023277968349518026	-0.0171354433459572	1.383250520616832	1.3834329108515873	1.3839362721367208	1.3839812736488908	1.3838063339956206	11.0	255.0	11111110.0	
0.0002830223977266367	0.002318166534242184	-0.017127098694693886	1.3832433680586063	1.3834281424794368	1.383929119578495	1.383974717137184	1.3837994794606543	12.0	255.0	11111110.0	
2.5710723581194768e-05	0.0023085378279515613	-0.017118456020171167	1.3832368115468994	1.3834257582933616	1.383926139345901	1.3839705448115522	1.3837962012048008	13.0	255.0	11111110.0	
-0.00016503781189429418	0.0022989109059858223	-0.017119052066689976	1.3832400898027528	1.3834278444561774	1.383927629462198	1.383976207253481	1.383800075507173	14.0	255.0	11111110.0	
-0.00027942035008999514	0.002289285957997253	-0.017125608578396866	1.3832433680586063	1.3834293345724744	1.383927629462198	1.3839785914395561	1.3838039498095454	15.0	255.0	11111110.0	
-0.0003193154844675733	0.002279663173374202	-0.017131271020325543	1.3832448581749033	1.3834332088748467	1.383929119578495	1.3839809756256314	1.3838057379491018	16.0	255.0	11111110.0	
-0.0002966905629588089	0.002270042741230801	-0.017125012531878057	1.3832457522446815	1.383434997014403	1.3839315037645703	1.3839830617884472	1.38380663201888	17.0	255.0	11111110.0	
-0.00023040998872713152	0.002260424850396734	-0.017116071834095935	1.3832487324772755	1.3834361891074407	1.3839338879506455	1.383983657834966	1.3838084201584364	18.0	255.0	11111110.0	
-0.00014331427296016068	0.0022508096894070565	-0.017112495554983086	1.383249030500535	1.3834361891074407	1.3839344839971643	1.3839833598117066	1.3838078241119176	19.0	255.0	11111110.0	
-5.979075336993452e-05	0.002241197446492059	-0.017105342996757388	1.3832478384074973	1.383434997014403	1.3839350800436832	1.3839815716721502	1.3838063339956206	20.0	255.0	11111110.0	
-2.7761959174384294e-06	0.0022315883095671727	-0.017097296368753477	1.383252010733129	1.3834352950376625	1.3839377622530178	1.3839827637651878	1.3838087181816958	21.0	255.0	11111110.0	
9.469208649659304e-06	0.0022219824662229296	-0.01709610427571586	1.3832517127098696	1.3834323148050685	1.3839359741134614	1.3839803795791126	1.3838057379491018	22.0	255.0	11111110.0	
-3.431821041163804e-05	0.002212380103714969	-0.017095806252456457	1.3832523087563884	1.3834341029446249	1.3839377622530178	1.383982167718669	1.3838084201584364	23.0	255.0	11111110.0	
-0.000137143863296804	0.0022027814089541084	-0.017103554857200963	1.38325648108202	1.3834409574795912	1.3839419345786494	1.38398663806756	1.3838149766701433	24.0	255.0	11111110.0	
-0.0002935634028207866	0.002193186568496479	-0.017113389624761298	1.383257971198317	1.3834409574795912	1.3839443187647247	1.383988128183857	1.383814082600365	25.0	255.0	11111110.0	
-0.0004905468764441431	0.002183595768533733	-0.017119052066689976	1.3832463482912003	1.3834287385259556	1.3839320998110891	1.3839771013232591	1.383802161669989	26.0	255.0	11111110.0	
-0.0007091434785954337	0.0021740091948833393	-0.017115177764317722	1.383253500849426	1.3834346989911437	1.3839377622530178	1.383985147951263	1.383809612251474	27.0	255.0	11111110.0	
-0.0009272187960646463	0.0021644270329789607	-0.017111899508464277	1.3832523087563884	1.383435593060922	1.3839377622530178	1.383983657834966	1.3838090162049552	28.0	255.0	11111110.0	
-0.0011233698786968923	0.0021548494678609305	-0.017111005438686065	1.383240983872531	1.3834239701538051	1.383927629462198	1.3839720349278493	1.3837982873676167	29.0	255.0	11111110.0	
-0.0012806458065799135	0.0021452766841668198	-0.017100574624606922	1.3832385996864558	1.3834248642235834	1.3839252452761228	1.3839717369045899	1.3837982873676167	30.0	255.0	11111110.0	
-0.001388629141964789	0.0021357088661220986	-0.017089845787268375	1.3832311491049707	1.3834168175955794	1.3839166026016	1.3839645843463642	1.3837902407396128	31.0	255.0	11111110.0	
-0.0014443496155182563	0.0021261461975308833	-0.017088355670971354	1.3832251886397826	1.3834138373629854	1.3839109401596714	1.3839630942300671	1.3837869624837593	32.0	255.0	11111110.0	
-0.001452606274438571	0.002116588861766767	-0.01709521020593765	1.383232043174749	1.3834212879444705	1.383918688764416	1.3839699487650334	1.3837962012048008	33.0	255.0	11111110.0	
-0.0014248395240823667	0.0021070370417637222	-0.01710266078742275	1.3832371095701588	1.3834251622468428	1.38392166899701	1.383974121090665	1.383800671553692	34.0	255.0	11111110.0	
-0.001376237297407255	0.0020974909200070775	-0.017105044973497983	1.383233533291046	1.3834236721305457	1.3839198808574535	1.3839732270208869	1.3837976913210979	35.0	255.0	11111110.0	
-0.001322350507635388	0.002087950678524553	-0.01710325683394156	1.3832433680586063	1.3834323148050685	1.3839332919041267	1.383982167718669	1.3838048438793236	36.0	255.0	11111110.0	
-0.001276755598498208	0.00207841649887736	-0.017105342996757388	1.3832618455006893	1.3834484080610763	1.3839505772531722	1.3839958767886016	1.3838200430655532	37.0	255.0	11111110.0	
-0.0012500705504343763	0.0020688885621513607	-0.01710772718283262	1.3832633356169863	1.3834513882936703	1.383952663415988	1.3839979629514174	1.3838227252748878	38.0	255.0	11111110.0	
-0.0012494272026513532	0.0020593670489482806	-0.017109515322389045	1.3832603553843923	1.383447513991298	1.383948193067097	1.3839949827188234	1.383820639112072	39.0	255.0	11111110.0	
-0.0012779674989443636	0.0020498521393769865	-0.01711577381083653	1.3832496265470537	1.3834382752702565	1.3839392523693148	1.383985147951263	1.3838108043445116	40.0	255.0	11111110.0	
-0.0013346869501867204	0.002040344013044823	-0.017118456020171167	1.3832412818957904	1.3834293345724744	1.3839315037645703	1.3839785914395561	1.383803651786286	41.0	255.0	11111110.0	
-0.001414700668978303	0.002030842849049013	-0.017122628345802825	1.3832377056166776	1.3834239701538051	1.3839243512063446	1.383974121090665	1.3837988834141355	42.0	255.0	11111110.0	
-0.00151015267145967	0.002021348825968129	-0.017133357183141372	1.3832305530584519	1.3834156255025418	1.3839163045783407	1.3839645843463642	1.3837905387628722	43.0	255.0	11111110.0	
-0.0016116912594691852	0.0020118621218536328	-0.01713842357855124	1.3832326392212677	1.383419499804914	1.3839213709737506	1.3839672665556988	1.3837932209722068	44.0	255.0	11111110.0	
-0.001709497282827094	0.002002382914221497	-0.017126204624915674	1.383243964105125	1.3834308246887714	1.383932695857608	1.383979187486075	1.383805141902583	45.0	255.0	11111110.0	
-0.0017939990553578452	0.001992911380043909	-0.017113985671280106	1.3832496265470537	1.3834382752702565	1.3839383582995366	1.38398663806756	1.3838108043445116	46.0	255.0	11111110.0	
-0.0018578255098182432	0.0019834476957410548	-0.017123522415581037	1.383247540384238	1.3834406594563318	1.3839365701599802	1.3839869360908195	1.3838108043445116	47.0	255.0	11111110.0	
-0.001898158051181255	0.001973992037172992	-0.017127694741212694	1.3832406858492716	1.3834326128283279	1.3839303116715327	1.3839797835325938	1.3838048438793236	48.0	255.0	11111110.0	
-0.0019165194587843946	0.001964544579631614	-0.017119648113208784	1.383228466895636	1.383419499804914	1.3839163045783407	1.3839699487650334	1.383791134809391	49.0	255.0	11111110.0	
-0.0019164965487517508	0.0019551054978326986	-0.017113091601501894	1.3832234005002262	1.3834171156188388	1.3839127282992278	1.38396667050918	1.3837908367861316	50.0	255.0	11111110.0	
-0.0019023686141342508	0.0019456749659080474	-0.017103554857200963	1.3832207182908915	1.383412049223429	1.3839079599270774	1.3839610080672513	1.3837884526000563	51.0	255.0	11111110.0	
-0.001878891256501497	0.0019362531573977092	-0.01709610427571586	1.3832234005002262	1.3834138373629854	1.3839109401596714	1.3839624981835483	1.3837878565535375	52.0	255.0	11111110.0	
-0.0018512779726593135	0.0019268402452422867	-0.01710564102001679	1.3832344273608241	1.3834239701538051	1.3839204769039724	1.3839732270208869	1.3837962012048008	53.0	255.0	11111110.0	
-0.0018249198497655014	0.001917436401775328	-0.017107429159573216	1.383250520616832	1.3834373812004783	1.383937166206499	1.3839863400443007	1.3838114003910305	54.0	255.0	11111110.0	
-0.0018041279219364748	0.0019080417987157978	-0.017108025206092024	1.3832484344540161	1.3834344009678843	1.3839368681832396	1.383985147951263	1.3838078241119176	55.0	255.0	11111110.0	
-0.0017906332724942392	0.0018986566071606276	-0.017097892415272285	1.3832433680586063	1.3834299306189932	1.383930609694792	1.3839768032999997	1.3838033537630265	56.0	255.0	11111110.0	
-0.001783258664136643	0.0018892809975773475	-0.017081203112745656	1.383243964105125	1.3834293345724744	1.3839264373691604	1.3839744191139245	1.3838048438793236	57.0	255.0	11111110.0	
-0.0017790704253474298	0.0018799151397967944	-0.017074348577779362	1.3832412818957904	1.383429036549215	1.3839273314389386	1.383976207253481	1.3838042478328048	58.0	255.0	11111110.0	
-0.001775401917000549	0.0018705592030059033	-0.017070772298666513	1.3832329372445271	1.383420989921211	1.3839198808574535	1.3839699487650334	1.3837947110885038	59.0	255.0	11111110.0	
-0.001771262548995007	0.001861213355740576	-0.01707792485689221	1.3832219103839292	1.3834099630606131	1.3839082579503368	1.383957133764879	1.3837810020185712	60.0	255.0	11111110.0	
-0.0017674769376281913	0.0018518777658786325	-0.01709610427571586	1.3832251886397826	1.3834138373629854	1.383913622369006	1.3839613060905107	1.3837884526000563	61.0	255.0	11111110.0	
-0.0017658133957701376	0.0018425526006328441	-0.01710415090371977	1.3832326392212677	1.3834203938746923	1.38392166899701	1.3839702467882928	1.3837959031815414	62.0	255.0	11111110.0	
-0.001767345509326431	0.0018332380265440487	-0.017105044973497983	1.3832326392212677	1.3834212879444705	1.3839207749272318	1.3839717369045899	1.3837962012048008	63.0	255.0	11111110.0	
-0.0017713067054036177	0.001823934209474348	-0.017094316136159436	1.3832374075934182	1.3834296325957338	1.3839264373691604	1.3839794855093344	1.3838039498095454	64.0	255.0	11111110.0	
-0.001775536620825966	0.001814641314600394	-0.017084779391858505	1.3832311491049707	1.3834248642235834	1.3839195828341941	1.383974121090665	1.3837991814373949	65.0	255.0	11111110.0	
-0.0017781314776905686	0.0018053595064067584	-0.017087163577933738	1.383238003639937	1.3834311227120308	1.3839249472528634	1.3839809756256314	1.3838042478328048	66.0	255.0	11111110.0	
-0.0017788415524978348	0.0017960889486793895	-0.017090739857046587	1.3832418779423092	1.383433506898106	1.3839282255087169	1.383983657834966	1.3838078241119176	67.0	255.0	11111110.0	
-0.0017787790034774474	0.0017868298044991565	-0.017096998345494073	1.383247540384238	1.38344155352611	1.3839362721367208	1.3839911084164511	1.3838155727166621	68.0	255.0	11111110.0	
-0.001778899758331212	0.0017775822362354836	-0.017102958810682155	1.3832484344540161	1.3834403614330724	1.3839353780669426	1.3839884262071165	1.3838131885305869	69.0	255.0	11111110.0	
-0.0017790347773049978	0.0017683464055400738	-0.017125012531878057	1.383246050267941	1.3834358910841813	1.3839332919041267	1.3839854459745224	1.3838108043445116	70.0	255.0	11111110.0	
-0.0017778907991947365	0.001759122473340723	-0.017137827532032433	1.3832430700353469	1.3834311227120308	1.383932695857608	1.3839800815558532	1.3838069300421394	71.0	255.0	11111110.0	
-0.001772795469863453	0.0017499105998352302	-0.01713246311336316	1.383247540384238	1.3834346989911437	1.3839353780669426	1.383982167718669	1.3838072280653988	72.0	255.0	11111110.0	
-0.0017593434415468737	0.0017407109444853984	-0.01711577381083653	1.3832451561981627	1.3834317187585496	1.3839309077180515	1.3839794855093344	1.383805141902583	73.0	255.0	11111110.0	
-0.0017327715372538635	0.0017315236660111338	-0.01710564102001679	1.3832612494541705	1.383449600154114	1.3839478950438375	1.383996174811861	1.383820639112072	74.0	255.0	11111110.0	
-0.0016909099770254735	0.0017223489223846412	-0.01710921729912964	1.3832532028261666	1.3834418515493694	1.3839398484158336	1.38398663806756	1.3838119964375493	75.0	255.0	11111110.0	
-0.0016360041956400588	0.001713186870824718	-0.01710832322935143	1.383250520616832	1.3834379772469971	1.3839368681832396	1.383983657834966	1.3838084201584364	76.0	255.0	11111110.0	
-0.0015737742335113609	0.001704037667791148	-0.017111899508464277	1.383243964105125	1.3834302286422526	1.3839318017878297	1.3839765052767403	1.3838024596932483	77.0	255.0	11111110.0	
-0.0015110831991613917	0.0016949014689791938	-0.017108025206092024	1.3832445601516439	1.3834308246887714	1.3839303116715327	1.383976207253481	1.3838045458560642	78.0	255.0	11111110.0	
-0.0014537267753937945	0.0016857784293141877	-0.017084779391858505	1.383250520616832	1.3834361891074407	1.3839353780669426	1.3839815716721502	1.3838093142282146	79.0	255.0	11111110.0	
-0.0014050397708567984	0.0016766687029462221	-0.01706183160088439	1.3832529048029072	1.38344155352611	1.3839398484158336	1.3839863400443007	1.383814082600365	80.0	255.0	11111110.0	
-0.0013667100286577042	0.0016675724432449368	-0.017070772298666513	1.3832529048029072	1.3834439377121852	1.3839395503925742	1.3839890222536353	1.383816168763181	81.0	255.0	11111110.0	
-0.0013407659446039882	0.0016584898027944	-0.017077328810373403	1.3832511166633508	1.383444533758704	1.3839383582995366	1.3839908103931917	1.3838188509725156	82.0	255.0	11111110.0	
-0.0013292917844771068	0.0016494209333880834	-0.017086865554674334	1.3832508186400914	1.3834427456191476	1.3839374642297584	1.383989618300154	1.3838164667864403	83.0	255.0	11111110.0	
-0.0013321884622993743	0.001640365986023929	-0.017094316136159436	1.3832502225935726	1.3834406594563318	1.3839365701599802	1.383988128183857	1.3838137845771057	84.0	255.0	11111110.0	
-0.0013458937480986773	0.0016313251108995056	-0.01709670032223467	1.3832478384074973	1.3834382752702565	1.383935676090202	1.383985147951263	1.3838102082979928	85.0	255.0	11111110.0	
-0.0013637603699455665	0.0016222984574072567	-0.01709521020593765	1.3832537988726854	1.3834427456191476	1.3839392523693148	1.3839899163234135	1.383812592484068	86.0	255.0	11111110.0	
-0.00137756202090483	0.001613286174129833	-0.017091335903565395	1.3832585672448359	1.383443043642407	1.3839422326019089	1.38399170446297	1.3838155727166621	87.0	255.0	11111110.0	
-0.0013795838910307938	0.001604288408835512	-0.017091335903565395	1.3832537988726854	1.383437083177219	1.3839368681832396	1.383983657834966	1.3838093142282146	88.0	255.0	11111110.0	
-0.0013644365057321368	0.0015953053084737016	-0.017089249740749567	1.383252010733129	1.3834361891074407	1.3839359741134614	1.3839815716721502	1.3838069300421394	89.0	255.0	11111110.0	
-0.0013297342094927265	0.001586337019170529	-0.017078818926670424	1.3832648257332834	1.3834484080610763	1.3839493851601345	1.3839952807420828	1.383819148995775	90.0	255.0	11111110.0	
-0.0012759738861403977	0.0015773836862245092	-0.01708150113600506	1.3832648257332834	1.3834493021308545	1.3839502792299128	1.3839949827188234	1.383820639112072	91.0	255.0	11111110.0	
-0.0012066732846273355	0.0015684454541022995	-0.017091335903565395	1.383267507942618	1.3834531764332267	1.3839532594625068	1.3840000491142332	1.383823619344666	92.0	255.0	11111110.0	
-0.0011280019175355885	0.0015595224664345319	-0.017092229973343608	1.3832633356169863	1.3834457258517416	1.3839484910903563	1.3839940886490452	1.3838179569027373	93.0	255.0	11111110.0	
-0.0010471233140429928	0.0015506148660117272	-0.01709670032223467	1.383250520616832	1.3834346989911437	1.3839362721367208	1.383983657834966	1.3838084201584364	94.0	255.0	11111110.0	
-0.000970731759733979	0.0015417227947802938	-0.017100276601347518	1.3832561830587606	1.3834382752702565	1.3839419345786494	1.3839875321373383	1.383811102367771	95.0	255.0	11111110.0	
-0.0009044706040596212	0.0015328463938386056	-0.017100574624606922	1.3832558850355012	1.3834397653865536	1.3839419345786494	1.3839854459745224	1.3838122944608087	96.0	255.0	11111110.0	
-0.00085264412676606	0.0015239858034331647	-0.017110111368907853	1.3832582692215765	1.383444533758704	1.3839428286484277	1.3839905123699323	1.3838164667864403	97.0	255.0	11111110.0	
-0.0008180919793674137	0.0015151411629548484	-0.017116071834095935	1.38325648108202	1.3834424475958882	1.3839419345786494	1.3839884262071165	1.383814082600365	98.0	255.0	11111110.0	
-0.0008015959532657713	0.0015063126109352448	-0.017107131136313812	1.383254990965723	1.3834424475958882	1.3839422326019089	1.3839914064397105	1.383816168763181	99.0	255.0	11111110.0	
-0.0008009455721106091	0.00149750028504307	-0.017096998345494073	1.3832588652680953	1.3834472159680387	1.3839458088810217	1.3839958767886016	1.3838200430655532	100.0	255.0	11111110.0	
-0.000811299933694694	0.0014887043220806755	-0.017092826019862416	1.3832555870122418	1.3834436396889258	1.38394163655539	1.3839908103931917	1.3838143806236245	101.0	255.0	11111110.0	
-0.0008267875359542038	0.0014799248579806402	-0.01709014381052778	1.3832523087563884	1.3834406594563318	1.3839404444623524	1.3839890222536353	1.3838116984142899	102.0	255.0	11111110.0	
-0.0008416565121252282	0.0014711620278024444	-0.017090739857046587	1.3832463482912003	1.3834314207352902	1.3839323978343485	1.3839779953930373	1.3838027577165077	103.0	255.0	11111110.0	
-0.0008506707610304355	0.0014624159657292224	-0.017097296368753477	1.3832529048029072	1.3834344009678843	1.3839377622530178	1.383980677602372	1.3838042478328048	104.0	255.0	11111110.0	
-0.0008493205629898229	0.0014536868050645927	-0.017100276601347518	1.3832540968959448	1.383435593060922	1.3839392523693148	1.3839809756256314	1.3838054399258424	105.0	255.0	11111110.0	
-0.0008338450764801896	0.0014449746782295616	-0.01709670032223467	1.3832546929424636	1.3834352950376625	1.383937166206499	1.3839785914395561	1.3838039498095454	106.0	255.0	11111110.0	
-0.0008013562690516432	0.0014362797167594928	-0.017089845787268375	1.3832543949192042	1.3834338049213655	1.3839359741134614	1.3839785914395561	1.3838033537630265	107.0	255.0	11111110.0	
-0.0007507885009761224	0.0014276020513011485	-0.01709521020593765	1.383257971198317	1.3834382752702565	1.3839407424856118	1.3839824657419284	1.3838072280653988	108.0	255.0	11111110.0	
-0.0006842902037785009	0.0014189418116097939	-0.017105939043276196	1.3832618455006893	1.3834424475958882	1.3839467029508	1.3839884262071165	1.3838119964375493	109.0	255.0	11111110.0	
-0.000607425061696114	0.0014102991265463622	-0.017115475787577127	1.3832508186400914	1.3834302286422526	1.3839347820204237	1.3839765052767403	1.3837997774839137	110.0	255.0	11111110.0	
-0.000527671929979072	0.0014016741240746855	-0.017124118462099845	1.3832418779423092	1.3834183077118765	1.383924649229604	1.3839642863231048	1.3837884526000563	111.0	255.0	11111110.0	
-0.0004524813004772857	0.0013930669312587837	-0.017126204624915674	1.3832463482912003	1.383424566200324	1.3839279274854575	1.383969650741774	1.3837929229489474	112.0	255.0	11111110.0	
-0.00038793306530116376	0.0013844776742602152	-0.017127694741212694	1.3832546929424636	1.3834344009678843	1.3839383582995366	1.3839809756256314	1.3838033537630265	113.0	255.0	11111110.0	
-0.0003381686648813534	0.0013759064783354902	-0.017124714508618653	1.3832648257332834	1.3834466199215198	1.3839514713229504	1.3839943866723046	1.383817658879478	114.0	255.0	11111110.0	
-0.00030519205527158676	0.0013673534678335447	-0.017114581717798914	1.3832642296867645	1.3834469179447793	1.3839493851601345	1.3839934926025264	1.3838155727166621	115.0	255.0	11111110.0	
-0.00028859036838913514	0.0013588187661932804	-0.01709312404312182	1.3832582692215765	1.383443043642407	1.383945212834503	1.3839887242303759	1.383814678646884	116.0	255.0	11111110.0	
-0.0002857403320447403	0.0013503024959411695	-0.01708656753141493	1.3832612494541705	1.3834451298052228	1.383949683183394	1.3839923005094887	1.383817658879478	117.0	255.0	11111110.0	
-0.0002931865631198847	0.001341804778688926	-0.017097296368753477	1.383264527710024	1.3834469179447793	1.383952663415988	1.3839934926025264	1.3838182549259967	118.0	255.0	11111110.0	
-0.000308087303095861	0.0013333257351312475	-0.0171279927644721	1.3832663158495804	1.383449600154114	1.3839553456253226	1.3839955787653422	1.383820639112072	119.0	255.0	11111110.0	
-0.0003279792164638063	0.0013248654850436235	-0.017153026718262042	1.3832716802682496	1.3834522823634485	1.383957133764879	1.3839964728351204	1.3838230232981472	120.0	255.0	11111110.0	
-0.00034887514139987267	0.0013164241472802157	-0.017159285206709528	1.3832746605008437	1.383451090270411	1.383958623881176	1.3839958767886016	1.383823619344666	121.0	255.0	11111110.0	
-0.0003639351230913349	0.0013080018397718038	-0.017156006950856083	1.38328151503581	1.3834552625960426	1.383962200160289	1.3839994530677144	1.3838257055074819	122.0	255.0	11111110.0	
-0.00036498283890706325	0.0012995986795238	-0.017154814857818466	1.3832892636405545	1.3834606270147118	1.3839690546952552	1.3840063076026807	1.3838322620191887	123.0	255.0	11111110.0	
-0.0003459575707790281	0.0012912147826143238	-0.017151238578705617	1.3832812170125506	1.3834543685262644	1.383962200160289	1.3839994530677144	1.3838227252748878	124.0	255.0	11111110.0	
-0.00030532523497437216	0.0012828502641923382	-0.017145874160036344	1.383280024919513	1.383454070503005	1.3839642863231048	1.3840000491142332	1.3838245134144442	125.0	255.0	11111110.0	
-0.0002462207156758872	0.0012745052384758428	-0.01713752950877303	1.3832856873614416	1.383460030968193	1.3839687566719958	1.384004221439865	1.3838283877168165	126.0	255.0	11111110.0	
-0.00017514075488986552	0.0012661798187501181	-0.017128290787731502	1.3832901577103327	1.3834642032938247	1.3839723329511087	1.3840098838817936	1.3838349442285234	127.0	255.0	11111110.0	
-0.00010007325281735315	0.0012578741173660255	-0.017110409392167257	1.3832928399196673	1.3834668855031593	1.383974121090665	1.3840128641143876	1.3838355402750422	128.0	255.0	11111110.0	
-2.8648415766086043e-05	0.0012495882457383535	-0.017093422066381224	1.3832862834079604	1.3834606270147118	1.3839684586487364	1.3840054135329025	1.3838289837633353	129.0	255.0	11111110.0	
3.305772447119345e-05	0.0012413223143442158	-0.017073752531260554	1.3832701901519526	1.3834457258517416	1.3839547495788038	1.3839920024862293	1.383814678646884	130.0	255.0	11111110.0	
8.095312162751365e-05	0.0012330764327214948	-0.017060043461327966	1.3832767466636595	1.3834531764332267	1.383960113997473	1.3839988570211956	1.3838224272516284	131.0	255.0	11111110.0	
0.0001126606096907676	0.0012248507094673345	-0.017069282182369493	1.3832713822449902	1.3834466199215198	1.3839547495788038	1.3839955787653422	1.3838188509725156	132.0	255.0	11111110.0	
0.0001269537179364527	0.0012166452522366844	-0.017085375438377313	1.3832669118960992	1.383443043642407	1.383951173299691	1.3839914064397105	1.383816168763181	133.0	255.0	11111110.0	
0.00012425045575578783	0.0012084601677408919	-0.017094912182678244	1.3832731703845467	1.383450494223892	1.3839595179509543	1.3839985589979362	1.3838227252748878	134.0	255.0	11111110.0	
0.00010803588388710861	0.00120029556174635	-0.01709670032223467	1.3832782367799565	1.3834549645727832	1.3839642863231048	1.3840009431840115	1.3838274936470383	135.0	255.0	11111110.0	
8.495602904288996e-05	0.0011921515390731976	-0.01710266078742275	1.3832836011986258	1.383457050735599	1.3839657764394018	1.3840024333003085	1.383830175856373	136.0	255.0	11111110.0	
6.268956286795309e-05	0.0011840282035940775	-0.017116071834095935	1.383283005152107	1.3834534744564861	1.3839630942300671	1.3840000491142332	1.383823619344666	137.0	255.0	11111110.0	
4.7448470855904136e-05	0.0011759256582329536	-0.01712531055513746	1.3832821110823288	1.383454070503005	1.3839654784161424	1.3840009431840115	1.3838239173679254	138.0	255.0	11111110.0	
4.302077915945712e-05	0.0011678440049639857	-0.01713037695054733	1.3832746605008437	1.383446023875001	1.3839592199276949	1.3839940886490452	1.3838170628329591	139.0	255.0	11111110.0	
5.110809557215697e-05	0.0011597833448104644	-0.017125608578396866	1.383297012245299	1.3834686736427158	1.3839794855093344	1.3840149502772034	1.383837626437858	140.0	255.0	11111110.0	
7.16496762687107e-05	0.0011517437778438035	-0.017126502648175078	1.3833017806174495	1.3834743360846444	1.3839845519047442	1.3840200166726133	1.3838438849263055	141.0	255.0	11111110.0	
0.0001024333488302902	0.0011437254031825903	-0.01714110578788588	1.3832949260824832	1.3834668855031593	1.3839771013232591	1.3840098838817936	1.3838352422517828	142.0	255.0	11111110.0	
0.00013899158377384603	0.001135728318991691	-0.017145278113517536	1.3832809189892912	1.3834501962006327	1.383962200160289	1.383996174811861	1.3838200430655532	143.0	255.0	11111110.0	
0.00017611245112836727	0.0011277526224814077	-0.017145278113517536	1.3832836011986258	1.3834546665495238	1.3839660744626612	1.3840009431840115	1.3838257055074819	144.0	255.0	11111110.0	
0.0002096380050852444	0.0011197984099066889	-0.01714766229959277	1.383291051780111	1.3834612230612306	1.383972630974368	1.3840069036491995	1.3838334541122264	145.0	255.0	11111110.0	
0.00023706289803017286	0.00111186577656639	-0.0171354433459572	1.383292541896408	1.3834621171310089	1.383974121090665	1.3840063076026807	1.383834646205264	146.0	255.0	11111110.0	
0.0002577371769844414	0.0011039548168025857	-0.017113091601501894	1.3832901577103327	1.3834624151542683	1.3839702467882928	1.3840051155096431	1.3838304738796323	147.0	255.0	11111110.0	
0.00027256528680596814	0.0010960656239999288	-0.01710117067112573	1.3832841972451446	1.3834597329449336	1.383969650741774	1.3840054135329025	1.383828685740076	148.0	255.0	11111110.0	
0.000282541638023836	0.0010881982905850604	-0.017098488461791093	1.3832812170125506	1.383458540851896	1.38396667050918	1.3840024333003085	1.3838274936470383	149.0	255.0	11111110.0	
0.00028777759514006176	0.0010803529080260705	-0.017091931950084203	1.3832737664310655	1.3834498981773733	1.3839592199276949	1.3839955787653422	1.3838203410888126	150.0	255.0	11111110.0	
0.0002881982820432509	0.0010725295668320078	-0.017092229973343608	1.3832701901519526	1.3834466199215198	1.383955643648582	1.3839928965560075	1.3838179569027373	151.0	255.0	11111110.0	
0.00028441462999581304	0.0010647283565524404	-0.01709819043853169	1.3832821110823288	1.3834576467821178	1.3839657764394018	1.3840015392305303	1.3838274936470383	152.0	255.0	11111110.0	
0.0002776486932236649	0.0010569493657770705	-0.017116071834095935	1.3832821110823288	1.3834564546890802	1.383965180392883	1.3840000491142332	1.3838254074842224	153.0	255.0	11111110.0	
0.0002693508094355581	0.0010491926821353998	-0.017133357183141372	1.3832761506171407	1.3834481100378169	1.3839583258579167	1.3839925985327481	1.3838164667864403	154.0	255.0	11111110.0	
0.00026141859609666207	0.0010414583922964482	-0.0171354433459572	1.38328151503581	1.3834501962006327	1.3839616041137701	1.3839925985327481	1.3838194470190344	155.0	255.0	11111110.0	
0.00025652356831043136	0.0010337465819685284	-0.017142893927442303	1.383274958524103	1.3834451298052228	1.3839562396951008	1.3839860420210413	1.3838131885305869	156.0	255.0	11111110.0	
0.0002571762386351983	0.0010260573358990715	-0.01715153660196502	1.3832803229427724	1.3834501962006327	1.3839616041137701	1.3839934926025264	1.3838197450422938	157.0	255.0	11111110.0	
0.0002643262418172871	0.0010183907378745112	-0.017154516834559062	1.3832880715475169	1.3834567527123396	1.3839699487650334	1.3840009431840115	1.383828089693557	158.0	255.0	11111110.0	
0.00027719599079415114	0.0010107468707202182	-0.017153324741521446	1.3832996944546336	1.3834692696892346	1.3839809756256314	1.3840122680678688	1.383837626437858	159.0	255.0	11111110.0	
0.0002938361554850546	0.0010031258163004904	-0.017156304974115487	1.3833062509663405	1.383474038061385	1.3839869360908195	1.3840194206260945	1.3838432888797867	160.0	255.0	11111110.0	
0.0003113828975374122	0.000995527655518596	-0.017165841718416418	1.3832862834079604	1.3834543685262644	1.3839669685324394	1.3839982609746768	1.3838242153911848	161.0	255.0	11111110.0	
0.00032644412964390575	0.000987952468316868	-0.017172696253382712	1.3832746605008437	1.3834442357354446	1.3839583258579167	1.3839869360908195	1.383812592484068	162.0	255.0	11111110.0	
0.000336443196627375	0.0009804003336768522	-0.01715868916019072	1.3832698921286932	1.3834397653865536	1.3839535574857662	1.3839860420210413	1.383809612251474	163.0	255.0	11111110.0	
0.000341220059869278	0.0009728713296195051	-0.017136337415735413	1.3832701901519526	1.3834412555028506	1.383952663415988	1.3839875321373383	1.3838102082979928	164.0	255.0	11111110.0	
0.0003428942159988464	0.0009653655332054426	-0.01711875404343057	1.3832648257332834	1.3834382752702565	1.3839478950438375	1.3839839558582254	1.3838078241119176	165.0	255.0	11111110.0	
0.0003437136109632005	0.0009578830205352407	-0.017116965903874147	1.3832573751517983	1.3834296325957338	1.3839392523693148	1.383975611206962	1.3837991814373949	166.0	255.0	11111110.0	
0.00034416260953731295	0.0009504238667497859	-0.017120542182986996	1.3832558850355012	1.3834272484096586	1.3839392523693148	1.383974121090665	1.3837988834141355	167.0	255.0	11111110.0	
0.000343158916727902	0.0009429881460306761	-0.017126502648175078	1.3832648257332834	1.383435593060922	1.3839470009740593	1.3839824657419284	1.383808122135177	168.0	255.0	11111110.0	
0.0003394792702756687	0.0009355759316006729	-0.017142893927442303	1.3832636336402457	1.3834338049213655	1.383944616787984	1.3839815716721502	1.3838060359723612	169.0	255.0	11111110.0	
0.000332606543638629	0.0009281872957242069	-0.017164053578859993	1.3832591632913547	1.3834287385259556	1.3839398484158336	1.3839738230674057	1.3837982873676167	170.0	255.0	11111110.0	
0.0003229192306951822	0.0009208223097079324	-0.017182232997683643	1.3832546929424636	1.3834248642235834	1.3839374642297584	1.3839702467882928	1.3837932209722068	171.0	255.0	11111110.0	
0.00031187334792051916	0.0009134810439013364	-0.017192365788503382	1.3832648257332834	1.3834329108515873	1.3839475970205781	1.383979187486075	1.3838024596932483	172.0	255.0	11111110.0	
0.0003020256926750671	0.0009061635676973995	-0.017186107300055896	1.3832713822449902	1.3834388713167753	1.3839532594625068	1.383985147951263	1.3838072280653988	173.0	255.0	11111110.0	
0.0002964642270581805	0.0008988699495333114	-0.017174484392939136	1.3832648257332834	1.3834332088748467	1.3839472989973187	1.383979187486075	1.3838012676002107	174.0	255.0	11111110.0	
0.00029721343043703904	0.000891600256891238	-0.017179550788349006	1.3832514146866102	1.3834183077118765	1.3839332919041267	1.3839627962068077	1.3837872605070187	175.0	255.0	11111110.0	
0.000303390696226555	0.0008843545562991413	-0.017189683579168745	1.3832627395704675	1.3834278444561774	1.3839440207414653	1.383974121090665	1.3837976913210979	176.0	255.0	11111110.0	
0.00031139577500605007	0.0008771329133316519	-0.017192067765243978	1.3832692960821744	1.3834367851539595	1.3839529614392474	1.3839830617884472	1.3838060359723612	177.0	255.0	11111110.0	
0.00031738030069992115	0.0008699353926109936	-0.01718789543961232	1.3832669118960992	1.383434997014403	1.383949683183394	1.383982167718669	1.3838048438793236	178.0	255.0	11111110.0	
0.0003193633827335779	0.0008627620578079577	-0.017183127067461855	1.3832546929424636	1.3834212879444705	1.3839353780669426	1.3839672665556988	1.3837917308559098	179.0	255.0	11111110.0	
0.00031735625977850516	0.0008556129716429293	-0.01718282904420245	1.3832582692215765	1.3834257582933616	1.3839413385321306	1.3839738230674057	1.3837988834141355	180.0	255.0	11111110.0	
0.0003126558348189305	0.0008484881958869614	-0.01716315950908178	1.3832657198030616	1.3834346989911437	1.3839475970205781	1.3839857439977818	1.38380663201888	181.0	255.0	11111110.0	
0.0003075333568036226	0.0008413877913628994	-0.01714706625307396	1.383260951430911	1.3834323148050685	1.3839422326019089	1.3839794855093344	1.3838033537630265	182.0	255.0	11111110.0	
0.00030422283502309715	0.0008343118179465545	-0.017151238578705617	1.383259461314614	1.3834332088748467	1.3839440207414653	1.383979187486075	1.3838030557397671	183.0	255.0	11111110.0	
0.0003034401288975904	0.0008272603345679243	-0.017141403811145282	1.3832627395704675	1.3834358910841813	1.3839467029508	1.3839839558582254	1.3838084201584364	184.0	255.0	11111110.0	
0.0003048588327740311	0.0008202333992124635	-0.01712292636906223	1.3832681039891368	1.383440063409813	1.3839508752764316	1.383988128183857	1.3838108043445116	185.0	255.0	11111110.0	
0.0003084634169400369	0.0008132310689223992	-0.017112495554983086	1.3832648257332834	1.3834346989911437	1.3839478950438375	1.3839830617884472	1.3838069300421394	186.0	255.0	11111110.0	
0.00031415102151007696	0.0008062533997980938	-0.017113091601501894	1.3832684020123962	1.383437083177219	1.3839502792299128	1.383983657834966	1.3838072280653988	187.0	255.0	11111110.0	
0.0003205674386976881	0.0007993004469994529	-0.017125608578396866	1.3832713822449902	1.3834376792237377	1.3839502792299128	1.3839830617884472	1.38380663201888	188.0	255.0	11111110.0	
0.0003252539272306434	0.0007923722647473792	-0.017133357183141372	1.3832663158495804	1.3834314207352902	1.383945212834503	1.383977697369778	1.383802161669989	189.0	255.0	11111110.0	
0.00032617365091996937	0.0007854689063252696	-0.017135145322697796	1.3832597593378735	1.3834257582933616	1.3839389543460554	1.3839705448115522	1.3837964992280603	190.0	255.0	11111110.0	
0.0003230422289567714	0.0007785904240805568	-0.01713186706684435	1.3832558850355012	1.3834218839909893	1.3839365701599802	1.383969650741774	1.3837944130652444	191.0	255.0	11111110.0	
0.0003171212729037913	0.0007717368694262944	-0.017133357183141372	1.38325648108202	1.3834227780607675	1.3839383582995366	1.383968160625477	1.3837917308559098	192.0	255.0	11111110.0	
0.0003098660664977425	0.0007649082928427855	-0.017138721601810646	1.383249030500535	1.3834174136420982	1.3839297156250139	1.3839604120207325	1.3837827901581277	193.0	255.0	11111110.0	
0.00030194451582671924	0.0007581047438792549	-0.01714110578788588	1.383240983872531	1.3834081749210567	1.3839234571365664	1.383955643648582	1.3837765316696802	194.0	255.0	11111110.0	
0.0002934321684602242	0.0007513262711555636	-0.01714050974136707	1.3832418779423092	1.3834099630606131	1.3839255432993822	1.3839562396951008	1.383778617832496	195.0	255.0	11111110.0	
0.0002844294575778203	0.0007445729223639678	-0.017140807764626474	1.383250520616832	1.3834183077118765	1.3839318017878297	1.3839660744626612	1.383788154576797	196.0	255.0	11111110.0	
0.00027514075401763327	0.0007378447442709192	-0.017146768229814556	1.3832472423609785	1.3834162215490606	1.3839288215552357	1.383963690276586	1.3837872605070187	197.0	255.0	11111110.0	
0.0002656337284852374	0.0007311417827189075	-0.017150344508927405	1.3832499245703131	1.3834227780607675	1.3839320998110891	1.3839678626022176	1.3837917308559098	198.0	255.0	11111110.0	
0.0002560915599722121	0.0007244640826283465	-0.017143787997220515	1.3832627395704675	1.383437083177219	1.3839437227182059	1.383980677602372	1.3838060359723612	199.0	255.0	11111110.0	
0.0002472172354409298	0.0007178116879994976	-0.017143787997220515	1.3832767466636595	1.383452580386708	1.3839583258579167	1.3839970688816392	1.383822129228369	200.0	255.0	11111110.0	
0.00023969621562419793	0.0007111846419144355	-0.01715064253218681	1.3832681039891368	1.3834421495726288	1.3839487891136157	1.3839872341140789	1.3838131885305869	201.0	255.0	11111110.0	
0.00023323706604760805	0.0007045829865390526	-0.01716375555560059	1.3832597593378735	1.3834352950376625	1.3839437227182059	1.3839785914395561	1.3838063339956206	202.0	255.0	11111110.0	
0.00022661292907626113	0.0006980067631251023	-0.017172100206863904	1.3832657198030616	1.3834376792237377	1.3839499812066534	1.3839830617884472	1.3838093142282146	203.0	255.0	11111110.0	
0.00021867766220981543	0.0006914560120122789	-0.01717776264879258	1.3832672099193586	1.3834346989911437	1.3839478950438375	1.383980677602372	1.3838072280653988	204.0	255.0	11111110.0	
0.0002092255153858346	0.0006849307726303364	-0.017175676485976753	1.3832722763147685	1.3834427456191476	1.3839547495788038	1.383988128183857	1.3838116984142899	205.0	255.0	11111110.0	
0.00019913057391485824	0.0006784310835012421	-0.01716524567189761	1.383267507942618	1.3834394673632942	1.3839517693462098	1.383983657834966	1.3838072280653988	206.0	255.0	11111110.0	
0.00018986784382099174	0.0006719569822413665	-0.017153920788040254	1.3832639316635051	1.3834338049213655	1.383944616787984	1.3839779953930373	1.3838018636467295	207.0	255.0	11111110.0	
0.00018265585314452046	0.0006655085055637087	-0.01714050974136707	1.38325648108202	1.3834296325957338	1.3839374642297584	1.383971140858071	1.3837967972513197	208.0	255.0	11111110.0	
0.00017785885448705759	0.0006590856892801548	-0.01712590660165627	1.3832514146866102	1.3834233741072863	1.3839318017878297	1.3839654784161424	1.3837899427163534	209.0	255.0	11111110.0	
0.0001751781540807717	0.0006526885683037695	-0.01710415090371977	1.3832529048029072	1.3834233741072863	1.3839344839971643	1.3839675645789582	1.3837929229489474	210.0	255.0	11111110.0	
0.00017421453313863134	0.0006463171766511212	-0.017087163577933738	1.3832543949192042	1.3834248642235834	1.3839377622530178	1.3839693527185146	1.3837967972513197	211.0	255.0	11111110.0	
0.00017431489148255825	0.0006399715474446382	-0.017094018112900032	1.3832514146866102	1.383423076084027	1.383934185973905	1.3839660744626612	1.3837944130652444	212.0	255.0	11111110.0	
0.00017396647090208426	0.0006336517129149954	-0.01710117067112573	1.383246050267941	1.3834192017816547	1.3839300136482733	1.3839642863231048	1.3837908367861316	213.0	255.0	11111110.0	
0.00017158143781347327	0.0006273577044035327	-0.017098786485050498	1.3832487324772755	1.3834227780607675	1.383931205741311	1.383968160625477	1.383794115041985	214.0	255.0	11111110.0	
0.0001670934191995492	0.0006210895523647017	-0.017102958810682155	1.3832499245703131	1.3834251622468428	1.3839329938808673	1.3839705448115522	1.3837962012048008	215.0	255.0	11111110.0	
0.00016175256751138753	0.0006148472863685441	-0.017119946136468188	1.3832430700353469	1.3834186057351359	1.3839264373691604	1.3839642863231048	1.3837914328326504	216.0	255.0	11111110.0	
0.0001565865819290777	0.0006086309351031971	-0.017133357183141372	1.383238003639937	1.3834138373629854	1.3839210729504912	1.3839577298113979	1.383785174344203	217.0	255.0	11111110.0	
0.00015203483035777635	0.0006024405263774299	-0.01713395322966018	1.383235023407343	1.3834114531769102	1.3839180927178971	1.3839562396951008	1.383783088181387	218.0	255.0	11111110.0	
0.00014873913301363808	0.000596276087123207	-0.017124118462099845	1.383245454221422	1.3834212879444705	1.3839267353924198	1.3839642863231048	1.383791134809391	219.0	255.0	11111110.0	
0.0001475452957071818	0.0005901376433982803	-0.01711935008994938	1.3832508186400914	1.3834248642235834	1.3839323978343485	1.383968160625477	1.3837944130652444	220.0	255.0	11111110.0	
0.0001483934341304715	0.0005840252203888085	-0.017113091601501894	1.3832663158495804	1.3834358910841813	1.3839467029508	1.3839809756256314	1.3838072280653988	221.0	255.0	11111110.0	
0.00014957554237629328	0.0005779388424120036	-0.017116965903874147	1.3832752565473625	1.3834448317819634	1.383955643648582	1.383990214346673	1.383816168763181	222.0	255.0	11111110.0	
0.00014811140236020893	0.0005718785329188057	-0.01712292636906223	1.3832710842217308	1.3834421495726288	1.383951173299691	1.3839845519047442	1.3838131885305869	223.0	255.0	11111110.0	
0.0001410707755004382	0.0005658443144965836	-0.017123224392321633	1.383270488175212	1.3834403614330724	1.3839478950438375	1.3839824657419284	1.3838131885305869	224.0	255.0	11111110.0	
0.00012713365740685896	0.0005598362088718624	-0.017125608578396866	1.3832791308497348	1.383451090270411	1.3839598159742137	1.3839920024862293	1.3838212351585908	225.0	255.0	11111110.0	
0.00010712390295926247	0.0005538542369130785	-0.017128588810990907	1.3832767466636595	1.383449004107595	1.383958623881176	1.3839911084164511	1.3838185529492562	226.0	255.0	11111110.0	
8.333996044005885e-05	0.000547898418633363	-0.017135741369216605	1.383277044686919	1.3834478120145575	1.383957133764879	1.38399170446297	1.3838200430655532	227.0	255.0	11111110.0	
5.8622744560478195e-05	0.0005419687731933518	-0.017141403811145282	1.3832919458498891	1.3834621171310089	1.3839705448115522	1.3840048174863837	1.3838343481820046	228.0	255.0	11111110.0	
3.582530780708545e-05	0.000536065318904024	-0.017141701834404686	1.3832946280592238	1.383465097363603	1.3839732270208869	1.3840098838817936	1.3838382224843768	229.0	255.0	11111110.0	
1.744346324149249e-05	0.0005301880732295685	-0.01715064253218681	1.3832698921286932	1.3834418515493694	1.3839502792299128	1.38398663806756	1.3838170628329591	230.0	255.0	11111110.0	
4.994251406333929e-06	0.0005243370527902768	-0.01715570892759668	1.383249030500535	1.383423076084027	1.3839323978343485	1.3839690546952552	1.3837973932978385	231.0	255.0	11111110.0	
-1.1901654299555759e-06	0.000518512273365463	-0.017155410904337275	1.3832529048029072	1.3834278444561774	1.3839368681832396	1.383974121090665	1.3838018636467295	232.0	255.0	11111110.0	
-1.5529953703107935e-06	0.0005127137498964087	-0.01715570892759668	1.383245454221422	1.383424566200324	1.3839279274854575	1.3839672665556988	1.3837962012048008	233.0	255.0	11111110.0	
2.800307195924528e-06	0.0005069414964893303	-0.017158391136931316	1.3832403878260122	1.383419499804914	1.3839225630667882	1.383962200160289	1.3837917308559098	234.0	255.0	11111110.0	
9.951015221089268e-06	0.0005011955264183713	-0.017161371369525356	1.3832436660818657	1.3834224800375081	1.3839282255087169	1.3839669685324394	1.3837959031815414	235.0	255.0	11111110.0	
1.749141989199201e-05	0.0004954758521286139	-0.01716017927648774	1.3832543949192042	1.3834308246887714	1.3839374642297584	1.3839759092302215	1.383803651786286	236.0	255.0	11111110.0	
2.3332888274296606e-05	0.0004897824852391124	-0.017152728695002638	1.383263037593727	1.3834358910841813	1.383945212834503	1.3839818696954096	1.383809612251474	237.0	255.0	11111110.0	
2.6318297166689044e-05	0.0004841154365459466	-0.017144384043739323	1.3832570771285388	1.3834323148050685	1.3839407424856118	1.383976207253481	1.3838039498095454	238.0	255.0	11111110.0	
2.602589456963207e-05	0.0004784747160252947	-0.01714408602047992	1.383247540384238	1.3834212879444705	1.3839303116715327	1.3839642863231048	1.3837920288791692	239.0	255.0	11111110.0	
2.1946126405439023e-05	0.0004728603328365261	-0.017156901020634295	1.383253500849426	1.383427546432918	1.3839368681832396	1.3839732270208869	1.383800075507173	240.0	255.0	11111110.0	
1.3262316054822826e-05	0.0004672722953253138	-0.017159881253228336	1.3832687000356556	1.3834439377121852	1.3839505772531722	1.3839875321373383	1.3838149766701433	241.0	255.0	11111110.0	
-4.392077580740641e-08	0.0004617106110267671	-0.017158391136931316	1.3832701901519526	1.383446023875001	1.3839523653927286	1.3839899163234135	1.3838182549259967	242.0	255.0	11111110.0	
-1.623049698009179e-05	0.00045617528666858483	-0.017154814857818466	1.3832642296867645	1.3834397653865536	1.3839487891136157	1.3839833598117066	1.3838116984142899	243.0	255.0	11111110.0	
-3.2182753916609654e-05	0.00045066632817422847	-0.01714050974136707	1.3832639316635051	1.383437083177219	1.3839475970205781	1.3839809756256314	1.3838090162049552	244.0	255.0	11111110.0	
-4.4329919325685147e-05	0.0004451837406661166	-0.01711935008994938	1.3832678059658774	1.3834421495726288	1.383949683183394	1.3839854459745224	1.383811102367771	245.0	255.0	11111110.0	
-4.992607944892576e-05	0.00043972752846883927	-0.017119648113208784	1.3832776407334377	1.3834546665495238	1.383958623881176	1.3839973669048986	1.3838254074842224	246.0	255.0	11111110.0	
-4.862291570044148e-05	0.0004342976951123918	-0.017119946136468188	1.3832758525938813	1.3834546665495238	1.3839598159742137	1.3839988570211956	1.3838271956237789	247.0	255.0	11111110.0	
-4.244941183753371e-05	0.0004288942433354279	-0.017117561950392955	1.3832746605008437	1.3834543685262644	1.3839592199276949	1.3839994530677144	1.3838271956237789	248.0	255.0	11111110.0	
-3.39168205020677e-05	0.000423517175088531	-0.017107429159573216	1.3832707861984714	1.383451090270411	1.3839550476020632	1.3839943866723046	1.383820639112072	249.0	255.0	11111110.0	
-2.443774435296732e-05	0.00041816649153750214	-0.01709312404312182	1.3832648257332834	1.3834472159680387	1.3839517693462098	1.3839911084164511	1.383817658879478	250.0	255.0	11111110.0	
-1.4142110066000938e-05	0.0004128421930666646	-0.017072560438222938	1.3832529048029072	1.383434997014403	1.3839407424856118	1.3839794855093344	1.3838042478328048	251.0	255.0	11111110.0	
-2.9017603491562276e-06	0.0004075442792821839	-0.01707345450800115	1.383246944337719	1.3834254602701022	1.383931205741311	1.3839720349278493	1.383795605158282	252.0	255.0	11111110.0	
8.003077839814046e-06	0.000402272749015402	-0.017090739857046587	1.3832603553843923	1.3834388713167753	1.3839422326019089	1.3839809756256314	1.3838093142282146	253.0	255.0	11111110.0	
1.558025724448061e-05	0.00039702760032618773	-0.01709819043853169	1.3832588652680953	1.3834352950376625	1.3839410405088712	1.3839765052767403	1.3838057379491018	254.0	255.0	11111110.0	
1.7160781515857405e-05	0.00039180883050629975	-0.01710415090371977	1.3832648257332834	1.383440063409813	1.3839487891136157	1.3839827637651878	1.3838114003910305	255.0	255.0	11111110.0	
1.2181891167535434e-05	0.0003866164360827658	-0.017113389624761298	1.3832684020123962	1.3834451298052228	1.383951173299691	1.3839875321373383	1.3838152746934027	0.0	255.0	11111110.0	
2.0356906652188676e-06	0.0003814504128212758	-0.017112495554983086	1.3832678059658774	1.3834439377121852	1.383951173299691	1.3839890222536353	1.3838155727166621	1.0	255.0	11111110.0	
-1.065544604104355e-05	0.00037631075572958973	-0.017103554857200963	1.383266017826321	1.3834448317819634	1.3839505772531722	1.3839875321373383	1.383814082600365	2.0	255.0	11111110.0	
-2.2844701842818184e-05	0.0003711974590609626	-0.01709819043853169	1.3832737664310655	1.3834481100378169	1.3839562396951008	1.3839949827188234	1.3838203410888126	3.0	255.0	11111110.0	
-3.251242266567845e-05	0.00036611051631758423	-0.017106535089795004	1.3832746605008437	1.3834481100378169	1.3839559416718414	1.383994684695564	1.3838197450422938	4.0	255.0	11111110.0	
-3.996245639953361e-05	0.00036104992025403607	-0.01712739671795329	1.3832618455006893	1.3834361891074407	1.3839440207414653	1.3839794855093344	1.38380663201888	5.0	255.0	11111110.0	
-4.740554589814731e-05	0.0003560156628807652	-0.01714050974136707	1.383257971198317	1.3834367851539595	1.3839422326019089	1.3839788894628156	1.3838033537630265	6.0	255.0	11111110.0	
-5.6695723704097814e-05	0.000351007735467576	-0.01713842357855124	1.3832648257332834	1.3834436396889258	1.3839487891136157	1.3839845519047442	1.383809612251474	7.0	255.0	11111110.0	
-6.739064557404167e-05	0.00034602612854713885	-0.017132761136622564	1.3832684020123962	1.3834493021308545	1.3839517693462098	1.3839914064397105	1.3838197450422938	8.0	255.0	11111110.0	
-7.712211357693675e-05	0.0003410708319185171	-0.017125012531878057	1.3832692960821744	1.3834519843401891	1.3839532594625068	1.3839937906257858	1.3838227252748878	9.0	255.0	11111110.0	
-8.355982405694576e-05	0.0003361418346507115	-0.017126204624915674	1.3832561830587606	1.3834382752702565	1.3839413385321306	1.3839818696954096	1.383809612251474	10.0	255.0	11111110.0	
-8.598382762068345e-05	0.0003312391250862218	-0.017126502648175078	1.383254990965723	1.3834338049213655	1.3839383582995366	1.3839800815558532	1.3838078241119176	11.0	255.0	11111110.0	
-8.530921559426298e-05	0.00032636269084462604	-0.01712441648535925	1.3832472423609785	1.3834254602701022	1.3839303116715327	1.3839705448115522	1.3837979893443573	12.0	255.0	11111110.0	
-8.303120780502618e-05	0.0003215125188261753	-0.017122628345802825	1.3832403878260122	1.3834189037583953	1.3839237551598258	1.3839642863231048	1.3837902407396128	13.0	255.0	11111110.0	
-8.041415809458116e-05	0.00031668859521540575	-0.017122628345802825	1.3832537988726854	1.3834299306189932	1.3839368681832396	1.3839765052767403	1.3838012676002107	14.0	255.0	11111110.0	
-7.844967493710482e-05	0.0003118909054847658	-0.017133059159881968	1.383259461314614	1.3834329108515873	1.3839389543460554	1.3839785914395561	1.3838048438793236	15.0	255.0	11111110.0	
-7.804641974534982e-05	0.0003071194343982586	-0.017139913694848262	1.38325648108202	1.3834302286422526	1.3839362721367208	1.383975611206962	1.3838024596932483	16.0	255.0	11111110.0	
-7.982578713539923e-05	0.00030237416601509924	-0.017151834625224426	1.3832672099193586	1.3834412555028506	1.3839493851601345	1.3839863400443007	1.383814678646884	17.0	255.0	11111110.0	
-8.389656477772792e-05	0.00029765508369338715	-0.017167033811454034	1.3832797268962536	1.383455560619302	1.3839630942300671	1.3839988570211956	1.3838260035307413	18.0	255.0	11111110.0	
-8.983359514168213e-05	0.0002929621700937922	-0.017170610090566883	1.3832841972451446	1.3834606270147118	1.3839669685324394	1.3840033273700867	1.3838310699261511	19.0	255.0	11111110.0	
-9.63947316459486e-05	0.00028829540718325596	-0.017165841718416418	1.3832687000356556	1.383443043642407	1.3839517693462098	1.3839890222536353	1.3838149766701433	20.0	255.0	11111110.0	
-0.00010176314821455575	0.00028365477623870677	-0.017170908113826287	1.3832672099193586	1.3834406594563318	1.3839493851601345	1.383988128183857	1.3838119964375493	21.0	255.0	11111110.0	
-0.00010486715458392495	0.00027904025785078915	-0.017178060672051985	1.3832678059658774	1.3834406594563318	1.383948193067097	1.38398663806756	1.383812592484068	22.0	255.0	11111110.0	
-0.00010588706077695463	0.0002744518319276067	-0.017165543695157014	1.3832648257332834	1.3834373812004783	1.383946106904281	1.3839845519047442	1.3838116984142899	23.0	255.0	11111110.0	
-0.00010504968810812247	0.0002698894776984786	-0.017146470206555152	1.3832633356169863	1.3834391693400347	1.3839464049275405	1.3839872341140789	1.3838131885305869	24.0	255.0	11111110.0	
-0.00010198796615182494	0.00026535317371770804	-0.017134847299438392	1.3832636336402457	1.3834406594563318	1.3839467029508	1.383989618300154	1.383814678646884	25.0	255.0	11111110.0	
-9.665733109852186e-05	0.0002608428978683634	-0.017123224392321633	1.3832582692215765	1.383438573293516	1.3839440207414653	1.3839857439977818	1.3838131885305869	26.0	255.0	11111110.0	
-8.964843205042626e-05	0.00025635862736606956	-0.017094912182678244	1.3832555870122418	1.383437083177219	1.3839419345786494	1.3839854459745224	1.383809612251474	27.0	255.0	11111110.0	
-8.130196985025635e-05	0.00025190033876281034	-0.017073752531260554	1.3832558850355012	1.3834361891074407	1.3839398484158336	1.3839827637651878	1.3838078241119176	28.0	255.0	11111110.0	
-7.171680723603739e-05	0.0002474680079507403	-0.01706630194977545	1.3832663158495804	1.3834472159680387	1.3839520673694692	1.3839928965560075	1.383820639112072	29.0	255.0	11111110.0	
-6.188143305589595e-05	0.00024306161016600616	-0.017075838694076383	1.3832678059658774	1.383447513991298	1.3839532594625068	1.3839920024862293	1.383819148995775	30.0	255.0	11111110.0	
-5.3907196773060476e-05	0.00023868111999257677	-0.01708865369423076	1.3832657198030616	1.3834427456191476	1.383948193067097	1.3839860420210413	1.3838119964375493	31.0	255.0	11111110.0	
-4.974414571325738e-05	0.00023432651136608243	-0.01710266078742275	1.3832654217798022	1.383440063409813	1.383948193067097	1.38398663806756	1.3838131885305869	32.0	255.0	11111110.0	
-4.988777736786049e-05	0.0002299977575776627	-0.017121734276024612	1.3832648257332834	1.3834406594563318	1.3839478950438375	1.3839869360908195	1.383814678646884	33.0	255.0	11111110.0	
-5.311575968990455e-05	0.00022569483127782302	-0.01712531055513746	1.3832666138728398	1.3834421495726288	1.383948193067097	1.3839869360908195	1.3838143806236245	34.0	255.0	11111110.0	
-5.6862282222955806e-05	0.00022141770448030044	-0.017126502648175078	1.383253500849426	1.3834311227120308	1.3839365701599802	1.383974717137184	1.3838012676002107	35.0	255.0	11111110.0	
-5.8202541391696484e-05	0.00021716634856593794	-0.017121138229505804	1.3832588652680953	1.383437083177219	1.3839407424856118	1.3839794855093344	1.3838078241119176	36.0	255.0	11111110.0	
-5.515976096686422e-05	0.0002129407342865677	-0.01710832322935143	1.3832666138728398	1.3834448317819634	1.3839493851601345	1.3839887242303759	1.383814678646884	37.0	255.0	11111110.0	
-4.758614568757611e-05	0.0002087408317689027	-0.017107131136313812	1.3832740644543249	1.3834501962006327	1.3839544515555444	1.3839958767886016	1.383822129228369	38.0	255.0	11111110.0	
-3.768802626967282e-05	0.00020456661051843663	-0.01711785997365236	1.3832701901519526	1.3834487060843357	1.3839502792299128	1.3839923005094887	1.3838188509725156	39.0	255.0	11111110.0	
-2.9581697672524936e-05	0.00020041803942335182	-0.017127098694693886	1.383260951430911	1.3834397653865536	1.3839437227182059	1.3839845519047442	1.3838108043445116	40.0	255.0	11111110.0	
-2.717816718769689e-05	0.0001962950867584352	-0.017127098694693886	1.3832558850355012	1.3834346989911437	1.3839392523693148	1.3839809756256314	1.383808122135177	41.0	255.0	11111110.0	
-3.208687892992731e-05	0.00019219772018900188	-0.01713454927617899	1.383250520616832	1.3834308246887714	1.3839368681832396	1.3839765052767403	1.3838018636467295	50.0	255.0	11111110.0	
-4.323551695338448e-05	0.00018812590677482678	-0.01712590660165627	1.3832678059658774	1.3834472159680387	1.383951173299691	1.3839928965560075	1.3838188509725156	51.0	255.0	11111110.0	
-5.767838916073974e-05	0.00018407961297408457	-0.01712739671795329	1.3832782367799565	1.3834576467821178	1.383963690276586	1.3840033273700867	1.383830175856373	52.0	255.0	11111110.0	
-7.204006611959027e-05	0.00018005880464729818	-0.017129780904028523	1.3832773427101783	1.3834546665495238	1.3839630942300671	1.3840018372537897	1.3838283877168165	53.0	255.0	11111110.0	
-8.403037828938649e-05	0.00017606344706129633	-0.0171425959041829	1.3832728723612873	1.3834519843401891	1.383957133764879	1.3839970688816392	1.3838245134144442	54.0	255.0	11111110.0	
-9.274699232563241e-05	0.0001720935048931796	-0.017140807764626474	1.3832678059658774	1.383449600154114	1.3839532594625068	1.3839955787653422	1.3838218312051096	48.0	255.0	11111110.0	
-9.77281240662964e-05	0.00016814894223429505	-0.01713842357855124	1.3832678059658774	1.383449004107595	1.3839544515555444	1.383996174811861	1.383820639112072	49.0	255.0	11111110.0	
-9.833256363627531e-05	0.00016422972259421832	-0.01713454927617899	1.383250520616832	1.3834308246887714	1.3839368681832396	1.3839765052767403	1.3838018636467295	50.0	255.0	11111110.0	
-9.409909823714183e-05	0.00016033580890474194	-0.01712590660165627	1.3832678059658774	1.3834472159680387	1.383951173299691	1.3839928965560075	1.3838188509725156	51.0	255.0	11111110.0	
-8.53169471403367e-05	0.00015646716352386912	-0.01712739671795329	1.3832782367799565	1.3834576467821178	1.383963690276586	1.3840033273700867	1.383830175856373	52.0	255.0	11111110.0	
-7.34233736405441e-05	0.00015262374823981186	-0.017129780904028523	1.3832773427101783	1.3834546665495238	1.3839630942300671	1.3840018372537897	1.3838283877168165	53.0	255.0	11111110.0	
-6.0934646518729296e-05	0.00014880552427499243	-0.0171425959041829	1.3832728723612873	1.3834519843401891	1.383957133764879	1.3839970688816392	1.3838245134144442	54.0	255.0	11111110.0	
-5.0765603902685325e-05	0.000145012452290048	-0.017156304974115487	1.3832651237565428	1.3834442357354446	1.3839478950438375	1.383989618300154	1.3838155727166621	55.0	255.0	11111110.0	
-4.511532143624313e-05	0.0001412444923878376	-0.01716017927648774	1.3832588652680953	1.3834367851539595	1.3839395503925742	1.383983657834966	1.3838084201584364	56.0	255.0	11111110.0	
-4.4277359710373314e-05	0.00013750160411745173	-0.017154218811299658	1.383263037593727	1.383443043642407	1.3839467029508	1.383990214346673	1.383814082600365	57.0	255.0	11111110.0	
-4.633687532542465e-05	0.00013378374647822418	-0.01713693346225422	1.3832633356169863	1.3834481100378169	1.383949683183394	1.3839949827188234	1.3838185529492562	58.0	255.0	11111110.0	
-4.832297225612346e-05	0.0001300908779237462	-0.01712739671795329	1.3832666138728398	1.3834519843401891	1.383954153532285	1.3840012412072709	1.3838245134144442	59.0	255.0	11111110.0	
-4.8245012566517905e-05	0.00012642295636588295	-0.0171279927644721	1.3832567791052794	1.3834439377121852	1.383945212834503	1.3839914064397105	1.3838152746934027	60.0	255.0	11111110.0	
-4.625822185325932e-05	0.0001227799391787925	-0.01712441648535925	1.383254990965723	1.3834427456191476	1.383943126671687	1.383988128183857	1.3838152746934027	61.0	255.0	11111110.0	
-4.372228365764021e-05	0.00011916178320294666	-0.017115475787577127	1.3832523087563884	1.3834379772469971	1.3839398484158336	1.3839860420210413	1.3838114003910305	62.0	255.0	11111110.0	
-4.156363567331837e-05	0.00011556844474915404	-0.017108621252610832	1.383254990965723	1.3834373812004783	1.3839395503925742	1.3839848499280036	1.3838093142282146	63.0	255.0	11111110.0	
-3.9915552463227956e-05	0.00011199987960258445	-0.01711130346194547	1.3832570771285388	1.3834382752702565	1.38394163655539	1.38398663806756	1.3838108043445116	64.0	255.0	11111110.0	
-3.867706053557786e-05	0.00010845604302679478	-0.01711070741542666	1.3832508186400914	1.3834308246887714	1.3839368681832396	1.3839771013232591	1.3838027577165077	65.0	255.0	11111110.0	
-3.7484010803420965e-05	0.0001049368897677556	-0.017100872647866326	1.3832573751517983	1.3834373812004783	1.3839434246949465	1.3839815716721502	1.3838099102747334	66.0	255.0	11111110.0	
-3.546875498961432e-05	0.0001014423740578785	-0.01710474695023858	1.3832567791052794	1.383435593060922	1.3839425306251683	1.3839830617884472	1.3838102082979928	67.0	255.0	11111110.0	
-3.216024672416729e-05	9.797244962004366e-05	-0.01712143625276521	1.383252010733129	1.3834311227120308	1.3839359741134614	1.3839779953930373	1.3838042478328048	68.0	255.0	11111110.0	
-2.8324636547273857e-05	9.452706967162734e-05	-0.017130078927287927	1.3832582692215765	1.3834397653865536	1.3839458088810217	1.383985147951263	1.3838102082979928	69.0	255.0	11111110.0	
-2.49903275626496e-05	9.110618692852929e-05	-0.017128290787731502	1.3832567791052794	1.3834361891074407	1.3839443187647247	1.383982167718669	1.3838108043445116	70.0	255.0	11111110.0	
-2.203954566965227e-05	8.77097536091999e-05	-0.0171208402062464	1.3832523087563884	1.3834326128283279	1.3839377622530178	1.3839779953930373	1.38380663201888	71.0	255.0	11111110.0	
-1.839270369680422e-05	8.433772143866635e-05	-0.017116965903874147	1.3832418779423092	1.3834221820142487	1.3839237551598258	1.383965180392883	1.3837929229489474	72.0	255.0	11111110.0	
-1.3331599213219514e-05	8.099004165255798e-05	-0.01711428369453951	1.3832305530584519	1.3834126452699478	1.3839166026016	1.3839577298113979	1.3837866644605	73.0	255.0	11111110.0	
-7.108193212354184e-06	7.766666500113028e-05	-0.0170990845083099	1.383217440035038	1.3834013203860904	1.3839052777177427	1.3839478950438375	1.3837735514370861	74.0	255.0	11111110.0	
-1.9218448394470958e-07	7.436754175328729e-05	-0.017075242647557574	1.383223996546745	1.3834111551536508	1.3839115362061902	1.3839568357416197	1.3837810020185712	75.0	255.0	11111110.0	
7.382717931636129e-06	7.109262170060212e-05	-0.017056169158955713	1.3832356194538618	1.3834236721305457	1.3839228610900476	1.383969650741774	1.3837953071350226	76.0	255.0	11111110.0	
1.5193412715625444e-05	6.784185416133524e-05	-0.01706332171718141	1.3832433680586063	1.3834281424794368	1.383927629462198	1.383974121090665	1.383800671553692	77.0	255.0	11111110.0	
2.1307517154813633e-05	6.461518798445055e-05	-0.01707285846148234	1.3832499245703131	1.3834367851539595	1.3839353780669426	1.3839809756256314	1.3838108043445116	78.0	255.0	11111110.0	
2.300456858338846e-05	6.141257155362931e-05	-0.017087759624452546	1.383247540384238	1.383435593060922	1.3839362721367208	1.383980677602372	1.3838075260886582	79.0	255.0	11111110.0	
1.8643135687214656e-05	5.823395279128219e-05	-0.017106535089795004	1.3832481364307567	1.3834323148050685	1.3839368681832396	1.3839800815558532	1.3838069300421394	80.0	255.0	11111110.0	
8.589361607514421e-06	5.5079279162559496e-05	-0.017124118462099845	1.3832612494541705	1.3834406594563318	1.3839490871368751	1.3839890222536353	1.383816168763181	81.0	255.0	11111110.0	
-4.961166074498387e-06	5.194849767936044e-05	-0.01713603939247601	1.3832716802682496	1.383449600154114	1.3839568357416197	1.3839967708583798	1.3838242153911848	82.0	255.0	11111110.0	
-1.8715350829268834e-05	4.8841554904341534e-05	-0.017143787997220515	1.3832585672448359	1.383437083177219	1.3839443187647247	1.3839854459745224	1.383812592484068	83.0	255.0	11111110.0	
-2.9443870081859137e-05	4.575839695492474e-05	-0.017149450439149193	1.3832466463144597	1.3834251622468428	1.3839315037645703	1.3839732270208869	1.3837991814373949	84.0	255.0	11111110.0	
-3.5279608017737245e-05	4.269896950730544e-05	-0.017161371369525356	1.3832508186400914	1.3834272484096586	1.3839344839971643	1.383974717137184	1.3838015656234701	85.0	255.0	11111110.0	
-3.642137421971031e-05	3.966321780046019e-05	-0.017167331834713438	1.3832570771285388	1.3834344009678843	1.383940146439093	1.3839827637651878	1.3838102082979928	86.0	255.0	11111110.0	
-3.440798618507734e-05	3.665108664015388e-05	-0.017157497067153103	1.3832537988726854	1.383432016781809	1.3839383582995366	1.383980677602372	1.3838069300421394	87.0	255.0	11111110.0	
-3.074853888607461e-05	3.3662520402945736e-05	-0.01715362276478085	1.3832511166633508	1.3834281424794368	1.3839332919041267	1.3839750151604433	1.383800671553692	88.0	255.0	11111110.0	
-2.6879022007201127e-05	3.069746304019372e-05	-0.01716524567189761	1.3832618455006893	1.3834406594563318	1.383944616787984	1.383985147951263	1.3838134865538463	89.0	255.0	11111110.0	
-2.4764869266234388e-05	2.775585808205657e-05	-0.017167033811454034	1.3832707861984714	1.3834501962006327	1.3839565377183602	1.3839958767886016	1.383823619344666	90.0	255.0	11111110.0	
-2.584591671187615e-05	2.483764864149307e-05	-0.01715153660196502	1.383264527710024	1.3834457258517416	1.3839505772531722	1.3839920024862293	1.383820639112072	91.0	255.0	11111110.0	
-2.9176520412279764e-05	2.1942777418258188e-05	-0.017119648113208784	1.3832618455006893	1.383443043642407	1.3839467029508	1.3839914064397105	1.3838179569027373	92.0	255.0	11111110.0	
-3.163181906750659e-05	1.907118670289573e-05	-0.01710176671764454	1.3832612494541705	1.383443043642407	1.3839458088810217	1.3839923005094887	1.3838185529492562	93.0	255.0	11111110.0	
-3.060949377001304e-05	1.6222818380727214e-05	-0.017103554857200963	1.3832570771285388	1.383440063409813	1.383940146439093	1.3839860420210413	1.3838149766701433	94.0	255.0	11111110.0	
-2.627519963620934e-05	1.3397613935836712e-05	-0.017109515322389045	1.383242473988828	1.3834251622468428	1.3839270334156792	1.3839717369045899	1.3837982873676167	95.0	255.0	11111110.0	
-2.078951548224365e-05	1.0595514455051433e-05	-0.017110111368907853	1.383259461314614	1.3834409574795912	1.383945212834503	1.3839890222536353	1.383814082600365	96.0	255.0	11111110.0	
-1.6148524836127258e-05	7.816460631917795e-06	-0.017127098694693886	1.3832684020123962	1.383449004107595	1.3839532594625068	1.383994684695564	1.383822129228369	97.0	255.0	11111110.0	
-1.3389747309241063e-05	5.060392770672667e-06	-0.01714348997396111	1.383270488175212	1.3834516863169297	1.3839568357416197	1.3839958767886016	1.3838248114377036	98.0	255.0	11111110.0	
-1.2510623084861566e-05	2.3272507902095095e-06	-0.017145278113517536	1.3832692960821744	1.3834487060843357	1.3839547495788038	1.3839925985327481	1.3838209371353314	99.0	255.0	11111110.0	
-1.2055173253325985e-05	-3.8302577196093534e-07	-0.017140211718107666	1.3832812170125506	1.383458540851896	1.3839657764394018	1.3840063076026807	1.3838313679494105	100.0	255.0	11111110.0	
-9.505529684911151e-06	-3.070497755755772e-06	-0.017126204624915674	1.3832862834079604	1.3834618191077495	1.3839702467882928	1.3840098838817936	1.3838349442285234	101.0	255.0	11111110.0	
-2.783260045048229e-06	-5.735226374571252e-06	-0.01711636985735534	1.3832692960821744	1.3834442357354446	1.3839517693462098	1.3839911084164511	1.383816168763181	102.0	255.0	11111110.0	
8.167879295627742e-06	-8.377273211340605e-06	-0.017117561950392955	1.383253500849426	1.383429036549215	1.3839368681832396	1.383974717137184	1.383802161669989	103.0	255.0	11111110.0	
2.09096165535092e-05	-1.099670021459873e-05	-0.01711577381083653	1.383267507942618	1.3834442357354446	1.3839538555090256	1.3839925985327481	1.3838197450422938	104.0	255.0	11111110.0	
3.1916309808726684e-05	-1.3593569694553976e-05	-0.017108621252610832	1.3832684020123962	1.3834451298052228	1.3839553456253226	1.3839928965560075	1.383820639112072	105.0	255.0	11111110.0	
3.852936229164041e-05	-1.6167944319167116e-05	-0.01710921729912964	1.3832678059658774	1.3834439377121852	1.3839517693462098	1.383990214346673	1.383819148995775	106.0	255.0	11111110.0	
3.953558870108576e-05	-1.871988711023755e-05	-0.017116965903874147	1.3832642296867645	1.3834421495726288	1.3839478950438375	1.383988128183857	1.383816168763181	107.0	255.0	11111110.0	
3.478036739166401e-05	-2.124946143949657e-05	-0.017127098694693886	1.3832597593378735	1.383437083177219	1.3839422326019089	1.3839872341140789	1.3838122944608087	108.0	255.0	11111110.0	
2.511558462173338e-05	-2.3756731024707288e-05	-0.017133059159881968	1.3832573751517983	1.383438573293516	1.3839428286484277	1.3839875321373383	1.3838122944608087	109.0	255.0	11111110.0	
1.2681439647512741e-05	-2.6241759925770878e-05	-0.017130078927287927	1.3832529048029072	1.3834338049213655	1.3839365701599802	1.3839815716721502	1.3838072280653988	110.0	255.0	11111110.0	
6.494816677194088e-07	-2.8704612540838606e-05	-0.017129780904028523	1.3832573751517983	1.3834358910841813	1.3839398484158336	1.3839842538814848	1.3838108043445116	111.0	255.0	11111110.0	
-8.024702085801256e-06	-3.1145353602429165e-05	-0.017133655206400776	1.383263037593727	1.3834427456191476	1.3839464049275405	1.3839914064397105	1.383816168763181	112.0	255.0	11111110.0	
-1.1875187340721987e-05	-3.3564048173551085e-05	-0.017135145322697796	1.3832612494541705	1.38344155352611	1.3839493851601345	1.383988128183857	1.3838170628329591	113.0	255.0	11111110.0	
-1.1129574611462329e-05	-3.59607616438302e-05	-0.01714050974136707	1.383259461314614	1.383434997014403	1.3839437227182059	1.383982167718669	1.383811102367771	114.0	255.0	11111110.0	
-7.1047378448184655e-06	-3.833555972564247e-05	-0.017139913694848262	1.3832722763147685	1.3834466199215198	1.3839547495788038	1.3839925985327481	1.3838215331818502	115.0	255.0	11111110.0	
-1.2547151784818235e-06	-4.068850845025269e-05	-0.01712948288076912	1.3832767466636595	1.3834507922471515	1.3839577298113979	1.383994684695564	1.3838227252748878	116.0	255.0	11111110.0	
5.565527652054013e-06	-4.301967416395978e-05	-0.017121734276024612	1.383268998058915	1.383440063409813	1.3839475970205781	1.3839854459745224	1.383814082600365	117.0	255.0	11111110.0	
1.2815120275642478e-05	-4.5329123524249076e-05	-0.017119052066689976	1.3832612494541705	1.3834314207352902	1.3839413385321306	1.383979187486075	1.3838078241119176	118.0	255.0	11111110.0	
1.968833844248998e-05	-4.7616923495952317e-05	-0.01710921729912964	1.3832716802682496	1.3834442357354446	1.3839523653927286	1.383989618300154	1.3838182549259967	119.0	255.0	11111110.0	
2.520792305224761e-05	-4.988314134741554e-05	-0.017111601485204873	1.3832806209660318	1.3834531764332267	1.3839624981835483	1.3839988570211956	1.3838274936470383	120.0	255.0	11111110.0	
2.8311869427207143e-05	-5.212784464667509e-05	-0.017121138229505804	1.3832883695707763	1.3834621171310089	1.383972630974368	1.384008691788756	1.383837626437858	121.0	255.0	11111110.0	
2.7787204748707663e-05	-5.435110125764154e-05	-0.01713842357855124	1.38328151503581	1.3834531764332267	1.3839642863231048	1.3840000491142332	1.3838289837633353	122.0	255.0	11111110.0	
2.290132853738049e-05	-5.655297933629149e-05	-0.017145278113517536	1.3832773427101783	1.383449600154114	1.3839598159742137	1.383996174811861	1.383823619344666	123.0	255.0	11111110.0	
1.4569338580057683e-05	-5.8733547326866854e-05	-0.017140211718107666	1.3832767466636595	1.383450494223892	1.383960113997473	1.3840000491142332	1.38382659957726	124.0	255.0	11111110.0	
5.508501051943034e-06	-6.089287395808137e-05	-0.017143787997220515	1.3832746605008437	1.3834501962006327	1.383955643648582	1.3839979629514174	1.3838254074842224	125.0	255.0	11111110.0	
-1.5273079852616707e-06	-6.303102823933405e-05	-0.0171571990438937	1.3832797268962536	1.3834561566658208	1.383960710043992	1.3840015392305303	1.3838322620191887	126.0	255.0	11111110.0	
-5.388185680804116e-06	-6.51480794569293e-05	-0.017156006950856083	1.383275554570622	1.3834537724797455	1.3839604120207325	1.3839988570211956	1.383829579809854	127.0	255.0	11111110.0	
-6.111234385989129e-06	-6.724409717030405e-05	-0.017153026718262042	1.3832812170125506	1.3834546665495238	1.3839624981835483	1.3840045194631243	1.3838322620191887	128.0	255.0	11111110.0	
-4.064011429487694e-06	-6.93191512082621e-05	-0.017153324741521446	1.3832806209660318	1.3834546665495238	1.3839627962068077	1.3840024333003085	1.3838313679494105	129.0	255.0	11111110.0	
8.722076424603695e-09	-7.137331166521594e-05	-0.017148258346111576	1.3832764486404001	1.383451090270411	1.3839604120207325	1.3839973669048986	1.3838260035307413	130.0	255.0	11111110.0	
5.175119222319141e-06	-7.34066488974369e-05	-0.017133059159881968	1.383274958524103	1.3834484080610763	1.383957133764879	1.3839943866723046	1.3838215331818502	131.0	255.0	11111110.0	
1.0802601183646182e-05	-7.541923351931375e-05	-0.017125608578396866	1.3832743624775843	1.3834454278284822	1.383957133764879	1.3839925985327481	1.3838197450422938	132.0	255.0	11111110.0	
1.6178925455872086e-05	-7.741113639962041e-05	-0.017128588810990907	1.3832698921286932	1.383438573293516	1.383951173299691	1.3839875321373383	1.3838143806236245	133.0	255.0	11111110.0	
2.0137109453258943e-05	-7.938242865779285e-05	-0.017119052066689976	1.3832773427101783	1.383447513991298	1.383958623881176	1.3839952807420828	1.383823619344666	134.0	255.0	11111110.0	
2.1779237607933908e-05	-8.133318166021537e-05	-0.017120542182986996	1.3832821110823288	1.383452580386708	1.3839642863231048	1.3840003471374926	1.383828089693557	135.0	255.0	11111110.0	
2.082388390513935e-05	-8.326346701651619e-05	-0.017133357183141372	1.3832982043383366	1.3834671835264187	1.3839794855093344	1.3840158443469817	1.3838438849263055	136.0	255.0	11111110.0	
1.7252314962678595e-05	-8.517335657587228e-05	-0.01713752950877303	1.38330148259419	1.3834704617822722	1.3839815716721502	1.384019718649354	1.3838465671356401	137.0	255.0	11111110.0	
1.1830404828302554e-05	-8.706292242332324e-05	-0.01713097299706614	1.38330148259419	1.3834692696892346	1.3839815716721502	1.3840170364400193	1.3838447789960837	138.0	255.0	11111110.0	
6.631576934514592e-06	-8.89322368760942e-05	-0.017129184857509715	1.383291051780111	1.3834627131775277	1.383975611206962	1.3840080957422372	1.3838382224843768	139.0	255.0	11111110.0	
3.899615398748207e-06	-9.078137247992747e-05	-0.01713603939247601	1.3832946280592238	1.3834653953868623	1.3839773993465185	1.38401167202135	1.383842096786749	140.0	255.0	11111110.0	
4.372200778617031e-06	-9.261040200542336e-05	-0.01714915241588979	1.3832982043383366	1.3834734420148662	1.3839830617884472	1.3840188245795757	1.3838465671356401	141.0	255.0	11111110.0	
6.998780211290299e-06	-9.441939844438995e-05	-0.017159285206709528	1.3832847932916634	1.3834606270147118	1.3839687566719958	1.3840054135329025	1.383834646205264	142.0	255.0	11111110.0	
1.0121718803582608e-05	-9.620843500620238e-05	-0.017162861485822377	1.3832752565473625	1.383451090270411	1.3839583258579167	1.3839970688816392	1.3838268976005195	143.0	255.0	11111110.0	
1.2683162570430954e-05	-9.797758511417177e-05	-0.017166139741675822	1.3832722763147685	1.3834484080610763	1.3839550476020632	1.3839952807420828	1.3838242153911848	144.0	255.0	11111110.0	
1.4373645396991363e-05	-9.972692240192426e-05	-0.01716882195101046	1.3832782367799565	1.3834519843401891	1.3839583258579167	1.3839979629514174	1.3838268976005195	145.0	255.0	11111110.0	
1.5089709533102767e-05	-0.00010145652070979004	-0.017172398230123308	1.3832907537568515	1.3834639052705653	1.3839729289976275	1.384010181905053	1.3838385205076362	146.0	255.0	11111110.0	
1.4455895571227552e-05	-0.0001031664540812025	-0.017182232997683643	1.3832838992218852	1.3834561566658208	1.3839678626022176	1.3840018372537897	1.38383166597267	147.0	255.0	11111110.0	
1.178785070325136e-05	-0.0001048567967591078	-0.017185511253537088	1.3832856873614416	1.3834549645727832	1.3839669685324394	1.3840015392305303	1.38383166597267	148.0	255.0	11111110.0	
6.6396290161495125e-06	-0.00010652762318238446	-0.01718849148613113	1.383292541896408	1.383463011200787	1.3839750151604433	1.3840098838817936	1.3838367323680798	149.0	255.0	11111110.0	
-7.780065339996309e-07	-0.00010817900798227274	-0.017195644044356827	1.3832827071288476	1.3834534744564861	1.383965180392883	1.3839982609746768	1.383828089693557	150.0	255.0	11111110.0	
-9.601569048675834e-06	-0.00010981102597881428	-0.0171864053233153	1.3832836011986258	1.3834513882936703	1.3839660744626612	1.3839973669048986	1.383828089693557	151.0	255.0	11111110.0	
-1.798645739162257e-05	-0.00011142375217730163	-0.017164053578859993	1.38328151503581	1.3834501962006327	1.383965180392883	1.3839970688816392	1.383825109460963	152.0	255.0	11111110.0	
-2.3019884733344357e-05	-0.00011301726176473819	-0.017135741369216605	1.3832803229427724	1.383449004107595	1.3839627962068077	1.3839925985327481	1.3838227252748878	153.0	255.0	11111110.0	
-2.2006104312688186e-05	-0.00011459163010630904	-0.017118157996911763	1.3832782367799565	1.383447513991298	1.383962200160289	1.3839914064397105	1.3838215331818502	154.0	255.0	11111110.0	
-1.4543564871685071e-05	-0.00011614693274186314	-0.01712590660165627	1.3832722763147685	1.3834427456191476	1.3839565377183602	1.3839872341140789	1.3838155727166621	155.0	255.0	11111110.0	
-3.4304830834708624e-06	-0.0001176832453824077	-0.017137231485513625	1.3832794288729942	1.3834481100378169	1.383960113997473	1.383996174811861	1.383825109460963	156.0	255.0	11111110.0	
7.23968054433977e-06	-0.00011920064390661509	-0.017132761136622564	1.3832898596870733	1.3834591368984148	1.383971140858071	1.3840039234166055	1.3838340501587452	157.0	255.0	11111110.0	
1.5358753478316616e-05	-0.00012069920435734315	-0.01711935008994938	1.3832973102685584	1.3834704617822722	1.383982167718669	1.3840158443469817	1.383844182949565	158.0	255.0	11111110.0	
2.2028182270722224e-05	-0.00012217900293816917	-0.017101468694385134	1.3833017806174495	1.383475528177682	1.3839845519047442	1.3840224008586886	1.383848653298456	159.0	255.0	11111110.0	
2.9798984805844283e-05	-0.0001236401160099379	-0.017096998345494073	1.3833074430593781	1.383478508410276	1.3839890222536353	1.3840268712075796	1.3838543157403846	160.0	255.0	11111110.0	
4.004690965649408e-05	-0.00012508262008732415	-0.017095806252456457	1.3832976082918178	1.3834686736427158	1.383979187486075	1.384016142370241	1.3838453750426025	161.0	255.0	11111110.0	
5.196097508306907e-05	-0.0001265065918354098	-0.017094316136159436	1.383291051780111	1.3834636072473059	1.3839732270208869	1.3840098838817936	1.3838367323680798	162.0	255.0	11111110.0	
6.337031422476945e-05	-0.00012791210806627562	-0.017100574624606922	1.383290455733592	1.383463011200787	1.383972630974368	1.3840080957422372	1.383836136321561	163.0	255.0	11111110.0	
7.178070668795871e-05	-0.00012929924573560733	-0.017112495554983086	1.383297012245299	1.3834689716659752	1.3839800815558532	1.3840125660911282	1.3838409046937115	164.0	255.0	11111110.0	
7.507749937175619e-05	-0.00013066808193931654	-0.01712441648535925	1.3832990984081148	1.3834683756194563	1.3839812736488908	1.3840137581841658	1.3838417987634897	165.0	255.0	11111110.0	
7.232042977161702e-05	-0.0001320186939101754	-0.017130078927287927	1.3832850913149228	1.3834558586425614	1.3839690546952552	1.3840003471374926	1.3838268976005195	166.0	255.0	11111110.0	
6.426180978108802e-05	-0.00013335115901446526	-0.01713395322966018	1.3832841972451446	1.3834498981773733	1.383965180392883	1.3839964728351204	1.3838218312051096	167.0	255.0	11111110.0	
5.2914176175933585e-05	-0.00013466555474863834	-0.01713901962507005	1.3832788328264753	1.3834439377121852	1.3839583258579167	1.3839899163234135	1.3838170628329591	168.0	255.0	11111110.0	
4.040194835507819e-05	-0.00013596195873599222	-0.017147960322852172	1.3832788328264753	1.3834457258517416	1.3839589219044355	1.3839908103931917	1.383819148995775	169.0	255.0	11111110.0	
2.8148255557960944e-05	-0.00013724044872335614	-0.017151238578705617	1.3832672099193586	1.3834346989911437	1.3839478950438375	1.3839773993465185	1.3838072280653988	170.0	255.0	11111110.0	
1.6911318853805e-05	-0.0001385011025777887	-0.017156304974115487	1.3832746605008437	1.3834409574795912	1.383955643648582	1.3839854459745224	1.383814082600365	171.0	255.0	11111110.0	
6.985193326844322e-06	-0.0001397439982832859	-0.017166139741675822	1.3832722763147685	1.383435593060922	1.3839502792299128	1.383983657834966	1.3838093142282146	172.0	255.0	11111110.0	
-1.8323869004484793e-06	-0.00014096921393749943	-0.017175974509236157	1.3832537988726854	1.3834174136420982	1.3839318017878297	1.3839645843463642	1.3837899427163534	173.0	255.0	11111110.0	
-9.950363544942358e-06	-0.00014217682774846468	-0.01718133892790543	1.3832865814312199	1.3834537724797455	1.3839657764394018	1.3839994530677144	1.3838245134144442	174.0	255.0	11111110.0	
-1.7433981091587278e-05	-0.00014336691803133912	-0.017186703346574704	1.383288965617295	1.3834573487588584	1.3839702467882928	1.384005711556162	1.3838292817865947	175.0	255.0	11111110.0	
-2.3979299644477235e-05	-0.00014453956320515093	-0.01719594206761623	1.3832898596870733	1.3834591368984148	1.383971140858071	1.3840074996957183	1.3838322620191887	176.0	255.0	11111110.0	
-2.936858915416143e-05	-0.00014569484178955872	-0.01720398869562014	1.3832821110823288	1.3834534744564861	1.383963690276586	1.3840003471374926	1.3838260035307413	177.0	255.0	11111110.0	
-3.349393298564222e-05	-0.00014683283240162328	-0.017200412416507292	1.3832722763147685	1.383444533758704	1.3839538555090256	1.3839908103931917	1.3838173608562185	178.0	255.0	11111110.0	
-3.585927462666967e-05	-0.0001479536137525915	-0.017192067765243978	1.3832728723612873	1.3834427456191476	1.383954153532285	1.3839884262071165	1.3838170628329591	179.0	255.0	11111110.0	
-3.560047393331303e-05	-0.00014905726464469325	-0.017183723113980663	1.3832743624775843	1.3834421495726288	1.3839547495788038	1.3839875321373383	1.383814678646884	180.0	255.0	11111110.0	
-3.236868651285713e-05	-0.0001501438639679514	-0.01718431916049947	1.3832833031753664	1.383449600154114	1.3839639882998453	1.3839925985327481	1.3838212351585908	181.0	255.0	11111110.0	
-2.706245778997564e-05	-0.00015121349069700636	-0.017185213230277684	1.3832731703845467	1.3834376792237377	1.3839538555090256	1.3839809756256314	1.383809612251474	182.0	255.0	11111110.0	
-2.136273114997691e-05	-0.00015226622388795477	-0.017180146834867814	1.3832856873614416	1.3834493021308545	1.383963690276586	1.383994684695564	1.3838200430655532	183.0	255.0	11111110.0	
-1.645784948679221e-05	-0.0001533021426752032	-0.017170908113826287	1.383292541896408	1.3834561566658208	1.3839693527185146	1.3840000491142332	1.3838271956237789	184.0	255.0	11111110.0	
-1.2089792893877412e-05	-0.00015432132626833737	-0.0171425959041829	1.3832758525938813	1.3834403614330724	1.3839532594625068	1.3839848499280036	1.3838102082979928	185.0	255.0	11111110.0	
-6.402073357564839e-06	-0.00015532385394900687	-0.01710832322935143	1.383280024919513	1.383444533758704	1.3839598159742137	1.383990214346673	1.383814082600365	186.0	255.0	11111110.0	
2.7517650148077425e-06	-0.00015630980506782638	-0.017097296368753477	1.3832841972451446	1.3834507922471515	1.3839645843463642	1.3839949827188234	1.383820639112072	187.0	255.0	11111110.0	
1.5236160182349279e-05	-0.00015727925904129297	-0.017111899508464277	1.3832871774777387	1.3834537724797455	1.383968160625477	1.3839973669048986	1.3838227252748878	188.0	255.0	11111110.0	
2.774507900592791e-05	-0.00015823229534871978	-0.017121734276024612	1.3832856873614416	1.3834516863169297	1.3839639882998453	1.3839973669048986	1.383820639112072	189.0	255.0	11111110.0	
3.624589483935492e-05	-0.00015916899352918625	-0.01713097299706614	1.383292541896408	1.3834579448053772	1.3839675645789582	1.3840024333003085	1.3838277916702977	190.0	255.0	11111110.0	
3.891475396304106e-05	-0.00016008943317850484	-0.0171354433459572	1.3832901577103327	1.3834576467821178	1.3839693527185146	1.3840033273700867	1.3838292817865947	191.0	255.0	11111110.0	
3.688643489756433e-05	-0.000160993693946204	-0.017132761136622564	1.383288965617295	1.3834591368984148	1.3839699487650334	1.3840039234166055	1.383830175856373	192.0	255.0	11111110.0	
3.3165146189848894e-05	-0.00016188185553252723	-0.01713037695054733	1.3832743624775843	1.383443043642407	1.383955643648582	1.383988128183857	1.383814678646884	193.0	255.0	11111110.0	
3.096467893496085e-05	-0.00016275399768544808	-0.017116667880614743	1.3832776407334377	1.3834487060843357	1.3839577298113979	1.38399170446297	1.383816168763181	194.0	255.0	11111110.0	
3.236630071964475e-05	-0.0001636102001977009	-0.017112495554983086	1.3832791308497348	1.3834469179447793	1.3839577298113979	1.3839934926025264	1.383817658879478	195.0	255.0	11111110.0	
3.7216140249139685e-05	-0.0001644505429038269	-0.017126502648175078	1.3832698921286932	1.3834341029446249	1.383949683183394	1.3839815716721502	1.383808122135177	196.0	255.0	11111110.0	
4.272919210028249e-05	-0.00016527510567723562	-0.01714199985766409	1.3832642296867645	1.3834278444561774	1.3839419345786494	1.3839732270208869	1.3837997774839137	197.0	255.0	11111110.0	
4.5040373263667576e-05	-0.00016608396842728165	-0.01715362276478085	1.3832567791052794	1.3834227780607675	1.3839332919041267	1.3839669685324394	1.3837920288791692	198.0	255.0	11111110.0	
4.183864742209834e-05	-0.0001668772110963559	-0.017150344508927405	1.3832532028261666	1.3834162215490606	1.3839315037645703	1.3839624981835483	1.3837863664372405	199.0	255.0	11111110.0	
3.369881307326201e-05	-0.00016765491365699193	-0.017150344508927405	1.3832621435239487	1.3834263543398804	1.3839422326019089	1.3839717369045899	1.383795605158282	200.0	255.0	11111110.0	
2.298113698095825e-05	-0.00016841715610898636	-0.017159881253228336	1.3832588652680953	1.383423076084027	1.3839383582995366	1.3839675645789582	1.3837929229489474	201.0	255.0	11111110.0	
1.2126585436100421e-05	-0.00016916401847653296	-0.01714348997396111	1.3832687000356556	1.383438573293516	1.3839499812066534	1.3839812736488908	1.3838090162049552	210.0	255.0	11111110.0	
3.361521932513929e-06	-0.00016989558080537072	-0.017134847299438392	1.3832669118960992	1.383435593060922	1.3839472989973187	1.3839788894628156	1.3838060359723612	211.0	255.0	11111110.0	
-1.58396321054457e-06	-0.0001706119231599448	-0.0171279927644721	1.3832692960821744	1.383437083177219	1.3839484910903563	1.383980677602372	1.3838090162049552	212.0	255.0	11111110.0	
-2.6151236780240137e-06	-0.00017131312562058095	-0.01713842357855124	1.3832603553843923	1.383427546432918	1.3839404444623524	1.383969650741774	1.3837973932978385	213.0	255.0	11111110.0	
-1.6541822707613857e-06	-0.00017199926828067252	-0.017151238578705617	1.3832573751517983	1.3834236721305457	1.3839383582995366	1.3839657764394018	1.3837920288791692	214.0	255.0	11111110.0	
-1.5106731633934942e-06	-0.00017267043124388052	-0.017166139741675822	1.3832514146866102	1.3834200958514329	1.383930609694792	1.3839639882998453	1.3837905387628722	208.0	255.0	11111110.0	
-3.8325005406423e-06	-0.00017332669462134684	-0.017155410904337275	1.3832648257332834	1.3834338049213655	1.383945212834503	1.383977697369778	1.3838057379491018	209.0	255.0	11111110.0	
-7.6104618468606855e-06	-0.00017396813852892085	-0.01714348997396111	1.3832687000356556	1.383438573293516	1.3839499812066534	1.3839812736488908	1.3838090162049552	210.0	255.0	11111110.0	
-9.98703925409063e-06	-0.0001745948430843997	-0.017134847299438392	1.3832669118960992	1.383435593060922	1.3839472989973187	1.3839788894628156	1.3838060359723612	211.0	255.0	11111110.0	
-8.678386610964895e-06	-0.00017520688840478283	-0.0171279927644721	1.3832692960821744	1.383437083177219	1.3839484910903563	1.383980677602372	1.3838090162049552	212.0	255.0	11111110.0	
-3.638119815268365e-06	-0.00017580435460354032	-0.01713842357855124	1.3832603553843923	1.383427546432918	1.3839404444623524	1.383969650741774	1.3837973932978385	213.0	255.0	11111110.0	
2.8274958844294444e-06	-0.00017638732178789585	-0.017151238578705617	1.3832573751517983	1.3834236721305457	1.3839383582995366	1.3839657764394018	1.3837920288791692	214.0	255.0	11111110.0	
7.595379304044226e-06	-0.00017695587005612411	-0.017149748462408597	1.3832517127098696	1.3834159235258012	1.3839309077180515	1.3839583258579167	1.3837839822511653	215.0	255.0	11111110.0	
8.998980045936465e-06	-0.0001775100794948628	-0.01714915241588979	1.3832588652680953	1.3834206918979517	1.383937166206499	1.3839633922533265	1.3837902407396128	216.0	255.0	11111110.0	
7.3656561922311485e-06	-0.000178050030176439	-0.0171571990438937	1.3832621435239487	1.3834242681770645	1.38394163655539	1.38396667050918	1.383794115041985	217.0	255.0	11111110.0	
3.677216190302963e-06	-0.00017857580215621	-0.017167033811454034	1.3832502225935726	1.3834129432932072	1.3839303116715327	1.3839562396951008	1.3837833862046465	218.0	255.0	11111110.0	
-1.3829341708265991e-06	-0.00017908747546991838	-0.017175080439457945	1.3832526067796478	1.3834159235258012	1.3839329938808673	1.3839592199276949	1.3837869624837593	219.0	255.0	11111110.0	
-7.2538346819910385e-06	-0.0001795851301310612	-0.017178656718570794	1.3832618455006893	1.3834248642235834	1.3839419345786494	1.3839675645789582	1.3837938170187256	220.0	255.0	11111110.0	
-1.33264514864966e-05	-0.00018006884612827264	-0.017192365788503382	1.3832722763147685	1.3834344009678843	1.383952663415988	1.3839771013232591	1.383802161669989	221.0	255.0	11111110.0	
-1.9293785256680623e-05	-0.00018053870342272016	-0.0172010084630261	1.3832666138728398	1.3834287385259556	1.3839467029508	1.3839708428348116	1.3837982873676167	222.0	255.0	11111110.0	
-2.5131835355824946e-05	-0.0001809947819455141	-0.01720458474213895	1.3832642296867645	1.383424566200324	1.3839422326019089	1.383968160625477	1.3837932209722068	223.0	255.0	11111110.0	
-3.056104339806907e-05	-0.00018143716159513046	-0.01720398869562014	1.383257971198317	1.3834206918979517	1.3839377622530178	1.3839660744626612	1.3837908367861316	224.0	255.0	11111110.0	
-3.4852175241410505e-05	-0.00018186592223484727	-0.01719594206761623	1.383270488175212	1.383435593060922	1.3839520673694692	1.3839812736488908	1.3838048438793236	225.0	255.0	11111110.0	
-3.723802618402225e-05	-0.00018228114369019457	-0.017195644044356827	1.3832672099193586	1.3834361891074407	1.3839514713229504	1.3839785914395561	1.3838054399258424	226.0	255.0	11111110.0	
-3.772320738229613e-05	-0.00018268290574641855	-0.017201902532804313	1.3832746605008437	1.383440063409813	1.3839550476020632	1.3839854459745224	1.3838105063212522	227.0	255.0	11111110.0	
-3.727117114769022e-05	-0.0001830712881459601	-0.01719594206761623	1.3832722763147685	1.3834361891074407	1.3839487891136157	1.3839812736488908	1.383805141902583	228.0	255.0	11111110.0	
-3.681086793012119e-05	-0.0001834463705859481	-0.017193557881540998	1.3832716802682496	1.383437083177219	1.3839514713229504	1.3839809756256314	1.383805141902583	229.0	255.0	11111110.0	
-3.6623853301348585e-05	-0.00018380823271570772	-0.01719653811413504	1.3832612494541705	1.3834206918979517	1.3839413385321306	1.3839675645789582	1.3837905387628722	230.0	255.0	11111110.0	
-3.6718198253253586e-05	-0.00018415695413428394	-0.01719802823043206	1.3832791308497348	1.3834323148050685	1.3839553456253226	1.3839797835325938	1.3838033537630265	231.0	255.0	11111110.0	
-3.693830606280301e-05	-0.00018449261438798102	-0.01719594206761623	1.3832982043383366	1.383452580386708	1.383975611206962	1.3840003471374926	1.383823619344666	232.0	255.0	11111110.0	
-3.663385774375691e-05	-0.0001848152929679174	-0.017188193462871725	1.38330148259419	1.3834603289914524	1.383980677602372	1.3840045194631243	1.3838260035307413	233.0	255.0	11111110.0	
-3.4633955911250605e-05	-0.00018512506930759684	-0.017177166602273773	1.383304462826784	1.38346152108449	1.383980677602372	1.3840060095794213	1.383828089693557	234.0	255.0	11111110.0	
-2.9994406930499752e-05	-0.00018542202278049573	-0.01718282904420245	1.3832990984081148	1.3834543685262644	1.383975611206962	1.383999155044455	1.3838242153911848	235.0	255.0	11111110.0	
-2.3130855446225145e-05	-0.00018570623269766715	-0.01719147171872517	1.3833023766639683	1.3834576467821178	1.3839785914395561	1.3840015392305303	1.3838274936470383	236.0	255.0	11111110.0	
-1.5681539310263685e-05	-0.00018597777830536144	-0.01718789543961232	1.3833017806174495	1.3834582428286366	1.3839803795791126	1.3840018372537897	1.38382659957726	237.0	255.0	11111110.0	
-8.901739147741889e-06	-0.00018623673878266365	-0.017180742881386622	1.383298502361596	1.3834546665495238	1.3839765052767403	1.3839973669048986	1.3838218312051096	238.0	255.0	11111110.0	
-2.723668321453945e-06	-0.00018648319323914857	-0.01716822590449165	1.3833077410826375	1.3834624151542683	1.3839869360908195	1.3840074996957183	1.3838304738796323	239.0	255.0	11111110.0	
3.701929472713962e-06	-0.00018671722071255287	-0.017156304974115487	1.3833131055013068	1.3834677795729375	1.3839911084164511	1.3840125660911282	1.3838373284145986	240.0	255.0	11111110.0	
1.0881033541659541e-05	-0.00018693890016646442	-0.017154218811299658	1.3832990984081148	1.3834534744564861	1.383975611206962	1.3839973669048986	1.3838239173679254	241.0	255.0	11111110.0	
1.8066446414861633e-05	-0.00018714831048802965	-0.017160477299747144	1.3832850913149228	1.3834403614330724	1.383962200160289	1.3839872341140789	1.3838099102747334	242.0	255.0	11111110.0	
2.355763976333601e-05	-0.0001873455304856778	-0.017154218811299658	1.3832847932916634	1.3834439377121852	1.3839654784161424	1.3839884262071165	1.3838116984142899	243.0	255.0	11111110.0	
2.619191036299306e-05	-0.00018753063888686273	-0.017150344508927405	1.3832856873614416	1.383446023875001	1.3839660744626612	1.3839890222536353	1.3838128905073275	244.0	255.0	11111110.0	
2.610417659578107e-05	-0.00018770371433582172	-0.01715064253218681	1.3832868794544793	1.3834451298052228	1.3839645843463642	1.3839872341140789	1.383812592484068	245.0	255.0	11111110.0	
2.4029559547713837e-05	-0.00018786483539135095	-0.0171571990438937	1.383292541896408	1.383449004107595	1.3839699487650334	1.38399170446297	1.3838152746934027	246.0	255.0	11111110.0	
2.0452205023042285e-05	-0.00018801408052459756	-0.01717031206730748	1.3832996944546336	1.3834534744564861	1.3839750151604433	1.3839955787653422	1.3838200430655532	247.0	255.0	11111110.0	
1.5390512178451398e-05	-0.00018815152811686736	-0.017187001369834108	1.383302972710487	1.3834534744564861	1.3839785914395561	1.3839958767886016	1.383820639112072	248.0	255.0	11111110.0	
8.829682026259003e-06	-0.00018827725645744796	-0.017196240090875635	1.3832990984081148	1.3834481100378169	1.3839720349278493	1.3839911084164511	1.3838155727166621	249.0	255.0	11111110.0	
1.552465421970808e-06	-0.00018839134374144708	-0.017193259858281594	1.3833068470128593	1.3834546665495238	1.3839765052767403	1.3839964728351204	1.383822129228369	250.0	255.0	11111110.0	
-4.565657808716943e-06	-0.0001884938680676455	-0.017188789509390533	1.3833122114315286	1.3834603289914524	1.3839830617884472	1.3839994530677144	1.3838254074842224	251.0	255.0	11111110.0	
-7.452732644782213e-06	-0.00018858490743636444	-0.01718133892790543	1.3833023766639683	1.383452580386708	1.3839773993465185	1.3839943866723046	1.383817658879478	252.0	255.0	11111110.0	
-6.0970630819923675e-06	-0.00018866453974734738	-0.017175676485976753	1.3832827071288476	1.3834308246887714	1.383957133764879	1.383972630974368	1.3837959031815414	253.0	255.0	11111110.0	
-1.216963864474627e-06	-0.0001887328427976562	-0.017180146834867814	1.3832961181755208	1.3834457258517416	1.3839720349278493	1.3839848499280036	1.3838108043445116	254.0	255.0	11111110.0	
4.870586176362358e-06	-0.000188789894279582	-0.017184617183758875	1.3833026746872277	1.3834519843401891	1.3839779953930373	1.3839908103931917	1.383817658879478	255.0	255.0	11111110.0	
9.336617793675355e-06	-0.00018883577177857068	-0.017188789509390533	1.383308039105897	1.3834537724797455	1.3839809756256314	1.3839937906257858	1.3838197450422938	0.0	255.0	11111110.0	
1.0234742137900203e-05	-0.00018887055277116359	-0.017193557881540998	1.3833196620130137	1.383468077596197	1.3839925985327481	1.3840077977189778	1.3838325600424481	1.0	255.0	11111110.0	
7.200913391510984e-06	-0.00018889431462295263	-0.01719296183502219	1.383315489687382	1.383468077596197	1.3839920024862293	1.3840060095794213	1.38383166597267	2.0	255.0	11111110.0	
1.4747030965782523e-06	-0.00018890713458655025	-0.01718491520701828	1.383305058873303	1.3834579448053772	1.3839800815558532	1.3839955787653422	1.3838233213214066	3.0	255.0	11111110.0	
-4.540324770372901e-06	-0.00018890908979957402	-0.017172696253382712	1.3832961181755208	1.3834487060843357	1.3839708428348116	1.3839884262071165	1.383814082600365	4.0	255.0	11111110.0	
-8.488001645989244e-06	-0.00018890025728264577	-0.017176570555754965	1.3833074430593781	1.383458540851896	1.3839830617884472	1.3839982609746768	1.3838248114377036	5.0	255.0	11111110.0	
-9.738393695907601e-06	-0.00018888071393740452	-0.017193259858281594	1.383313999571085	1.3834624151542683	1.383989618300154	1.384003625393346	1.383828685740076	6.0	255.0	11111110.0	
-9.874693828850812e-06	-0.00018885053654453367	-0.017210247184067627	1.3833137015478256	1.3834612230612306	1.3839860420210413	1.3840009431840115	1.3838283877168165	7.0	255.0	11111110.0	
-1.11670495096914e-05	-0.00018880980176180182	-0.0172224661377032	1.3833160857339009	1.3834594349216742	1.3839875321373383	1.3839994530677144	1.3838277916702977	8.0	255.0	11111110.0	
-1.4677431322164503e-05	-0.00018875858612211753	-0.01723140683548532	1.3833071450361187	1.383449004107595	1.383979187486075	1.3839905123699323	1.383816168763181	9.0	255.0	11111110.0	
-1.9734002166511746e-05	-0.00018869696603159784	-0.017236771254154595	1.3833017806174495	1.3834451298052228	1.383974121090665	1.3839839558582254	1.3838093142282146	10.0	255.0	11111110.0	
-2.459321187527286e-05	-0.00018862501776765097	-0.017234387068079362	1.3833038667802653	1.3834472159680387	1.383974717137184	1.3839845519047442	1.3838116984142899	11.0	255.0	11111110.0	
-2.7339378818966515e-05	-0.00018854281747707303	-0.017227830556372472	1.3833035687570059	1.3834484080610763	1.3839750151604433	1.3839860420210413	1.3838122944608087	12.0	255.0	11111110.0	
-2.6533551810261843e-05	-0.00018845044117415932	-0.017210247184067627	1.3833092311989346	1.3834519843401891	1.3839800815558532	1.3839914064397105	1.3838170628329591	13.0	255.0	11111110.0	
-2.1610670904340633e-05	-0.00018834796473883052	-0.01719743218391325	1.3832990984081148	1.3834403614330724	1.3839735250441463	1.383982167718669	1.3838063339956206	14.0	255.0	11111110.0	
-1.347812684926843e-05	-0.0001882354639147736	-0.017202200556063717	1.3832964161987802	1.3834358910841813	1.383968160625477	1.383975611206962	1.3838039498095454	15.0	255.0	11111110.0	
-4.9409603649871775e-06	-0.00018811301430759843	-0.017212631370142863	1.38330148259419	1.38344155352611	1.3839720349278493	1.383982167718669	1.3838087181816958	16.0	255.0	11111110.0	
5.040386744252284e-07	-0.0001879806913830095	-0.017212631370142863	1.3833038667802653	1.383446023875001	1.383974717137184	1.3839857439977818	1.3838116984142899	17.0	255.0	11111110.0	
1.17928343658911e-06	-0.000187838570464993	-0.017198922300210272	1.3833017806174495	1.3834457258517416	1.3839750151604433	1.38398663806756	1.383811102367771	18.0	255.0	11111110.0	
-1.6119618234363754e-06	-0.00018768672673401995	-0.017192365788503382	1.3832990984081148	1.383444533758704	1.3839720349278493	1.3839854459745224	1.3838099102747334	19.0	255.0	11111110.0	
-5.179087012467936e-06	-0.00018752523522526417	-0.01719802823043206	1.3833026746872277	1.383447513991298	1.3839744191139245	1.3839893202768947	1.383814082600365	20.0	255.0	11111110.0	
-7.971759435908049e-06	-0.00018735417082683533	-0.017219187881849753	1.3833041648035247	1.3834481100378169	1.3839744191139245	1.3839899163234135	1.3838155727166621	21.0	255.0	11111110.0	
-1.0385489773746858e-05	-0.00018717360827802707	-0.017234089044819958	1.3833163837571603	1.3834606270147118	1.3839884262071165	1.3840045194631243	1.3838268976005195	22.0	255.0	11111110.0	
-1.3272796196399708e-05	-0.0001869836221675799	-0.017235877184376382	1.3833297948038334	1.3834749321311632	1.3840024333003085	1.3840167384167599	1.3838400106239332	23.0	255.0	11111110.0	
-1.6276559488353018e-05	-0.0001867842869319583	-0.01724004951000804	1.3833327750364275	1.3834758262009414	1.3840039234166055	1.3840152483004629	1.3838409046937115	24.0	255.0	11111110.0	
-1.8241013229636628e-05	-0.00018657567685364246	-0.017254056603200032	1.383313999571085	1.383455560619302	1.3839845519047442	1.3839955787653422	1.3838212351585908	25.0	255.0	11111110.0	
-1.8580597544611097e-05	-0.00018635786605943516	-0.017254056603200032	1.3832952241057426	1.3834361891074407	1.3839663724859206	1.3839765052767403	1.3838015656234701	26.0	255.0	11111110.0	
-1.718096834945037e-05	-0.00018613092851878287	-0.017240347533267444	1.3832892636405545	1.3834293345724744	1.3839613060905107	1.3839684586487364	1.3837953071350226	27.0	255.0	11111110.0	
-1.3676459831496349e-05	-0.00018589493804211266	-0.017230810788966513	1.3832943300359644	1.3834338049213655	1.383965180392883	1.3839720349278493	1.3838003735304325	28.0	255.0	11111110.0	
-7.949409929751264e-06	-0.00018564996827918437	-0.01722187009118439	1.383302972710487	1.3834442357354446	1.3839717369045899	1.3839794855093344	1.3838087181816958	29.0	255.0	11111110.0	
-9.993461790861109e-07	-0.0001853960927174585	-0.017221572067924986	1.3833119134082692	1.383451090270411	1.383980677602372	1.3839884262071165	1.3838155727166621	30.0	255.0	11111110.0	
5.117426468313692e-06	-0.0001851333846804801	-0.017224254277259623	1.3833071450361187	1.383446023875001	1.383976207253481	1.3839845519047442	1.3838102082979928	31.0	255.0	11111110.0	
8.222681920732125e-06	-0.0001848619173262785	-0.017227234509853664	1.3833104232919722	1.383449004107595	1.3839815716721502	1.3839887242303759	1.3838164667864403	32.0	255.0	11111110.0	
7.292274790763492e-06	-0.00018458176364578253	-0.01722187009118439	1.3833107213152316	1.383449600154114	1.3839815716721502	1.383993194579267	1.383816168763181	33.0	255.0	11111110.0	
3.2033693622925043e-06	-0.00018429299646125185	-0.017216505672515117	1.38330148259419	1.3834421495726288	1.3839723329511087	1.383983657834966	1.3838090162049552	34.0	255.0	11111110.0	
-1.8566511464679662e-06	-0.00018399568842472356	-0.017217995788812137	1.3833059529430811	1.3834472159680387	1.3839773993465185	1.3839890222536353	1.3838155727166621	35.0	255.0	11111110.0	
-5.8532210891435745e-06	-0.00018368991201647374	-0.0172224661377032	1.3833047608500435	1.3834516863169297	1.3839773993465185	1.3839905123699323	1.3838155727166621	36.0	255.0	11111110.0	
-7.665200289269018e-06	-0.00018337573954349448	-0.01721888985859035	1.3832988003848554	1.3834463218982604	1.3839732270208869	1.38398663806756	1.3838137845771057	37.0	255.0	11111110.0	
-6.6440365966621015e-06	-0.000183053243137986	-0.017209353114289415	1.3833011845709307	1.3834466199215198	1.383974121090665	1.3839884262071165	1.383814678646884	38.0	255.0	11111110.0	
-2.3338658406228652e-06	-0.00018272249475586395	-0.01720965113754882	1.3832916478266297	1.3834412555028506	1.3839678626022176	1.383982167718669	1.3838063339956206	39.0	255.0	11111110.0	
4.863465603806511e-06	-0.000182383566175282	-0.017214419509699288	1.3832958201522614	1.3834433416656664	1.3839717369045899	1.383985147951263	1.383808122135177	40.0	255.0	11111110.0	
1.3397785665135008e-05	-0.00018203652899517026	-0.017214121486439884	1.3832976082918178	1.383440063409813	1.3839693527185146	1.3839815716721502	1.3838048438793236	41.0	255.0	11111110.0	
2.1437666401951652e-05	-0.00018168145463378968	-0.017214717532958692	1.3832877735242575	1.3834281424794368	1.3839577298113979	1.3839705448115522	1.383792624925688	42.0	255.0	11111110.0	
2.7762238107779556e-05	-0.00018131841432730245	-0.017211439277105244	1.3832961181755208	1.383437083177219	1.3839669685324394	1.3839785914395561	1.3838012676002107	43.0	255.0	11111110.0	
3.202114034634313e-05	-0.00018094747912835888	-0.017204286718879545	1.3833011845709307	1.3834418515493694	1.3839714388813305	1.3839845519047442	1.3838078241119176	44.0	255.0	11111110.0	
3.4673302028647573e-05	-0.00018056871990470064	-0.017191769741984574	1.3833005885244118	1.3834436396889258	1.3839723329511087	1.383983657834966	1.3838078241119176	45.0	255.0	11111110.0	
3.6679761598120146e-05	-0.0001801822073377802	-0.01717835869531139	1.3833145956176038	1.3834564546890802	1.3839875321373383	1.3839973669048986	1.3838209371353314	46.0	255.0	11111110.0	
3.874338167952923e-05	-0.0001797880119213962	-0.017180146834867814	1.383323536315386	1.3834659914333811	1.3839943866723046	1.384007201672459	1.383829579809854	47.0	255.0	11111110.0	
4.0257885694956264e-05	-0.00017938620396034478	-0.017198624276950868	1.3833056549198217	1.383449600154114	1.3839771013232591	1.3839905123699323	1.3838116984142899	48.0	255.0	11111110.0	
3.9286737335915444e-05	-0.0001789768535690863	-0.01721054520732703	1.3832952241057426	1.383438573293516	1.3839669685324394	1.383980677602372	1.3838033537630265	49.0	255.0	11111110.0	
