25.0 25.0 24.978026002563634 25.0 25.0 25.0 25.0 25.0 25.0 25.0 25.0 25.0 25.0 25.0 25.0 25.0 25.021973997436366 25.0 25.0 25.021973997436366 25.021973997436366 25.021973997436366 25.021973997436366 25.021973997436366 25.021973997436366 25.021973997436366 25.021973997436366 25.021973997436366 25.021973997436366 25.021973997436366 25.021973997436366 25.021973997436366 25.021973997436366 25.021973997436366 25.021973997436366 25.021973997436366 25.021973997436366 25.021973997436366 25.021973997436366 25.021973997436366 25.021973997436366 25.021973997436366 25.021973997436366 25.021973997436366 25.0 25.021973997436366 25.0 25.021973997436366 25.021973997436366 25.021973997436366 25.0 25.0 25.0 25.0 25.0 25.0 25.0 25.0 25.0 25.0 25.0 25.0 25.0 25.0 25.021973997436366 25.0 25.0 25.0 25.021973997436366 25.0 25.021973997436366 25.0 25.0 25.0 25.0 25.0 25.0 25.021973997436366 25.021973997436366 25.021973997436366 25.021973997436366 25.021973997436366 25.021973997436366 25.0 25.021973997436366 25.021973997436366 25.021973997436366 25.021973997436366 25.021973997436366 25.021973997436366 25.021973997436366 25.021973997436366 25.021973997436366 25.021973997436366 25.021973997436366 25.0 25.021973997436366 25.0 25.0 25.021973997436366 25.021973997436366 25.021973997436366 25.0 25.021973997436366 25.021973997436366 25.0 25.0 25.021973997436366 25.021973997436366 25.0 25.021973997436366 25.0 25.0 25.0 25.0 25.0 25.0 25.0 25.0 25.0 25.0 25.0 24.978026002563634 25.0 25.0 24.978026002563634 24.978026002563634 24.978026002563634 24.978026002563634 24.978026002563634 24.978026002563634 24.978026002563634 25.0 24.978026002563634 24.978026002563634 24.978026002563634 24.978026002563634 24.978026002563634 25.0 24.978026002563634 25.0 25.0 24.978026002563634 25.0 25.0 25.0 25.0 25.0 25.0 25.0 25.0 25.0 25.0 25.0 25.0 25.0 25.0 25.0 25.0 25.0 25.0 25.0 25.0 25.0 25.0 25.0 25.0 25.0 25.0 25.0 25.0 25.0 25.021973997436366 25.0 25.0 25.0 25.0 25.0 25.0 25.0 25.0 25.0 25.0 25.0 25.0 25.0 25.0 25.0 25.0 25.021973997436366 25.0 25.0 25.0 25.021973997436366 25.021973997436366 25.021973997436366 25.021973997436366 25.021973997436366 25.021973997436366 25.021973997436366 25.0 25.021973997436366 25.021973997436366 25.021973997436366 25.021973997436366 25.021973997436366 25.021973997436366 25.021973997436366 25.021973997436366 25.021973997436366 25.021973997436366 25.021973997436366 25.0 25.021973997436366 25.021973997436366 25.0 25.021973997436366 25.021973997436366 25.021973997436366 25.021973997436366 25.0 25.0 25.0 25.021973997436366 25.021973997436366 25.0 25.021973997436366 25.021973997436366 25.021973997436366 25.021973997436366 25.021973997436366 25.021973997436366 25.021973997436366 25.021973997436366 25.021973997436366 25.021973997436366 25.021973997436366 25.021973997436366 25.021973997436366 25.021973997436366 25.021973997436366 25.021973997436366 25.021973997436366 25.021973997436366 25.021973997436366 25.021973997436366 25.021973997436366 25.021973997436366 25.021973997436366 25.021973997436366 25.021973997436366 25.021973997436366 25.021973997436366 25.021973997436366 25.021973997436366 25.021973997436366 25.021973997436366 25.021973997436366 25.021973997436366 25.021973997436366 25.021973997436366 25.021973997436366 25.021973997436366 25.021973997436366 25.021973997436366 25.021973997436366 25.021973997436366 25.021973997436366 25.0 25.021973997436366 25.021973997436366 25.021973997436366 25.021973997436366 25.021973997436366 25.021973997436366 25.021973997436366 25.021973997436366 25.021973997436366 25.021973997436366 25.021973997436366 25.0 25.021973997436366 25.021973997436366 25.021973997436366 25.021973997436366 25.021973997436366 25.021973997436366 25.021973997436366 25.021973997436366 25.021973997436366 25.021973997436366 25.021973997436366 25.021973997436366 25.021973997436366 25.021973997436366 25.021973997436366 25.021973997436366 25.021973997436366 25.021973997436366 25.0 25.021973997436366 25.021973997436366 25.021973997436366 25.021973997436366 25.021973997436366 25.021973997436366 25.021973997436366 25.021973997436366 25.021973997436366 25.021973997436366 25.021973997436366 25.021973997436366 25.021973997436366 25.021973997436366 25.021973997436366 25.021973997436366 25.021973997436366 25.021973997436366 25.021973997436366 25.021973997436366 25.021973997436366 25.021973997436366 25.021973997436366 25.021973997436366 25.021973997436366 25.0 25.021973997436366 25.021973997436366 25.021973997436366 25.021973997436366 25.021973997436366 25.021973997436366 25.021973997436366 25.021973997436366 25.021973997436366 25.021973997436366 25.021973997436366 25.021973997436366 25.021973997436366 25.021973997436366 25.021973997436366 25.021973997436366 25.021973997436366 25.021973997436366 25.021973997436366 25.021973997436366 25.021973997436366 25.021973997436366 25.021973997436366 25.021973997436366 25.021973997436366 25.021973997436366 25.021973997436366 25.043947994872735 25.021973997436366 25.021973997436366 25.021973997436366 25.021973997436366 25.021973997436366 25.021973997436366 25.021973997436366 25.021973997436366 25.021973997436366 25.021973997436366 25.021973997436366 25.0 25.021973997436366 25.021973997436366 25.021973997436366 25.021973997436366 25.021973997436366 25.021973997436366 25.021973997436366 25.021973997436366 25.021973997436366 25.021973997436366 25.021973997436366 25.021973997436366 25.043947994872735 25.021973997436366 25.043947994872735 25.043947994872735 25.043947994872735 25.0659219923091 25.043947994872735 25.043947994872735 25.0659219923091 25.0659219923091 25.1318439846182 25.15381798205457 25.21973997436367 25.28566196667277 25.417505951290973 25.549349935909174 25.72514191540011 25.900933894891047 26.098699871818347 26.318439846182017 26.626075810291155 27.065555759018494 27.592931697491302 28.142281633400476 28.77952755905512 29.41677348470976 30.097967405237135 30.801135323200878 31.548251236037355 32.3832631386193 33.196301043764876 34.05328694378319 34.93224684123787 35.81120673869255 36.712140633583594 37.65702252334737 38.57993041567478 39.5687603003113 40.55759018494781 41.56839406702069 42.55722395165721 43.633949826039185 44.66672770554844 45.69950558505768 46.820179454312395 47.94085332356711 49.08350119025819 50.248123054385644 51.45669291338582 52.59934078007691 53.80791063907709 54.99450650064091 56.20307635964109 57.41164621864127 58.62021607764146 59.872733931514375 61.16919978026002 62.37776963926021 63.630287493133125 64.83885735213332 66.06940120856986 67.32191906244277 68.50851492400659 69.71708478300678 70.94762863944334 72.09027650613442 73.2329243728255 74.30965024720747 75.25453213697125 76.28731001648049 77.21021790880792 78.11115180369896 79.01208569859 79.97894158579015 80.90184947811755 81.82475737044497 82.70371726789965 83.58267716535434 84.50558505768174 85.49441494231826 86.5271928218275 87.49404870902765 88.41695660135505 89.31789049624611 90.24079838857352 91.14173228346456 92.02069218091924 92.8557040835012 93.60281999633767 94.30598791430141 95.00915583226515 95.62442776048343 96.26167368613807 96.83299761948362 97.38234755539278 97.88774949642922 98.3052554477202 98.65683940670206 98.94250137337484 99.16224134773852 99.31605932979308 99.38198132210218 99.40395531953854 99.40395531953854 99.36000732466582 99.18421534517488 98.92052737593848 98.61289141182934 98.12946346822926 97.60208752975646 96.98681560153818 96.41549166819264 95.86614173228347 95.31679179637429 94.76744186046513 94.21809192455594 93.6467679912104 92.9875480681194 92.35030214246476 91.64713422450102 90.87804431422816 90.15290239882806 89.47170847830067 88.8564365500824 88.26313861930049 87.62589269364585 86.9227247756821 86.17560886284564 85.38454495513642 84.61545504486358 83.84636513459074 83.12122321919063 82.39608130379051 81.64896539095403 80.90184947811755 80.13275956784472 79.4076176524446 78.63852774217176 77.89141182933528 77.12232191906244 76.37520600622597 75.58414209851676 74.77110419337117 73.98004028566197 73.18897637795277 72.4198864676799 71.65079655740706 70.88170664713422 70.13459073429775 69.2995788317158 68.50851492400659 67.69547701886101 66.94836110602454 66.1792711957517 65.43215528291522 64.70701336751512 63.981871452114994 63.278703534151255 62.59750961362388 61.9822376854056 61.38893975462369 60.77366782640542 60.158395898187145 59.54312396996887 58.9278520417506 58.33455411096869 57.76323017762314 57.21388024171397 56.686504303241165 56.22505035707746 55.69767441860465 55.23622047244095 54.6648965390954 54.09357260574986 53.500274674967955 52.906976744186046 52.2697308185314 51.6105108954404 50.99523896722212 50.314045046694744 49.588903131294636 48.84178721845816 48.11664530305805 47.43545138253067 46.776231459439664 46.117011536348656 45.47976561069402 44.86449368247574 44.24922175425746 43.655923823475554 43.08459989013001 42.55722395165721 42.0298480131844 41.52444607214796 41.04101812854789 40.601538179820544 40.206006225965936 39.854422266984066 39.546786302874935 39.21717634132943 38.95348837209302 38.66782640542025 38.38216443874748 38.07452847463834 37.7668925105292 37.48123054385644 37.1735945797473 36.887932613074526 36.58029664896539 36.250686687419886 35.921076725874386 35.59146676432888 35.26185680278337 34.9102728438015 34.55868888481963 34.18513092840139 33.789598974546784 33.416041018128546 33.086431056583045 32.778795092473906 32.55905511811024 32.36128914118294 32.22944515656473 32.22944515656473 32.33931514374657 32.88866507965574 33.086431056583045 33.459989013001284 33.943416956601354 34.36092290789233 35.06409082585607 35.83318073612892 36.404504669474456 37.21754257462003 37.78886650796557 38.68980040285662 39.5687603003113 40.206006225965936 41.19483611060245 41.87603003112983 43.304339864493684 44.11737776963926 44.84251968503937 46.051089544039556 47.215711408167 48.16059329793078 49.720747115912836 50.599707013367514 51.96209485442226 53.258560703167916 54.29133858267717 55.12635048525911 57.038088262223035 58.00494414942318 59.433253982787036 60.40010986998718 61.7844717084783 63.67423548800586 64.59714338033328 65.54202527009704 66.99230910089727 67.95916498809743 69.34352682658854 70.31038271378868 72.20014649331624 73.6284563266801 74.57333821644387 75.93572605749863 76.72678996520784 77.51785387291704 79.12195568577184 80.00091558322652 81.36330342428127 82.57187328328145 83.40688518586339 84.54953305255447 85.78007690899102 86.74693279619117 87.86760666544589 88.68064457059147 89.73539644753708 90.96594030397362 92.15253616553744 92.96557407068303 93.99835195019227 94.63559787584691 95.60245376304707 96.2396996887017 97.22852957333822 98.41512543490204 98.87657938106574 99.53579930415674 99.93133125801135 100.32686321186596 100.7663431605933 101.07397912470243 101.31569309650247 101.38161508881157 101.40358908624795 101.29371909906611 101.18384911188427 100.8981871452115 100.3048892144296 99.79948727339315 99.16224134773852 98.34920344259294 97.64603552462918 96.1737776963926 95.55850576817433 94.61362387841055 93.42702801684673 92.5260941219557 90.90001831166454 88.68064457059147 87.97747665262773 86.98864676799121 86.04376487822742 84.54953305255447 83.12122321919063 82.11041933711775 80.74803149606299 79.20985167551731 78.0891778062626 76.41915400109869 75.18861014466215 73.58450833180737 71.73869254715254 70.53012268815235 68.24482695477019 66.59677714704267 66.00347921626076 64.46529939571508 63.454495513642186 61.93828969053287 60.597875846914484 59.0596960263688 57.78520417505951 56.444790331441126 55.54385643655009 54.29133858267717 53.478300677531585 52.62131477751328 50.97326496978575 50.138253067203806 48.90770921076726 47.65519135689434 46.79820545687603 45.43581761582128 44.53488372093023 43.414209851675515 41.89800402856619 41.26075810291155 40.42574620032961 39.678630287493135 38.27229445156565 36.975828602819995 36.822010620765425 35.78923274125618 35.26185680278337 34.73448086431057 33.877494964292254 33.240249038637614 32.581029115546606 31.96575718732833 31.57022523347372 31.174693279619117 30.317707379600805 29.834279436000735 29.021241530855153 28.47189159494598 27.74674967954587 26.999633766709394 26.274491851309286 25.900933894891047 25.791063907709212 25.681193920527377 25.615271928218274 25.571323933345543 25.571323933345543 25.571323933345543 25.549349935909174 25.527375938472808 25.50540194103644 25.483427943600073 25.417505951290973 25.395531953854604 25.329609961545504 25.28566196667277 25.241713971800035 25.197765976927304 25.15381798205457 25.1318439846182 25.109869987181835 25.08789598974547 25.08789598974547 25.0659219923091 25.043947994872735 25.043947994872735 25.043947994872735 25.043947994872735 25.021973997436366 25.021973997436366 25.0 25.0 25.021973997436366 25.021973997436366 25.021973997436366 25.021973997436366 25.021973997436366 25.021973997436366 25.021973997436366 25.043947994872735 25.021973997436366 25.043947994872735 25.021973997436366 25.043947994872735 25.043947994872735 25.043947994872735 25.021973997436366 25.043947994872735 25.043947994872735 25.043947994872735 25.021973997436366 25.021973997436366 25.021973997436366 25.021973997436366 25.021973997436366 25.021973997436366 25.021973997436366 25.0 25.021973997436366 25.0 25.021973997436366 25.0 25.0 25.0 25.0 25.0 25.0 25.0 25.0 25.0 25.0 25.0 25.0 25.0 25.021973997436366 25.0 25.0 25.0 25.0 25.0 25.0 25.0 25.021973997436366 25.0 25.0 25.021973997436366 25.021973997436366 25.021973997436366 25.021973997436366 25.0 25.021973997436366 25.021973997436366 25.0 25.021973997436366 25.0 25.021973997436366 25.021973997436366 25.021973997436366 25.021973997436366 25.021973997436366 25.021973997436366 25.021973997436366 25.021973997436366 25.021973997436366 25.021973997436366 25.021973997436366 25.021973997436366 25.021973997436366 25.021973997436366 25.021973997436366 25.021973997436366 25.043947994872735 25.021973997436366 
