29.0 29.0 29.0 29.0 29.0 29.0 29.0 29.030763596410914 29.0 29.0 29.0 29.0 29.030763596410914 29.0 29.0 29.0 29.0 29.0 29.0 29.0 29.0 29.0 29.0 29.0 29.0 29.0 29.0 29.0 29.0 29.0 29.0 29.0 29.0 29.030763596410914 29.030763596410914 29.0 29.0 29.0 29.030763596410914 29.030763596410914 29.0 29.0 29.0 29.0 29.0 29.0 29.030763596410914 29.0 29.030763596410914 29.0 29.0 29.0 29.0 29.030763596410914 29.030763596410914 29.0 29.030763596410914 29.030763596410914 29.0 29.0 29.0 29.0 29.0 29.0 29.030763596410914 29.030763596410914 29.0 29.0 29.0 29.0 29.030763596410914 29.0 29.0 29.0 29.0 29.0 29.030763596410914 29.0 29.0 29.0 29.0 29.0 29.0 29.0 29.0 29.0 29.0 29.0 29.0 29.030763596410914 29.0 29.0 29.0 29.0 29.0 29.0 29.030763596410914 29.030763596410914 29.0 29.0 29.0 29.0 29.0 29.0 29.0 29.0 29.0 29.0 29.0 29.0 29.0 29.030763596410914 29.0 29.0 29.0 29.030763596410914 29.0 29.0 29.0 29.0 29.0 29.0 29.0 29.0 29.0 29.0 29.0 29.0 29.0 29.0 29.0 29.0 29.0 29.0 29.0 29.0 29.030763596410914 29.0 29.0 29.0 29.0 29.0 29.0 29.0 29.0 29.0 29.0 29.0 29.0 29.0 29.0 29.030763596410914 29.0 29.0 29.0 29.030763596410914 29.0 29.030763596410914 29.030763596410914 29.0 29.0 29.0 29.030763596410914 29.0 29.0 29.0 29.0 29.030763596410914 29.030763596410914 29.030763596410914 29.0 29.0 29.0 29.0 29.0 29.0 29.0 29.0 29.0 29.030763596410914 29.0 29.030763596410914 29.030763596410914 29.0 29.030763596410914 29.0 29.0 29.0 29.0 29.0 29.0 29.030763596410914 29.0 29.030763596410914 29.0 29.0 29.030763596410914 29.0 29.0 29.0 29.0 29.0 29.0 29.0 29.0 29.030763596410914 29.0 29.0 29.0 29.0 29.0 29.0 29.030763596410914 29.030763596410914 29.0 29.0 29.0 29.030763596410914 29.0 29.0 29.0 29.0 29.0 29.0 29.030763596410914 29.0 29.0 29.0 29.030763596410914 29.030763596410914 29.030763596410914 29.0 29.0 29.0 29.0 29.0 29.0 29.0 29.0 29.030763596410914 29.0 29.030763596410914 29.0 29.030763596410914 29.0 29.030763596410914 29.0 29.0 29.030763596410914 29.030763596410914 29.0 29.0 29.0 29.0 29.0 29.0 29.0 29.0 29.030763596410914 29.030763596410914 29.0 29.0 29.0 29.030763596410914 29.0 29.0 29.0 29.0 29.0 29.0 29.0 29.0 29.0 29.0 29.0 29.0 29.0 29.030763596410914 29.0 29.0 29.0 29.0 29.0 29.0 29.0 29.0 29.0 29.0 29.0 29.0 29.0 29.0 29.030763596410914 29.0 29.0 29.030763596410914 29.030763596410914 29.0 29.030763596410914 29.0 29.0 29.0 29.0 29.030763596410914 29.030763596410914 29.0 29.0 29.0 29.030763596410914 29.0 29.0 29.0 29.0 29.0 29.0 29.0 29.0 29.030763596410914 29.0 29.0 29.030763596410914 29.0 29.0 29.0 29.0 29.030763596410914 29.0 29.0 29.030763596410914 29.0 29.030763596410914 29.030763596410914 29.0 29.0 29.0 29.030763596410914 29.0 29.0 29.030763596410914 29.0 29.030763596410914 29.0 29.0 29.0 29.0 29.0 29.0 29.0 29.0 29.030763596410914 29.0 29.0 29.0 29.0 29.0 29.030763596410914 29.0 29.0 29.0 29.0 29.0 29.0 29.0 29.0 29.0 29.0 29.0 29.0 29.030763596410914 29.0 29.030763596410914 29.0 29.0 29.030763596410914 29.0 29.0 29.0 29.0 29.0 29.0 29.030763596410914 29.0 29.0 29.0 29.0 29.0 29.0 29.0 29.0 29.0 29.030763596410914 29.0 29.030763596410914 29.0 29.0 29.0 29.0 29.0 29.0 29.0 29.0 29.0 29.030763596410914 29.0 29.0 29.0 29.0 29.0 29.0 29.0 29.0 29.0 29.0 29.0 29.0 29.0 29.0 29.0 29.030763596410914 29.0 29.0 29.0 29.0 29.030763596410914 29.030763596410914 29.0 29.030763596410914 29.0 29.0 29.0 29.0 29.0 29.0 29.0 29.0 29.0 29.0 29.0 29.0 29.0 29.0 29.0 29.0 29.0 29.0 29.030763596410914 29.0 29.0 29.030763596410914 29.030763596410914 29.0 29.030763596410914 29.0 29.0 29.0 29.0 29.0 29.0 29.0 29.0 29.0 29.0 29.0 29.0 29.0 29.030763596410914 29.0 29.030763596410914 29.0 29.030763596410914 29.0 29.0 29.0 29.0 29.0 29.0 29.0 29.0 29.0 29.0 29.030763596410914 29.0 29.0 29.030763596410914 29.0 29.0 29.0 29.030763596410914 29.0 29.0 29.0 29.0 29.0 29.030763596410914 29.0 29.0 29.030763596410914 29.0 29.0 29.030763596410914 29.0 29.0 29.0 29.0 29.0 29.0 29.0 29.0 29.0 29.0 29.0 29.0 29.0 29.0 29.0 29.030763596410914 29.0 29.0 29.0 29.0 29.0 29.030763596410914 29.030763596410914 29.0 29.0 29.0 29.0 29.0 29.030763596410914 29.0 29.0 29.030763596410914 29.0 29.030763596410914 29.0 29.0 29.030763596410914 29.0 29.0 29.0 29.0 29.0 29.0 29.0 29.0 29.0 29.0 29.0 29.0 29.030763596410914 29.0 29.0 29.030763596410914 29.0 29.0 29.0 29.0 29.0 29.0 29.0 29.0 29.0 29.0 29.0 29.030763596410914 29.0 29.0 29.0 29.0 29.0 29.0 29.0 29.0 29.0 29.0 29.030763596410914 29.0 29.0 29.0 29.0 29.030763596410914 29.0 29.0 29.0 29.0 29.0 29.0 29.030763596410914 29.0 29.0 29.0 29.0 29.0 29.0 29.030763596410914 29.0 29.0 29.0 29.0 29.0 29.030763596410914 29.0 29.0 29.0 29.030763596410914 29.030763596410914 29.0 29.0 29.030763596410914 29.0 29.0 29.030763596410914 29.0 29.0 29.0 29.030763596410914 29.0 29.0 29.030763596410914 29.0 29.0 29.0 29.030763596410914 29.061527192821828 29.09229078923274 29.09229078923274 29.123054385643655 29.15381798205457 29.184581578465483 29.24610877128731 29.30763596410914 29.369163156930966 29.39992675334188 29.430690349752794 29.461453946163708 29.49221754257462 29.49221754257462 29.49221754257462 29.522981138985532 29.522981138985532 29.58450833180736 29.615271928218274 29.646035524629188 29.73832631386193 29.799853506683757 29.8921442959165 29.98443508514924 30.045962277971068 30.169016663614723 30.23054385643655 30.29207104925838 30.38436183849112 30.47665262772386 30.5689434169566 30.66123420618934 30.784288591832997 30.87657938106574 30.96887017029848 31.06116095953122 31.184215345174877 31.307269730818533 31.461087712873102 31.614905694927668 31.737960080571323 31.86101446621498 31.95330525544772 32.107123237502286 32.23017762314594 32.44552279802234 32.69163156930965 32.87621314777513 33.0300311298297 33.15308551547336 33.368430690349754 33.64530305804798 33.89141182933528 34.19904779344442 34.44515656473173 34.72202893242996 34.99890130012818 35.24501007141549 35.583409631935545 35.86028199963376 36.22944515656473 36.53708112067387 36.84471708478301 37.152353048892145 37.42922541659037 37.73686138069951 38.04449734480864 38.38289690532869 38.75206006225966 39.121223219190625 39.5211499725325 39.921076725874386 40.32100347921626 40.72093023255814 41.12085698590002 41.55154733565281 42.28987364951474 42.62827321003479 43.15125434902033 43.39736312030763 43.92034425929317 44.19721662699139 44.6586705731551 45.181651712140635 45.70463285112616 46.104559604468044 46.596777147042665 46.965940303973625 47.45815784654825 47.95037538912287 48.25801135323201 48.719465299395715 49.1501556491485 49.45779161325764 50.042299945065004 50.31917231276323 50.74986266251602 51.02673503021424 51.30360739791247 51.703534151254345 52.257278886650795 52.56491485075993 52.99560520051273 53.303241164621866 53.73393151437466 54.0415674784838 54.34920344259293 55.026002563633035 55.36440212415309 55.79509247390588 56.28731001648049 56.41036440212415 56.77952755905512 57.08716352316425 57.302508698040654 57.57938106573887 57.763962644204355 58.010071415491666 58.22541659036806 58.44076176524446 58.65610694012086 58.809924922175426 58.93297930781908 59.14832448269547 59.363669657571876 59.579014832448266 59.79436000732467 59.94817798937923 60.132759567844715 60.3173411463102 60.50192272477568 60.74803149606299 60.901849478117555 61.11719465299395 61.30177623145944 61.42483061710309 61.57864859915766 61.73246658121223 61.855520966855885 62.009338948910454 62.101629738143195 62.22468412378685 62.37850210584142 62.47079289507416 62.68613806995056 62.83995605200513 62.96301043764878 63.055301226881525 63.239882805347 63.39370078740157 63.578282365867054 63.70133675151071 63.85515473356528 64.00897271561985 64.1012635048526 64.25508148690716 64.37813587255081 64.53195385460538 64.71653543307087 64.80882622230361 64.96264420435817 65.11646218641275 65.20875297564548 65.39333455411096 65.48562534334371 65.63944332539828 65.82402490386376 65.88555209668559 66.00860648232924 66.1624244643838 66.25471525361655 66.37776963926021 66.50082402490386 66.65464200695843 66.77769639260208 66.86998718183483 67.02380516388939 67.11609595312214 67.2391503387658 67.45449551364219 67.54678630287492 67.7006042849295 67.85442226698407 67.97747665262773 68.19282182750412 68.31587621314777 68.43893059879143 68.62351217725691 68.74656656290057 68.96191173777697 69.17725691265336 69.2695477018861 69.45412928035158 69.57718366599524 69.73100164804981 69.85405603369347 70.00787401574803 70.13092840139169 70.28474638344625 70.4078007690899 70.53085515473356 70.6231459439663 70.77696392602087 70.86925471525362 70.93078190807545 71.05383629371909 71.17689067936274 71.23841787218458 71.36147225782824 71.45376304706097 71.5152902398828 71.60758102911555 71.66910822193736 71.76139901117011 71.88445339681377 71.9459805896356 72.03827137886833 72.06903497527925 72.13056216810108 72.16132576451199 72.22285295733383 72.25361655374473 72.31514374656656 72.37667093938839 72.4074345357993 72.43819813221022 72.49972532503205 72.5920161142648 72.65354330708661 72.71507049990844 72.80736128914117 72.86888848196301 72.96117927119576 73.0842336568394 73.11499725325032 73.17652444607214 73.23805163889398 73.29957883171579 73.39186962094854 73.45339681377037 73.5149240065922 73.57645119941402 73.60721479582494 73.66874198864676 73.66874198864676 73.69950558505768 73.7610327778795 73.79179637429041 73.79179637429041 73.82255997070132 73.85332356711226 73.88408716352316 73.88408716352316 73.88408716352316 73.91485075993407 73.91485075993407 73.91485075993407 73.91485075993407 73.91485075993407 73.91485075993407 73.91485075993407 73.91485075993407 73.91485075993407 73.91485075993407 73.91485075993407 73.91485075993407 73.91485075993407 73.88408716352316 73.88408716352316 73.91485075993407 73.91485075993407 73.91485075993407 73.91485075993407 73.88408716352316 73.88408716352316 73.88408716352316 73.88408716352316 73.88408716352316 73.88408716352316 73.88408716352316 73.88408716352316 73.85332356711226 73.85332356711226 73.85332356711226 73.85332356711226 73.85332356711226 73.85332356711226 73.85332356711226 73.85332356711226 73.85332356711226 73.85332356711226 73.85332356711226 73.85332356711226 73.85332356711226 73.85332356711226 73.85332356711226 73.85332356711226 73.85332356711226 73.85332356711226 73.85332356711226 73.85332356711226 73.85332356711226 73.85332356711226 73.85332356711226 73.82255997070132 73.82255997070132 73.79179637429041 73.79179637429041 73.79179637429041 73.79179637429041 73.79179637429041 73.7610327778795 73.79179637429041 73.7610327778795 73.7610327778795 73.79179637429041 73.7610327778795 73.79179637429041 73.79179637429041 73.79179637429041 73.79179637429041 73.79179637429041 73.79179637429041 73.79179637429041 73.79179637429041 73.79179637429041 73.79179637429041 73.79179637429041 73.79179637429041 73.79179637429041 73.79179637429041 73.79179637429041 73.79179637429041 73.79179637429041 73.79179637429041 73.79179637429041 73.79179637429041 73.79179637429041 73.79179637429041 73.79179637429041 73.79179637429041 73.79179637429041 73.79179637429041 73.79179637429041 73.79179637429041 73.79179637429041 73.79179637429041 73.79179637429041 73.7610327778795 73.79179637429041 73.79179637429041 73.79179637429041 73.79179637429041 73.79179637429041 73.79179637429041 73.79179637429041 73.79179637429041 73.79179637429041 73.79179637429041 73.79179637429041 73.79179637429041 73.79179637429041 73.79179637429041 73.79179637429041 73.79179637429041 73.79179637429041 73.79179637429041 73.79179637429041 73.82255997070132 73.79179637429041 73.79179637429041 73.79179637429041 73.79179637429041 73.79179637429041 73.79179637429041 73.79179637429041 73.79179637429041 73.79179637429041 73.79179637429041 73.79179637429041 73.79179637429041 73.79179637429041 73.79179637429041 73.79179637429041 73.79179637429041 73.79179637429041 73.79179637429041 73.79179637429041 73.79179637429041 73.79179637429041 73.79179637429041 73.79179637429041 73.82255997070132 73.79179637429041 73.79179637429041 73.79179637429041 73.82255997070132 73.82255997070132 73.82255997070132 73.79179637429041 73.82255997070132 73.79179637429041 73.79179637429041 73.82255997070132 73.82255997070132 73.82255997070132 73.79179637429041 73.82255997070132 73.82255997070132 73.82255997070132 73.82255997070132 73.82255997070132 73.85332356711226 73.85332356711226 73.85332356711226 73.85332356711226 73.85332356711226 73.85332356711226 73.88408716352316 73.85332356711226 73.88408716352316 73.88408716352316 73.85332356711226 73.85332356711226 73.88408716352316 73.85332356711226 73.88408716352316 73.88408716352316 73.85332356711226 73.85332356711226 73.88408716352316 73.88408716352316 73.88408716352316 73.85332356711226 73.88408716352316 73.88408716352316 73.88408716352316 73.88408716352316 73.88408716352316 73.88408716352316 73.88408716352316 73.88408716352316 73.88408716352316 73.88408716352316 73.88408716352316 73.88408716352316 73.88408716352316 73.88408716352316 73.88408716352316 73.88408716352316 73.88408716352316 73.88408716352316 73.88408716352316 73.88408716352316 73.88408716352316 73.88408716352316 73.88408716352316 73.88408716352316 73.88408716352316 73.88408716352316 73.88408716352316 73.88408716352316 73.88408716352316 73.91485075993407 73.91485075993407 73.91485075993407 73.91485075993407 73.91485075993407 73.91485075993407 73.91485075993407 73.91485075993407 73.91485075993407 73.91485075993407 73.91485075993407 73.91485075993407 73.91485075993407 73.91485075993407 73.91485075993407 73.91485075993407 73.91485075993407 73.91485075993407 73.91485075993407 73.91485075993407 73.91485075993407 73.91485075993407 73.91485075993407 73.91485075993407 73.91485075993407 73.91485075993407 73.91485075993407 73.91485075993407 73.91485075993407 73.91485075993407 73.91485075993407 73.91485075993407 73.91485075993407 73.91485075993407 73.91485075993407 73.91485075993407 73.91485075993407 73.91485075993407 73.91485075993407 73.88408716352316 73.91485075993407 73.88408716352316 73.88408716352316 73.88408716352316 73.85332356711226 73.85332356711226 73.82255997070132 73.82255997070132 73.79179637429041 73.7610327778795 73.69950558505768 73.63797839223585 73.5456876030031 73.45339681377037 73.36110602453763 73.26881523530488 73.14576084966123 73.05347006042848 72.89965207837392 72.77659769273026 72.6227797106757 72.4074345357993 72.28438015015564 72.13056216810108 71.91521699322467 71.85368980040286 71.69987181834829 71.60758102911555 71.45376304706097 71.26918146859549 71.14612708295184 71.02307269730818 70.93078190807545 70.80772752243178 70.68467313678812 70.50009155832265 70.31550997985717 70.10016480498078 69.91558322651528 69.66947445522797 69.42336568394066 69.14649331624244 68.8388573521333 68.592748580846 68.28511261673685 67.97747665262773 67.76213147775132 67.42373191723127 67.20838674235489 66.90075077824574 66.62387841054752 66.40853323567111 66.1316608679729 65.82402490386376 65.60867972898737 65.2395165720564 65.0549349935909 64.77806262589269 64.62424464383813 64.34737227613991 64.1320271012635 63.85515473356528 63.670573155099795 63.39370078740157 63.17835561252517 62.901483244826956 62.5630836843069 62.347738509430506 61.947811756088626 61.64017579197949 61.39406702069218 61.02490386376122 60.778795092473906 60.440395531953854 60.07123237502289 59.82512360373558 59.54825123603735 59.17908807910639 59.025270097051816 58.779161325764505 58.62534334370994 58.40999816883354 58.25618018677898 58.04083501190259 57.88701702984801 57.70243545138253 57.61014466214979 57.4255630836843 57.302508698040654 57.14869071598608 56.994872733931516 56.87181834828786 56.68723676982238 56.56418238417872 56.37960080571324 56.0719648416041 55.97967405237136 55.82585607031679 55.61051089544039 55.45669291338582 55.27211133492034 55.05676616004395 54.841420985167545 54.626075810291155 54.47225782823658 54.2876762497711 54.10309467130563 53.980040285661964 53.88774949642922 53.79545870719648 53.67240432155283 53.54934993590917 53.48782274308734 53.364768357443694 53.24171397180004 53.14942318256729 52.99560520051273 52.87255081486907 52.718732832814496 52.44186046511628 52.31880607947262 52.103460904596226 51.949642922541656 51.79582494048709 51.58047976561069 51.3651345907343 51.02673503021424 50.71909906610511 50.50375389122871 50.22688152353049 49.95000915583226 49.70390038454495 49.45779161325764 49.27321003479216 48.96557407068302 48.65793810657389 48.411829335286576 48.104193371177445 47.64273942501373 47.45815784654825 47.15052188243911 46.904413111151804 46.56601355063175 46.2276139901117 45.91997802600257 45.58157846548251 45.27394250137337 45.02783373008606 44.81248855520967 44.474088994689616 44.227980223402305 43.85881706647134 43.64347189159494 43.366599523896724 43.18201794543124 42.93590917414393 42.68980040285662 42.53598242080205 42.28987364951474 42.105292071049256 41.951474088994686 41.73612891411829 41.58231093206372 41.36696575718733 41.15162058231093 40.997802600256364 40.75169382896905 40.38253067203809 40.25947628639443 39.95184032228529 39.674967954587075 39.45962277971067 39.18275041201245 38.8443508514924 38.53671488738326 38.22907892327412 38.013733748397726 37.70609778428859 37.4907526094122 37.18311664530306 36.998535066837576 36.906244277604834 36.84471708478301 36.752426295550265 36.69089910272844 36.53708112067387 36.41402673503021 36.352499542208385 36.26020875297564 36.198681560153815 36.106390770921074 35.9218091924556 35.79875480681194 35.61417322834646 35.39882805347006 35.24501007141549 35.12195568577184 34.87584691448453 34.66050173960813 34.475920161142646 34.32210217908808 34.19904779344442 34.10675700421168 33.95293902215711 33.922175425746204 33.829884636513455 33.76835744369163 33.7068302508698 33.64530305804798 33.55301226881524 33.49148507599341 33.460721479582496 33.42995788317158 33.368430690349754 33.30690349752793 33.214612708295185 33.09155832265153 32.99926753341879 32.906976744186046 32.84544955136422 32.78392235854239 32.69163156930965 32.568577183665994 32.507049990844166 32.38399560520051 32.260941219556855 32.19941402673503 32.07635964109137 32.014832448269544 31.95330525544772 31.891778062625892 31.830250869804065 31.768723676982237 31.70719648416041 31.614905694927668 31.584142098516754 31.522614905694926 31.491851309284012 31.430324116462188 31.399560520051274 31.338033327229446 31.245742537996705 31.184215345174877 31.12268815235305 31.091924555942136 31.030397363120308 30.96887017029848 30.907342977476652 30.845815784654825 30.784288591832997 30.72276139901117 30.66123420618934 30.599707013367514 30.5689434169566 30.507416224134772 30.445889031312948 30.38436183849112 30.322834645669293 30.261307452847465 30.169016663614723 30.07672587438198 30.015198681560154 29.922907892327412 29.83061710309467 29.799853506683757 29.707562717451015 29.646035524629188 29.58450833180736 29.553744735396446 29.522981138985532 29.522981138985532 29.522981138985532 29.49221754257462 29.461453946163708 29.461453946163708 29.461453946163708 29.461453946163708 29.461453946163708 29.430690349752794 29.430690349752794 29.430690349752794 29.39992675334188 29.39992675334188 29.39992675334188 29.369163156930966 29.369163156930966 29.338399560520052 29.369163156930966 29.338399560520052 29.30763596410914 29.276872367698225 29.215345174876397 29.184581578465483 29.123054385643655 29.09229078923274 29.061527192821828 29.030763596410914 29.030763596410914 29.030763596410914 29.0 29.0 29.0 29.0 29.0 29.0 29.0 28.969236403589086 28.969236403589086 28.969236403589086 28.969236403589086 28.969236403589086 28.969236403589086 28.969236403589086 28.969236403589086 28.938472807178172 28.938472807178172 28.938472807178172 28.969236403589086 28.938472807178172 28.938472807178172 28.938472807178172 28.938472807178172 28.938472807178172 28.938472807178172 28.938472807178172 28.938472807178172 28.938472807178172 28.938472807178172 28.938472807178172 28.938472807178172 28.938472807178172 28.90770921076726 28.90770921076726 28.90770921076726 28.90770921076726 28.90770921076726 28.90770921076726 28.90770921076726 28.90770921076726 28.90770921076726 28.90770921076726 28.90770921076726 28.876945614356345 28.90770921076726 28.90770921076726 28.876945614356345 28.876945614356345 28.90770921076726 28.876945614356345 28.876945614356345 28.876945614356345 28.90770921076726 28.90770921076726 28.876945614356345 28.876945614356345 28.90770921076726 28.876945614356345 28.876945614356345 28.876945614356345 28.876945614356345 28.876945614356345 28.876945614356345 28.876945614356345 28.876945614356345 28.84618201794543 28.876945614356345 28.84618201794543 28.876945614356345 28.84618201794543 28.84618201794543 28.84618201794543 28.84618201794543 28.84618201794543 28.84618201794543 28.84618201794543 28.84618201794543 28.84618201794543 28.84618201794543 28.84618201794543 28.84618201794543 28.84618201794543 28.84618201794543 28.84618201794543 28.84618201794543 28.84618201794543 28.84618201794543 28.84618201794543 28.815418421534517 28.84618201794543 28.84618201794543 28.84618201794543 28.84618201794543 28.84618201794543 28.815418421534517 28.815418421534517 28.815418421534517 28.815418421534517 28.84618201794543 28.815418421534517 28.815418421534517 28.815418421534517 28.815418421534517 28.815418421534517 28.815418421534517 28.815418421534517 28.815418421534517 28.815418421534517 28.815418421534517 28.815418421534517 28.815418421534517 28.815418421534517 28.815418421534517 28.815418421534517 28.815418421534517 28.815418421534517 28.815418421534517 28.815418421534517 28.784654825123603 28.784654825123603 28.784654825123603 28.784654825123603 28.815418421534517 28.815418421534517 28.784654825123603 28.784654825123603 28.784654825123603 28.784654825123603 28.784654825123603 28.815418421534517 28.784654825123603 28.784654825123603 28.815418421534517 28.784654825123603 28.784654825123603 28.815418421534517 28.784654825123603 28.784654825123603 28.784654825123603 28.784654825123603 28.784654825123603 28.784654825123603 28.784654825123603 28.784654825123603 28.784654825123603 28.784654825123603 28.784654825123603 28.784654825123603 28.784654825123603 28.784654825123603 28.784654825123603 28.784654825123603 28.784654825123603 28.784654825123603 28.784654825123603 28.784654825123603 28.784654825123603 28.784654825123603 28.784654825123603 28.784654825123603 28.784654825123603 28.784654825123603 28.784654825123603 28.784654825123603 28.784654825123603 28.784654825123603 28.784654825123603 28.784654825123603 28.784654825123603 28.784654825123603 28.784654825123603 28.784654825123603 28.784654825123603 28.784654825123603 28.784654825123603 28.784654825123603 28.784654825123603 28.784654825123603 28.784654825123603 28.784654825123603 28.784654825123603 28.784654825123603 28.784654825123603 28.784654825123603 28.784654825123603 28.784654825123603 28.784654825123603 28.784654825123603 28.784654825123603 28.784654825123603 28.784654825123603 28.784654825123603 28.784654825123603 28.784654825123603 28.784654825123603 28.784654825123603 28.784654825123603 28.784654825123603 28.784654825123603 28.784654825123603 28.784654825123603 28.75389122871269 28.784654825123603 28.784654825123603 28.784654825123603 28.784654825123603 28.784654825123603 28.75389122871269 28.784654825123603 28.75389122871269 28.784654825123603 28.784654825123603 28.784654825123603 28.784654825123603 28.784654825123603 28.784654825123603 28.784654825123603 28.75389122871269 28.784654825123603 28.784654825123603 28.784654825123603 28.75389122871269 28.784654825123603 28.784654825123603 28.75389122871269 28.75389122871269 28.75389122871269 28.75389122871269 28.75389122871269 28.75389122871269 28.75389122871269 28.75389122871269 28.75389122871269 28.75389122871269 28.75389122871269 28.75389122871269 28.75389122871269 28.75389122871269 28.75389122871269 28.75389122871269 28.75389122871269 28.723127632301775 28.75389122871269 28.75389122871269 28.75389122871269 28.75389122871269 28.75389122871269 28.75389122871269 28.75389122871269 28.75389122871269 28.75389122871269 28.75389122871269 28.75389122871269 28.75389122871269 28.75389122871269 28.75389122871269 28.75389122871269 28.75389122871269 28.75389122871269 28.75389122871269 28.75389122871269 28.75389122871269 28.75389122871269 28.75389122871269 28.75389122871269 28.75389122871269 28.75389122871269 28.75389122871269 28.75389122871269 28.75389122871269 28.75389122871269 28.75389122871269 28.723127632301775 28.75389122871269 28.75389122871269 28.75389122871269 28.75389122871269 28.75389122871269 28.75389122871269 28.723127632301775 28.75389122871269 28.75389122871269 28.723127632301775 28.75389122871269 28.75389122871269 28.75389122871269 28.75389122871269 28.75389122871269 28.723127632301775 28.723127632301775 28.75389122871269 28.723127632301775 28.75389122871269 28.75389122871269 28.75389122871269 28.75389122871269 28.75389122871269 28.75389122871269 28.75389122871269 28.75389122871269 28.75389122871269 28.723127632301775 28.723127632301775 28.75389122871269 28.75389122871269 28.75389122871269 28.723127632301775 28.723127632301775 28.75389122871269 28.723127632301775 28.75389122871269 28.75389122871269 28.723127632301775 28.723127632301775 28.75389122871269 28.75389122871269 28.723127632301775 28.75389122871269 28.723127632301775 28.75389122871269 28.75389122871269 28.723127632301775 28.723127632301775 28.723127632301775 28.723127632301775 28.75389122871269 28.75389122871269 28.723127632301775 28.723127632301775 28.75389122871269 28.75389122871269 28.75389122871269 28.75389122871269 28.75389122871269 28.723127632301775 28.75389122871269 28.723127632301775 28.75389122871269 28.723127632301775 28.723127632301775 28.75389122871269 28.75389122871269 28.75389122871269 28.723127632301775 28.75389122871269 28.75389122871269 28.723127632301775 28.723127632301775 28.75389122871269 28.723127632301775 28.75389122871269 28.75389122871269 28.75389122871269 28.723127632301775 28.75389122871269 28.75389122871269 28.75389122871269 28.723127632301775 28.723127632301775 28.75389122871269 28.75389122871269 28.723127632301775 28.723127632301775 28.723127632301775 28.75389122871269 28.723127632301775 28.75389122871269 28.723127632301775 28.75389122871269 28.75389122871269 28.723127632301775 28.723127632301775 28.723127632301775 28.723127632301775 28.75389122871269 28.723127632301775 28.723127632301775 28.75389122871269 28.723127632301775 28.75389122871269 28.75389122871269 28.723127632301775 28.75389122871269 28.723127632301775 28.75389122871269 28.723127632301775 28.723127632301775 28.723127632301775 28.723127632301775 28.723127632301775 28.723127632301775 28.723127632301775 28.723127632301775 28.723127632301775 28.723127632301775 28.723127632301775 28.723127632301775 28.723127632301775 28.723127632301775 28.723127632301775 28.723127632301775 28.723127632301775 28.723127632301775 28.723127632301775 28.723127632301775 28.723127632301775 28.723127632301775 28.723127632301775 28.723127632301775 28.723127632301775 28.723127632301775 28.723127632301775 28.723127632301775 28.723127632301775 28.723127632301775 28.723127632301775 28.723127632301775 28.723127632301775 28.723127632301775 28.723127632301775 28.723127632301775 28.69236403589086 28.723127632301775 28.723127632301775 28.723127632301775 28.723127632301775 28.723127632301775 28.723127632301775 28.723127632301775 28.723127632301775 28.723127632301775 28.723127632301775 28.723127632301775 28.723127632301775 28.723127632301775 28.723127632301775 28.723127632301775 28.723127632301775 28.723127632301775 28.723127632301775 28.723127632301775 28.723127632301775 28.723127632301775 28.723127632301775 28.723127632301775 28.723127632301775 28.723127632301775 28.723127632301775 28.723127632301775 28.723127632301775 28.723127632301775 28.723127632301775 28.723127632301775 28.723127632301775 28.723127632301775 28.723127632301775 28.723127632301775 28.723127632301775 28.723127632301775 28.723127632301775 28.723127632301775 28.723127632301775 28.723127632301775 28.723127632301775 28.723127632301775 28.723127632301775 28.723127632301775 28.723127632301775 28.723127632301775 28.723127632301775 28.723127632301775 28.723127632301775 28.723127632301775 28.723127632301775 28.723127632301775 28.723127632301775 28.723127632301775 28.723127632301775 28.723127632301775 28.723127632301775 28.723127632301775 28.723127632301775 28.723127632301775 28.723127632301775 28.723127632301775 28.723127632301775 28.723127632301775 28.723127632301775 28.723127632301775 28.723127632301775 28.723127632301775 28.69236403589086 28.723127632301775 28.723127632301775 28.723127632301775 28.723127632301775 28.723127632301775 28.723127632301775 28.723127632301775 28.723127632301775 28.723127632301775 28.723127632301775 28.723127632301775 28.723127632301775 28.723127632301775 28.723127632301775 28.723127632301775 28.723127632301775 28.723127632301775 28.723127632301775 28.723127632301775 28.723127632301775 28.723127632301775 28.723127632301775 28.723127632301775 28.723127632301775 28.723127632301775 28.723127632301775 28.723127632301775 28.69236403589086 28.723127632301775 28.723127632301775 28.723127632301775 28.723127632301775 28.723127632301775 28.723127632301775 28.723127632301775 28.69236403589086 28.69236403589086 28.69236403589086 28.723127632301775 28.69236403589086 28.69236403589086 28.69236403589086 28.69236403589086 28.69236403589086 28.69236403589086 28.69236403589086 28.69236403589086 28.69236403589086 28.69236403589086 28.69236403589086 28.69236403589086 28.69236403589086 28.69236403589086 28.69236403589086 28.69236403589086 28.69236403589086 28.69236403589086 28.69236403589086 28.69236403589086 28.69236403589086 28.69236403589086 28.69236403589086 28.69236403589086 28.69236403589086 28.69236403589086 28.69236403589086 28.69236403589086 28.69236403589086 28.69236403589086 28.69236403589086 28.69236403589086 28.69236403589086 28.69236403589086 28.69236403589086 28.69236403589086 28.69236403589086 28.69236403589086 28.69236403589086 28.69236403589086 28.69236403589086 28.69236403589086 28.69236403589086 28.69236403589086 28.69236403589086 28.69236403589086 28.69236403589086 28.69236403589086 28.69236403589086 28.69236403589086 28.69236403589086 28.69236403589086 28.69236403589086 28.69236403589086 28.69236403589086 28.69236403589086 28.69236403589086 28.69236403589086 28.69236403589086 28.69236403589086 28.69236403589086 28.69236403589086 28.69236403589086 28.69236403589086 28.69236403589086 28.69236403589086 28.69236403589086 28.69236403589086 28.69236403589086 28.69236403589086 28.69236403589086 28.69236403589086 28.69236403589086 28.69236403589086 28.69236403589086 28.69236403589086 28.69236403589086 28.69236403589086 28.69236403589086 28.69236403589086 28.69236403589086 28.69236403589086 28.69236403589086 28.69236403589086 28.69236403589086 28.69236403589086 28.69236403589086 28.69236403589086 28.69236403589086 28.69236403589086 28.69236403589086 28.69236403589086 28.69236403589086 28.69236403589086 28.69236403589086 28.69236403589086 28.69236403589086 28.69236403589086 28.69236403589086 28.69236403589086 28.69236403589086 28.69236403589086 28.69236403589086 28.69236403589086 28.69236403589086 28.69236403589086 28.69236403589086 28.69236403589086 28.69236403589086 28.69236403589086 28.69236403589086 28.69236403589086 28.69236403589086 28.69236403589086 28.69236403589086 28.69236403589086 28.69236403589086 28.69236403589086 28.69236403589086 28.69236403589086 28.69236403589086 28.69236403589086 28.69236403589086 28.69236403589086 28.69236403589086 28.69236403589086 28.69236403589086 28.69236403589086 28.69236403589086 28.69236403589086 28.69236403589086 28.69236403589086 28.69236403589086 28.69236403589086 28.69236403589086 28.69236403589086 28.69236403589086 28.69236403589086 28.69236403589086 28.69236403589086 28.69236403589086 28.69236403589086 28.69236403589086 28.69236403589086 28.69236403589086 28.69236403589086 28.69236403589086 28.69236403589086 28.69236403589086 28.69236403589086 28.69236403589086 28.69236403589086 28.69236403589086 28.69236403589086 28.69236403589086 28.69236403589086 28.69236403589086 28.69236403589086 28.69236403589086 28.69236403589086 28.69236403589086 28.69236403589086 28.69236403589086 28.69236403589086 28.723127632301775 28.723127632301775 28.723127632301775 28.723127632301775 28.723127632301775 28.723127632301775 28.75389122871269 28.75389122871269 28.75389122871269 28.75389122871269 28.75389122871269 28.75389122871269 28.75389122871269 28.75389122871269 28.75389122871269 28.784654825123603 28.784654825123603 28.784654825123603 28.784654825123603 28.784654825123603 28.784654825123603 28.784654825123603 28.784654825123603 28.784654825123603 28.784654825123603 28.784654825123603 28.784654825123603 28.784654825123603 28.815418421534517 28.815418421534517 28.84618201794543 28.84618201794543 28.84618201794543 28.84618201794543 28.876945614356345 28.90770921076726 28.969236403589086 29.030763596410914 29.030763596410914 29.030763596410914 29.09229078923274 29.123054385643655 29.215345174876397 29.461453946163708 29.522981138985532 29.646035524629188 29.73832631386193 29.861380699505585 29.953671488738326 30.015198681560154 30.13825306720381 30.199780260025637 30.261307452847465 30.322834645669293 30.353598242080206 30.415125434902034 30.47665262772386 30.538179820545686 30.630470609778428 30.72276139901117 30.784288591832997 30.87657938106574 30.96887017029848 31.06116095953122 31.12268815235305 31.21497894158579 31.338033327229446 31.491851309284012 31.64566929133858 31.768723676982237 31.86101446621498 31.984068851858634 32.04559604468046 32.168650430324114 32.260941219556855 32.3532320087896 32.47628639443325 32.507049990844166 32.568577183665994 32.660867972898735 32.75315876213148 32.814685954953305 32.968503937007874 33.0300311298297 33.214612708295185 33.368430690349754 33.522248672404324 33.76835744369163 33.922175425746204 34.075993407800766 34.383629371909905 34.629738143197216 34.8143197216627 34.937374107306354 35.06042849295001 35.24501007141549 35.36806445705915 35.52188243911371 35.76799121040103 35.9218091924556 36.13715436733199 36.352499542208385 36.53708112067387 36.81395348837209 37.02929866324849 37.21388024171397 37.4907526094122 37.64457059146676 37.921442959164985 38.25984251968504 38.475187694561434 38.69053286943783 39.121223219190625 39.367331990477936 39.61344076176525 39.982603918696206 40.35176707562717 40.72093023255814 40.997802600256364 41.39772935359824 41.797656106940124 42.13605566746017 42.505218824391136 42.84361838491119 43.305072331074896 43.73576268082768 44.04339864493682 44.59714338033327 44.90477934444241 45.12012451931881 45.36623329060612 45.58157846548251 45.85845083318073 46.2276139901117 46.41219556857718 46.658304339864486 46.81212232191906 46.996703900384546 47.212049075260936 47.42739425013734 47.70426661783556 47.95037538912287 48.13495696758835 48.38106573887566 48.59641091375206 48.84251968503936 49.18091924555942 49.39626442043581 49.70390038454495 50.01153634865409 50.2576451199414 50.56528108405054 50.903680644570585 51.149789415857896 51.42666178355613 51.61124336202161 51.91887932613075 52.19575169382897 52.47262406152719 52.78026002563632 53.026368796923634 53.27247756821095 53.45705914667643 53.73393151437466 54.01080388207288 54.25691265336019 54.44149423182567 54.68760300311298 54.872184581578466 55.11829335286578 55.36440212415309 55.54898370261857 55.79509247390588 56.041201245193186 56.195019227247755 56.41036440212415 56.56418238417872 56.87181834828786 57.02563633034242 57.14869071598608 57.36403589086248 57.61014466214979 57.67167185497162 57.917780626258924 58.010071415491666 58.19465299395715 58.34847097601172 58.44076176524446 58.59457974729903 58.68687053653177 58.7483977293536 58.84068851858633 58.90221571140816 58.96374290422999 59.025270097051816 59.05603369346274 59.117560886284565 59.17908807910639 59.24061527192821 59.363669657571876 59.425196850393704 59.51748763962644 59.60977842885918 59.70206921809192 59.82512360373558 59.978941585790146 60.132759567844715 60.3173411463102 60.440395531953854 60.62497711041934 60.778795092473906 60.901849478117555 61.11719465299395 61.240249038637614 61.45559421351401 61.6709393883904 61.855520966855885 61.97857535249954 62.16315693096502 62.28621131660868 62.44002929866325 62.5630836843069 62.716901666361466 62.96301043764878 63.08606482329243 63.30140999816883 63.424464383812484 63.578282365867054 63.76286394433254 63.978209119208934 64.19355429408533 64.40889946896172 64.59348104742722 64.83958981871451 65.11646218641275 65.30104376487822 65.57791613257645 65.79326130745284 66.10089727156199 66.47006042849296 66.71616919978025 67.17762314594395 67.57754989928584 67.79289507416223 68.10053103827138 68.3466398095587 68.74656656290057 69.2695477018861 69.51565647317341 69.85405603369347 70.16169199780259 70.4078007690899 70.59238234755539 70.80772752243178 71.11536348654093 71.36147225782824 71.54605383629371 71.7306354147592 71.88445339681377 72.03827137886833 72.19208936092289 72.31514374656656 72.43819813221022 72.56125251785386 72.71507049990844 72.86888848196301 73.05347006042848 73.17652444607214 73.33034242812671 73.42263321735945 73.60721479582494 73.69950558505768 73.82255997070132 73.88408716352316 73.94561435634498 73.97637795275591 73.97637795275591 74.00714154916682 74.00714154916682 74.00714154916682 74.00714154916682 74.00714154916682 74.00714154916682 74.00714154916682 73.97637795275591 73.97637795275591 74.00714154916682 73.97637795275591 73.97637795275591 73.97637795275591 74.00714154916682 74.06866874198865 74.09943233839957 74.16095953122138 74.22248672404322 74.34554110968686 74.37630470609778 74.40706830250869 74.43783189891961 74.43783189891961 74.43783189891961 74.43783189891961 74.43783189891961 74.43783189891961 74.43783189891961 74.46859549533052 74.43783189891961 74.43783189891961 74.43783189891961 74.43783189891961 74.43783189891961 74.43783189891961 74.43783189891961 74.43783189891961 74.43783189891961 74.46859549533052 74.46859549533052 74.46859549533052 74.46859549533052 74.46859549533052 74.49935909174144 74.56088628456325 74.59164988097417 74.653177073796 74.68394067020691 74.68394067020691 74.71470426661784 74.71470426661784 74.71470426661784 74.71470426661784 74.71470426661784 74.71470426661784 74.71470426661784 74.71470426661784 74.71470426661784 74.71470426661784 74.71470426661784 74.71470426661784 74.71470426661784 74.74546786302875 74.71470426661784 74.74546786302875 74.74546786302875 74.74546786302875 74.74546786302875 74.74546786302875 74.74546786302875 74.77623145943966 74.77623145943966 74.80699505585056 74.8685222486724 74.89928584508331 74.89928584508331 74.93004944149423 74.93004944149423 74.93004944149423 74.93004944149423 74.93004944149423 74.93004944149423 74.93004944149423 74.93004944149423 74.93004944149423 74.93004944149423 74.93004944149423 74.93004944149423 74.93004944149423 74.93004944149423 74.93004944149423 74.93004944149423 74.93004944149423 74.93004944149423 74.93004944149423 74.93004944149423 74.93004944149423 74.96081303790514 74.96081303790514 74.93004944149423 74.93004944149423 74.96081303790514 74.93004944149423 74.93004944149423 74.93004944149423 74.96081303790514 74.93004944149423 74.96081303790514 74.93004944149423 74.96081303790514 74.93004944149423 74.93004944149423 74.96081303790514 74.96081303790514 74.96081303790514 74.96081303790514 74.96081303790514 74.96081303790514 74.96081303790514 74.96081303790514 74.96081303790514 74.93004944149423 74.96081303790514 74.93004944149423 74.96081303790514 74.93004944149423 74.96081303790514 74.93004944149423 74.96081303790514 74.96081303790514 74.93004944149423 74.96081303790514 74.96081303790514 74.93004944149423 74.93004944149423 74.93004944149423 74.96081303790514 74.96081303790514 74.96081303790514 74.96081303790514 74.93004944149423 74.96081303790514 74.96081303790514 74.93004944149423 74.96081303790514 74.96081303790514 74.96081303790514 74.96081303790514 74.96081303790514 74.96081303790514 74.96081303790514 74.93004944149423 74.96081303790514 74.93004944149423 74.96081303790514 74.93004944149423 74.93004944149423 74.96081303790514 74.93004944149423 74.96081303790514 74.96081303790514 74.93004944149423 74.96081303790514 74.96081303790514 74.93004944149423 74.96081303790514 74.96081303790514 74.96081303790514 74.96081303790514 74.96081303790514 74.96081303790514 74.96081303790514 74.96081303790514 74.93004944149423 74.93004944149423 74.93004944149423 74.93004944149423 74.93004944149423 74.93004944149423 74.93004944149423 74.96081303790514 74.93004944149423 74.93004944149423 74.93004944149423 74.93004944149423 74.93004944149423 74.96081303790514 74.96081303790514 74.96081303790514 74.96081303790514 74.93004944149423 74.96081303790514 74.96081303790514 74.96081303790514 74.96081303790514 74.96081303790514 74.93004944149423 74.93004944149423 74.93004944149423 74.96081303790514 74.93004944149423 74.93004944149423 74.96081303790514 74.96081303790514 74.96081303790514 74.96081303790514 74.96081303790514 74.96081303790514 74.93004944149423 74.93004944149423 74.93004944149423 74.96081303790514 74.93004944149423 74.93004944149423 74.93004944149423 74.93004944149423 74.96081303790514 74.93004944149423 74.93004944149423 74.96081303790514 74.96081303790514 74.93004944149423 74.93004944149423 74.93004944149423 74.93004944149423 74.93004944149423 74.93004944149423 74.93004944149423 74.93004944149423 74.93004944149423 74.93004944149423 74.93004944149423 74.93004944149423 74.93004944149423 74.93004944149423 74.93004944149423 74.93004944149423 74.93004944149423 74.93004944149423 74.89928584508331 74.89928584508331 74.89928584508331 74.89928584508331 74.8685222486724 74.8685222486724 74.8377586522615 74.8377586522615 74.80699505585056 74.80699505585056 74.77623145943966 74.74546786302875 74.71470426661784 74.653177073796 74.56088628456325 74.49935909174144 74.40706830250869 74.31477751327596 74.1917231276323 74.06866874198865 73.94561435634498 73.85332356711226 73.7302691814686 73.57645119941402 73.45339681377037 73.29957883171579 73.17652444607214 73.02270646401757 72.89965207837392 72.77659769273026 72.5920161142648 72.34590734297747 72.19208936092289 71.9459805896356 71.79216260758102 71.54605383629371 71.39223585423915 71.23841787218458 70.93078190807545 70.68467313678812 70.53085515473356 70.31550997985717 70.13092840139169 69.9463468229262 69.76176524446072 69.60794726240616 69.45412928035158 69.33107489470792 69.14649331624244 68.99267533418788 68.8388573521333 68.68503937007873 68.62351217725691 68.50045779161326 68.31587621314777 68.22358542391504 68.06976744186046 67.91594945980589 67.79289507416223 67.63907709210767 67.51602270646401 67.36220472440945 67.2391503387658 67.11609595312214 66.99304156747849 66.83922358542392 66.74693279619117 66.5931148141366 66.43929683208202 66.31624244643838 66.19318806079472 66.10089727156199 65.97784288591834 65.82402490386376 65.7009705182201 65.54715253616553 65.42409815052187 65.33180736128914 65.14722578282365 65.0549349935909 64.90111701153634 64.74729902948178 64.62424464383813 64.47042666178355 64.28584508331807 64.1320271012635 63.94744552279802 63.76286394433254 63.516755173045226 63.239882805347 63.055301226881525 62.77842885918329 62.47079289507416 62.22468412378685 61.947811756088626 61.76323017762314 61.48635780992492 61.086431056583045 60.87108588170665 60.686504303241165 60.34810474272111 60.16352316425563 59.91741439296832 59.732832814502835 59.51748763962644 59.24061527192821 59.086797289873644 58.87145211499725 58.68687053653177 58.47152536165537 58.22541659036806 58.04083501190259 57.79472624061527 57.54861746932796 57.33327229445156 56.964109137520595 56.748763962644205 56.53341878776781 56.28731001648049 56.041201245193186 55.73356528108405 55.27211133492034 54.99523896722212 54.626075810291155 54.34920344259293 54.072331074894706 53.580113532320084 53.33400476103277 52.99560520051273 52.65720563999267 52.31880607947262 52.103460904596226 51.85735213330892 51.42666178355613 51.242080205090645 51.02673503021424 50.71909906610511 50.41146310199597 50.16535433070866 49.73466398095587 49.48855520966856 49.18091924555942 48.96557407068302 48.75022889580663 48.38106573887566 47.88884819630104 47.61197582860282 47.27357626808276 46.996703900384546 46.71983153268632 46.38143197216627 46.13532320087896 45.82768723676982 45.58157846548251 45.396996887017025 45.15088811572972 44.99707013367515 44.75096136238784 44.535616187511444 44.381798205456874 44.16645303058048 43.95110785570408 43.79728987364952 43.581944698773114 43.39736312030763 43.18201794543124 43.028199963376665 42.8743819813221 42.62827321003479 42.38216443874748 42.22834645669291 41.92071049258377 41.73612891411829 41.5207837392419 41.243911371543675 41.090093389489105 40.81322102179088 40.6286394433254 40.444057864859914 40.25947628639443 40.16718549716169 40.07489470792895 39.921076725874386 39.82878593664164 39.674967954587075 39.55191356894342 39.367331990477936 39.15198681560154 38.967405237136056 38.59824208020509 38.413660501739606 38.25984251968504 38.04449734480864 37.73686138069951 37.459989013001284 37.152353048892145 36.93700787401575 36.72166269913935 36.598608313495696 36.47555392785204 36.352499542208385 36.26020875297564 36.13715436733199 35.98333638527742 35.86028199963376 35.76799121040103 35.64493682475737 35.55264603552463 35.46035524629189 35.36806445705915 35.27577366782641 35.15271928218275 35.09119208936092 34.99890130012818 34.87584691448453 34.783556125251785 34.69126533601904 34.5989745467863 34.475920161142646 34.35286577549899 34.26057498626625 34.137520600622594 34.01446621497894 33.95293902215711 33.860648232924376 33.76835744369163 33.67606665445889 33.58377586522615 33.522248672404324 33.49148507599341 33.49148507599341 33.460721479582496 33.42995788317158 33.368430690349754 33.33766709393884 33.27613990111701 33.2453763047061 33.18384911188427 33.15308551547336 33.060794726240616 32.99926753341879 32.93774034059696 32.814685954953305 32.75315876213148 32.660867972898735 32.568577183665994 32.507049990844166 32.38399560520051 32.29170481596777 32.23017762314594 32.1378868339132 32.04559604468046 31.95330525544772 31.891778062625892 31.79948727339315 31.70719648416041 31.676432887749495 31.64566929133858 31.584142098516754 31.55337850210584 31.461087712873102 31.430324116462188 31.399560520051274 31.338033327229446 31.307269730818533 31.245742537996705 31.184215345174877 31.12268815235305 31.06116095953122 30.96887017029848 30.907342977476652 30.81505218824391 30.66123420618934 30.599707013367514 30.445889031312948 30.322834645669293 30.23054385643655 30.107489470792896 30.045962277971068 29.861380699505585 29.73832631386193 29.646035524629188 29.553744735396446 29.461453946163708 29.461453946163708 29.461453946163708 29.461453946163708 29.430690349752794 29.430690349752794 29.39992675334188 29.430690349752794 29.430690349752794 29.430690349752794 29.430690349752794 29.39992675334188 29.39992675334188 29.39992675334188 29.39992675334188 29.39992675334188 29.39992675334188 29.39992675334188 29.369163156930966 29.369163156930966 29.338399560520052 29.369163156930966 29.338399560520052 29.338399560520052 29.338399560520052 29.338399560520052 29.338399560520052 29.338399560520052 29.338399560520052 29.30763596410914 29.30763596410914 29.30763596410914 29.30763596410914 29.30763596410914 29.30763596410914 29.276872367698225 29.276872367698225 29.276872367698225 29.276872367698225 29.276872367698225 29.276872367698225 29.276872367698225 29.24610877128731 29.24610877128731 29.24610877128731 29.215345174876397 29.215345174876397 29.215345174876397 29.184581578465483 29.184581578465483 29.184581578465483 29.15381798205457 29.15381798205457 29.15381798205457 29.15381798205457 29.123054385643655 29.123054385643655 29.123054385643655 29.123054385643655 29.123054385643655 29.123054385643655 29.123054385643655 29.123054385643655 29.123054385643655 29.09229078923274 29.09229078923274 29.09229078923274 29.09229078923274 29.09229078923274 29.09229078923274 29.09229078923274 29.09229078923274 29.09229078923274 29.09229078923274 29.09229078923274 29.061527192821828 29.09229078923274 29.061527192821828 29.061527192821828 29.061527192821828 29.061527192821828 29.061527192821828 29.061527192821828 29.061527192821828 29.061527192821828 29.061527192821828 29.061527192821828 29.030763596410914 29.030763596410914 29.030763596410914 29.030763596410914 29.0 29.0 29.0 29.0 29.0 29.0 29.0 29.0 29.0 29.0 29.0 29.0 28.969236403589086 29.0 29.0 29.0 28.969236403589086 29.0 28.969236403589086 28.969236403589086 29.0 28.969236403589086 28.969236403589086 28.969236403589086 28.969236403589086 28.969236403589086 28.969236403589086 28.969236403589086 29.0 28.969236403589086 28.969236403589086 28.969236403589086 28.969236403589086 29.0 29.0 29.0 28.969236403589086 29.0 28.969236403589086 29.0 29.0 28.969236403589086 28.969236403589086 28.969236403589086 29.0 28.969236403589086 28.969236403589086 28.969236403589086 28.969236403589086 29.0 28.969236403589086 29.0 28.969236403589086 28.969236403589086 29.0 28.969236403589086 28.969236403589086 28.969236403589086 28.969236403589086 28.969236403589086 28.969236403589086 28.969236403589086 28.969236403589086 28.969236403589086 28.969236403589086 28.969236403589086 28.969236403589086 28.969236403589086 29.0 28.969236403589086 28.969236403589086 29.0 28.969236403589086 28.969236403589086 28.969236403589086 28.969236403589086 28.969236403589086 28.969236403589086 28.969236403589086 28.969236403589086 28.969236403589086 28.969236403589086 28.969236403589086 28.969236403589086 28.969236403589086 28.969236403589086 28.969236403589086 28.969236403589086 28.969236403589086 28.969236403589086 28.969236403589086 28.969236403589086 28.969236403589086 28.969236403589086 28.969236403589086 28.969236403589086 28.969236403589086 28.969236403589086 28.969236403589086 28.969236403589086 28.969236403589086 28.969236403589086 28.969236403589086 28.969236403589086 28.969236403589086 28.969236403589086 28.969236403589086 28.969236403589086 28.969236403589086 28.969236403589086 28.969236403589086 28.969236403589086 28.969236403589086 28.969236403589086 28.969236403589086 28.969236403589086 28.969236403589086 28.969236403589086 28.969236403589086 28.969236403589086 28.969236403589086 28.969236403589086 28.969236403589086 29.0 28.969236403589086 28.969236403589086 28.969236403589086 28.969236403589086 28.969236403589086 29.0 28.969236403589086 28.969236403589086 28.969236403589086 28.969236403589086 28.969236403589086 28.969236403589086 28.969236403589086 28.969236403589086 28.969236403589086 28.969236403589086 28.969236403589086 28.969236403589086 28.969236403589086 28.969236403589086 28.969236403589086 28.969236403589086 29.0 28.969236403589086 28.969236403589086 28.969236403589086 28.969236403589086 28.969236403589086 28.969236403589086 28.969236403589086 28.969236403589086 28.969236403589086 28.969236403589086 28.969236403589086 28.969236403589086 28.969236403589086 28.969236403589086 28.969236403589086 28.969236403589086 28.969236403589086 28.969236403589086 28.969236403589086 28.969236403589086 28.969236403589086 28.969236403589086 28.969236403589086 28.969236403589086 28.969236403589086 28.969236403589086 28.969236403589086 28.969236403589086 28.969236403589086 28.969236403589086 28.969236403589086 28.969236403589086 28.969236403589086 28.969236403589086 28.969236403589086 28.969236403589086 28.969236403589086 28.969236403589086 28.969236403589086 28.969236403589086 28.938472807178172 28.969236403589086 28.938472807178172 28.969236403589086 28.938472807178172 28.969236403589086 28.969236403589086 28.969236403589086 28.969236403589086 28.969236403589086 28.969236403589086 28.969236403589086 28.969236403589086 28.969236403589086 28.938472807178172 28.969236403589086 28.938472807178172 28.969236403589086 28.969236403589086 28.969236403589086 28.938472807178172 28.969236403589086 28.938472807178172 28.938472807178172 28.938472807178172 28.938472807178172 28.938472807178172 28.938472807178172 28.938472807178172 28.90770921076726 28.90770921076726 28.90770921076726 28.90770921076726 28.90770921076726 28.90770921076726 28.90770921076726 28.876945614356345 28.90770921076726 28.876945614356345 28.876945614356345 28.876945614356345 28.876945614356345 28.876945614356345 28.876945614356345 28.876945614356345 28.876945614356345 28.876945614356345 28.876945614356345 28.876945614356345 28.876945614356345 28.84618201794543 28.84618201794543 28.84618201794543 28.84618201794543 28.84618201794543 28.84618201794543 28.84618201794543 28.84618201794543 28.815418421534517 28.815418421534517 28.815418421534517 28.84618201794543 28.815418421534517 28.815418421534517 28.815418421534517 28.815418421534517 28.815418421534517 28.815418421534517 28.815418421534517 28.815418421534517 28.815418421534517 28.784654825123603 28.784654825123603 28.784654825123603 28.784654825123603 28.784654825123603 28.815418421534517 28.784654825123603 28.784654825123603 28.815418421534517 28.784654825123603 28.784654825123603 28.784654825123603 28.784654825123603 28.784654825123603 28.784654825123603 28.784654825123603 28.784654825123603 28.784654825123603 28.784654825123603 28.784654825123603 28.784654825123603 28.784654825123603 28.784654825123603 28.784654825123603 28.784654825123603 28.784654825123603 28.784654825123603 28.784654825123603 28.784654825123603 28.784654825123603 28.784654825123603 28.784654825123603 28.784654825123603 28.784654825123603 28.784654825123603 28.784654825123603 28.784654825123603 28.784654825123603 28.784654825123603 28.784654825123603 28.784654825123603 28.815418421534517 28.784654825123603 28.784654825123603 28.784654825123603 28.784654825123603 28.784654825123603 28.784654825123603 28.784654825123603 28.784654825123603 28.784654825123603 28.784654825123603 28.784654825123603 28.784654825123603 28.784654825123603 28.784654825123603 28.784654825123603 28.784654825123603 28.784654825123603 28.784654825123603 28.784654825123603 28.784654825123603 28.784654825123603 28.784654825123603 28.784654825123603 28.784654825123603 28.784654825123603 28.784654825123603 28.784654825123603 28.784654825123603 28.784654825123603 28.784654825123603 28.784654825123603 28.784654825123603 28.784654825123603 28.784654825123603 28.784654825123603 28.784654825123603 28.784654825123603 28.784654825123603 28.784654825123603 28.784654825123603 28.784654825123603 28.784654825123603 28.784654825123603 28.784654825123603 28.784654825123603 28.784654825123603 28.784654825123603 28.784654825123603 28.784654825123603 28.784654825123603 28.784654825123603 28.784654825123603 28.784654825123603 28.784654825123603 28.784654825123603 28.784654825123603 28.784654825123603 28.784654825123603 28.784654825123603 28.784654825123603 28.784654825123603 28.784654825123603 28.784654825123603 28.784654825123603 28.784654825123603 28.784654825123603 28.784654825123603 28.784654825123603 28.784654825123603 28.784654825123603 28.784654825123603 28.784654825123603 28.784654825123603 28.784654825123603 28.784654825123603 28.784654825123603 28.784654825123603 28.784654825123603 28.784654825123603 28.784654825123603 28.784654825123603 28.784654825123603 28.784654825123603 28.784654825123603 28.784654825123603 28.784654825123603 28.784654825123603 28.784654825123603 28.784654825123603 28.784654825123603 28.784654825123603 28.784654825123603 28.784654825123603 28.784654825123603 28.784654825123603 28.784654825123603 28.784654825123603 28.784654825123603 28.784654825123603 28.784654825123603 28.784654825123603 28.784654825123603 28.784654825123603 28.784654825123603 28.784654825123603 28.784654825123603 28.784654825123603 28.784654825123603 28.784654825123603 28.784654825123603 28.784654825123603 28.784654825123603 28.784654825123603 28.784654825123603 28.784654825123603 28.784654825123603 28.784654825123603 28.784654825123603 28.784654825123603 28.784654825123603 28.784654825123603 28.784654825123603 28.784654825123603 28.784654825123603 28.784654825123603 28.784654825123603 28.784654825123603 28.784654825123603 28.784654825123603 28.784654825123603 28.784654825123603 28.784654825123603 28.784654825123603 28.784654825123603 28.784654825123603 28.784654825123603 28.784654825123603 28.784654825123603 28.784654825123603 28.784654825123603 28.784654825123603 28.784654825123603 28.784654825123603 28.784654825123603 28.784654825123603 28.784654825123603 28.784654825123603 28.784654825123603 28.784654825123603 28.784654825123603 28.784654825123603 28.784654825123603 28.784654825123603 28.784654825123603 28.784654825123603 28.784654825123603 28.784654825123603 28.784654825123603 28.784654825123603 28.75389122871269 28.784654825123603 28.784654825123603 28.784654825123603 28.75389122871269 28.784654825123603 28.75389122871269 28.75389122871269 28.75389122871269 28.75389122871269 28.75389122871269 28.75389122871269 28.75389122871269 28.75389122871269 28.75389122871269 28.75389122871269 28.75389122871269 28.75389122871269 28.75389122871269 28.75389122871269 28.75389122871269 28.75389122871269 28.75389122871269 28.75389122871269 28.75389122871269 28.75389122871269 28.75389122871269 28.75389122871269 28.75389122871269 28.784654825123603 28.75389122871269 28.75389122871269 28.784654825123603 28.75389122871269 28.75389122871269 28.75389122871269 28.75389122871269 28.784654825123603 28.75389122871269 28.75389122871269 28.75389122871269 28.75389122871269 28.75389122871269 28.75389122871269 28.75389122871269 28.75389122871269 28.784654825123603 28.75389122871269 28.75389122871269 28.75389122871269 28.75389122871269 28.75389122871269 28.75389122871269 28.75389122871269 28.75389122871269 28.75389122871269 28.784654825123603 28.784654825123603 28.75389122871269 28.75389122871269 28.75389122871269 28.75389122871269 28.784654825123603 28.75389122871269 28.75389122871269 28.75389122871269 28.75389122871269 28.75389122871269 28.75389122871269 28.75389122871269 28.75389122871269 28.75389122871269 28.75389122871269 28.75389122871269 28.75389122871269 28.75389122871269 28.75389122871269 28.75389122871269 28.75389122871269 28.75389122871269 28.75389122871269 28.75389122871269 28.75389122871269 28.75389122871269 28.75389122871269 28.75389122871269 28.75389122871269 28.75389122871269 28.75389122871269 28.75389122871269 28.75389122871269 28.75389122871269 28.75389122871269 28.75389122871269 28.75389122871269 28.75389122871269 28.75389122871269 28.75389122871269 28.75389122871269 28.75389122871269 28.75389122871269 28.75389122871269 28.75389122871269 28.75389122871269 28.75389122871269 28.75389122871269 28.75389122871269 28.75389122871269 28.75389122871269 28.75389122871269 28.75389122871269 28.784654825123603 28.75389122871269 28.75389122871269 28.75389122871269 28.75389122871269 28.75389122871269 28.75389122871269 28.75389122871269 28.75389122871269 28.75389122871269 28.75389122871269 28.75389122871269 28.75389122871269 28.75389122871269 28.75389122871269 28.75389122871269 28.75389122871269 28.784654825123603 28.784654825123603 28.75389122871269 28.75389122871269 28.75389122871269 28.75389122871269 28.75389122871269 28.75389122871269 28.784654825123603 28.75389122871269 28.75389122871269 28.75389122871269 28.75389122871269 28.75389122871269 28.75389122871269 28.723127632301775 28.723127632301775 28.723127632301775 28.723127632301775 28.723127632301775 28.723127632301775 28.723127632301775 28.723127632301775 28.723127632301775 28.723127632301775 28.723127632301775 28.723127632301775 28.723127632301775 28.723127632301775 28.723127632301775 28.723127632301775 28.75389122871269 28.75389122871269 28.75389122871269 28.75389122871269 28.75389122871269 28.75389122871269 28.75389122871269 28.75389122871269 28.75389122871269 28.75389122871269 28.75389122871269 28.75389122871269 28.75389122871269 28.75389122871269 28.75389122871269 28.815418421534517 28.84618201794543 28.876945614356345 28.90770921076726 28.938472807178172 29.0 29.030763596410914 29.09229078923274 29.123054385643655 29.15381798205457 29.15381798205457 29.184581578465483 29.215345174876397 29.24610877128731 29.276872367698225 29.30763596410914 29.338399560520052 29.39992675334188 29.461453946163708 29.49221754257462 29.522981138985532 29.615271928218274 29.646035524629188 29.707562717451015 29.73832631386193 29.799853506683757 29.83061710309467 29.861380699505585 29.8921442959165 29.953671488738326 29.98443508514924 30.045962277971068 30.107489470792896 30.199780260025637 30.29207104925838 30.353598242080206 30.47665262772386 30.599707013367514 30.691997802600255 30.845815784654825 30.938106573887566 31.030397363120308 31.153451748763963 31.245742537996705 31.36879692364036 31.430324116462188 31.491851309284012 31.614905694927668 31.64566929133858 31.70719648416041 31.830250869804065 31.891778062625892 32.014832448269544 32.1378868339132 32.19941402673503 32.32246841237868 32.414759201611425 32.568577183665994 32.63010437648782 32.75315876213148 32.814685954953305 32.968503937007874 33.060794726240616 33.2453763047061 33.39919428676067 33.614539461637065 33.829884636513455 33.983702618568024 34.229811389855335 34.56821095037539 34.66050173960813 34.937374107306354 35.15271928218275 35.52188243911371 35.86028199963376 36.26020875297564 36.62937190990661 36.93700787401575 37.18311664530306 37.459989013001284 37.859915766343164 38.22907892327412 38.59824208020509 38.90587804431423 39.275041201245195 39.5211499725325 39.890313129463465 40.22871268998352 40.444057864859914 40.81322102179088 41.15162058231093 41.39772935359824 41.73612891411829 42.013001281816514 42.412928035158394 42.78209119208936 43.028199963376665 43.48965390954038 43.828053470060425 44.074162241347736 44.41256180186779 44.72019776597693 44.99707013367515 45.21241530855154 45.5508148690716 45.88921442959165 46.196850393700785 46.41219556857718 46.658304339864486 46.84288591832997 47.08899468961728 47.42739425013734 47.64273942501373 47.82732100347921 48.073429774766524 48.35030214246475 48.65793810657389 48.81175608862846 49.027101263504846 49.427028016846734 49.673136788134045 49.91924555942135 50.288408716352315 50.56528108405054 50.96520783739241 51.211316608679724 51.64200695843252 51.91887932613075 52.34956967588353 52.74949642922542 53.14942318256729 53.42629555026552 53.85698590001831 54.226149056949275 54.81065738875664 55.087529756454856 55.36440212415309 55.76432887749496 56.10272843801501 56.56418238417872 56.93334554110969 57.179454312397 57.54861746932796 57.763962644204355 57.97930781908075 58.40999816883354 58.62534334370994 58.96374290422999 59.27137886833913 59.48672404321553 59.79436000732467 60.1019959714338 60.28657754989928 60.56344991759751 60.778795092473906 61.055667460172124 61.36330342428126 61.57864859915766 61.97857535249954 62.22468412378685 62.409265702252334 62.716901666361466 62.96301043764878 63.20911920893609 63.578282365867054 63.76286394433254 64.03973631203075 64.25508148690716 64.43966306537264 64.83958981871451 65.02417139718 65.33180736128914 65.57791613257645 65.76249771104193 66.03937007874015 66.28547885002746 66.43929683208202 66.68540560336935 66.83922358542392 67.05456876030031 67.2699139351767 67.51602270646401 67.66984068851858 68.10053103827138 68.31587621314777 68.53122138802416 68.77733015931148 69.17725691265336 69.54642006958431 70.00787401574803 70.43856436550081 70.90001831166452 71.20765427577366 71.60758102911555 71.9459805896356 72.31514374656656 72.71507049990844 72.96117927119576 73.26881523530488 73.48416041018129 73.7610327778795 74.03790514557772 74.1917231276323 74.40706830250869 74.56088628456325 74.71470426661784 74.8377586522615 74.93004944149423 75.11463101995972 75.23768540560337 75.36073979124703 75.48379417689067 75.729902948178 75.88372093023256 76.00677531587621 76.2221204907526 76.37593847280718 76.80662882255997 77.05273759384727 77.29884636513458 77.51419154001098 77.7603003112983 78.12946346822926 78.34480864310567 78.68320820362571 79.05237136055666 79.26771653543307 79.60611609595313 79.94451565647316 80.25215162058231 80.49826039186962 80.68284197033509 80.83665995238968 80.95971433803334 81.08276872367698 81.17505951290971 81.23658670573155 81.26735030214246 81.26735030214246 81.26735030214246 81.29811389855337 81.26735030214246 81.29811389855337 81.29811389855337 81.29811389855337 81.26735030214246 81.29811389855337 81.26735030214246 81.26735030214246 81.29811389855337 81.26735030214246 81.29811389855337 81.29811389855337 81.26735030214246 81.26735030214246 81.26735030214246 81.26735030214246 81.26735030214246 81.29811389855337 81.29811389855337 81.26735030214246 81.29811389855337 81.29811389855337 81.26735030214246 81.26735030214246 81.26735030214246 81.26735030214246 81.26735030214246 81.26735030214246 81.26735030214246 81.26735030214246 81.23658670573155 81.23658670573155 81.23658670573155 81.23658670573155 81.20582310932063 81.20582310932063 81.20582310932063 81.20582310932063 81.17505951290971 81.1442959164988 81.08276872367698 81.02124153085515 80.9289507416224 80.83665995238968 80.77513275956784 80.68284197033509 80.62131477751328 80.52902398828053 80.4674967954587 80.40596960263687 80.31367881340414 80.28291521699322 80.25215162058231 80.2213880241714 80.19062442776048 80.12909723493865 80.09833363852775 80.0368064457059 80.006042849295 79.97527925288409 79.94451565647316 79.91375206006225 79.88298846365134 79.75993407800769 79.66764328877494 79.63687969236403 79.5753524995422 79.54458890313128 79.48306171030947 79.42153451748763 79.36000732466582 79.29848013184399 79.26771653543307 79.26771653543307 79.26771653543307 79.23695293902216 79.23695293902216 79.20618934261125 79.20618934261125 79.20618934261125 79.20618934261125 79.23695293902216 79.20618934261125 79.20618934261125 79.20618934261125 79.20618934261125 79.20618934261125 79.20618934261125 79.20618934261125 79.20618934261125 79.20618934261125 79.17542574620032 79.20618934261125 79.20618934261125 79.17542574620032 79.20618934261125 79.20618934261125 79.17542574620032 79.17542574620032 79.20618934261125 79.17542574620032 79.20618934261125 79.20618934261125 79.17542574620032 79.17542574620032 79.17542574620032 79.17542574620032 79.17542574620032 79.17542574620032 79.14466214978941 79.14466214978941 79.14466214978941 79.1138985533785 79.0831349569676 79.05237136055666 79.05237136055666 79.02160776414576 79.02160776414576 79.02160776414576 78.99084416773485 78.99084416773485 78.99084416773485 79.02160776414576 78.99084416773485 78.99084416773485 78.99084416773485 78.99084416773485 78.99084416773485 78.99084416773485 78.99084416773485 78.99084416773485 78.99084416773485 78.99084416773485 78.99084416773485 78.99084416773485 78.99084416773485 78.99084416773485 78.99084416773485 78.99084416773485 78.99084416773485 78.99084416773485 78.99084416773485 78.99084416773485 78.96008057132393 78.92931697491301 78.92931697491301 78.8985533785021 78.8985533785021 78.8985533785021 78.8985533785021 78.8677897820912 78.83702618568027 78.83702618568027 78.83702618568027 78.83702618568027 78.83702618568027 78.83702618568027 78.83702618568027 78.83702618568027 78.83702618568027 78.83702618568027 78.83702618568027 78.83702618568027 78.83702618568027 78.83702618568027 78.83702618568027 78.83702618568027 78.83702618568027 78.83702618568027 78.83702618568027 78.83702618568027 78.83702618568027 78.8677897820912 78.83702618568027 78.83702618568027 78.83702618568027 78.83702618568027 78.83702618568027 78.83702618568027 78.83702618568027 78.83702618568027 78.8677897820912 78.83702618568027 78.83702618568027 78.83702618568027 78.83702618568027 78.83702618568027 78.83702618568027 78.83702618568027 78.83702618568027 78.83702618568027 78.83702618568027 78.83702618568027 78.83702618568027 78.83702618568027 78.83702618568027 78.83702618568027 78.77549899285845 78.74473539644754 78.71397180003662 78.71397180003662 78.71397180003662 78.68320820362571 78.68320820362571 78.68320820362571 78.65244460721479 78.65244460721479 78.65244460721479 78.68320820362571 78.65244460721479 78.68320820362571 78.65244460721479 78.65244460721479 78.68320820362571 78.68320820362571 78.68320820362571 78.68320820362571 78.65244460721479 78.68320820362571 78.65244460721479 78.68320820362571 78.68320820362571 78.65244460721479 78.62168101080388 78.59091741439296 78.56015381798206 78.52939022157113 78.46786302874932 78.4370994323384 78.40633583592748 78.34480864310567 78.31404504669473 78.28328145028382 78.22175425746201 78.19099066105107 78.16022706464017 78.09869987181834 78.03717267899651 77.97564548617468 77.94488188976378 77.91411829335286 77.85259110053104 77.82182750412012 77.7910639077092 77.7603003112983 77.72953671488739 77.69877311847647 77.66800952206555 77.60648232924373 77.51419154001098 77.48342794360008 77.42190075077824 77.36037355795642 77.29884636513458 77.20655557590185 77.14502838308002 77.05273759384727 76.99121040102546 76.92968320820361 76.83739241897088 76.74510162973814 76.6528108405054 76.59128364768358 76.56052005127265 76.49899285845083 76.46822926203993 76.43746566562899 76.37593847280718 76.34517487639626 76.31441127998534 76.25288408716352 76.1913568943417 76.09906610510895 76.00677531587621 75.94524812305438 75.85295733382165 75.729902948178 75.63761215894525 75.48379417689067 75.39150338765793 75.23768540560337 75.0838674235488 74.89928584508331 74.77623145943966 74.59164988097417 74.43783189891961 74.16095953122138 74.09943233839957 73.85332356711226 73.60721479582494 73.45339681377037 73.26881523530488 73.05347006042848 72.80736128914117 72.53048892144295 72.25361655374473 72.06903497527925 71.82292620399194 71.63834462552646 71.39223585423915 71.17689067936274 71.02307269730818 70.80772752243178 70.6231459439663 70.4078007690899 70.19245559421351 70.03863761215894 69.70023805163889 69.4848928767625 69.36183849111885 69.17725691265336 69.02343893059879 68.8080937557224 68.46969419520234 68.31587621314777 68.06976744186046 67.79289507416223 67.66984068851858 67.45449551364219 67.20838674235489 66.93151437465664 66.68540560336935 66.50082402490386 66.25471525361655 66.07013367515107 65.82402490386376 65.63944332539828 65.48562534334371 65.2395165720564 64.99340780076909 64.83958981871451 64.5627174510163 64.40889946896172 64.25508148690716 63.978209119208934 63.88591832997619 63.63980955868888 63.27064640175792 63.024537630470604 62.74766526277239 62.53232008789599 62.255447720197765 61.82475737044497 61.547885002746746 61.14795824940487 60.80955868888482 60.53268632118659 60.19428676066654 59.91741439296832 59.54825123603735 59.2098516755173 59.05603369346274 58.779161325764505 58.40999816883354 58.163889397546235 57.79472624061527 57.54861746932796 57.08716352316425 56.841054751876946 56.59494598058963 56.13349203442593 55.79509247390588 55.641274491851306 55.21058414209851 54.99523896722212 54.74913019593481 54.65683940670207 54.2876762497711 53.94927668925105 53.580113532320084 53.33400476103277 52.99560520051273 52.78026002563632 52.47262406152719 52.19575169382897 52.0419337117744 51.79582494048709 51.54971616919978 51.27284380150155 51.05749862662516 50.903680644570585 50.71909906610511 50.596044680461446 50.442226698406884 50.134590734297745 49.95000915583226 49.73466398095587 49.45779161325764 49.27321003479216 48.96557407068302 48.62717451016297 48.411829335286576 48.04266617835561 47.7965574070683 47.42739425013734 47.05823109320637 46.750595129097235 46.442959164988096 46.13532320087896 45.91997802600257 45.58157846548251 45.396996887017025 45.02783373008606 44.72019776597693 44.535616187511444 44.25874381981322 44.074162241347736 43.88958066288225 43.48965390954038 43.24354513825307 42.93590917414393 42.62827321003479 42.412928035158394 42.04376487822743 41.67460172129647 41.42849295000916 41.12085698590002 40.90551181102362 40.597875846914484 40.290239882805345 40.01336751510712 39.674967954587075 39.45962277971067 39.33656839406702 39.24427760483428 39.121223219190625 39.028932429957884 38.93664164072514 38.875114447903314 38.78282365867057 38.721296465848745 38.65976927302692 38.629005676616 38.59824208020509 38.50595129097235 38.35213330891778 38.25984251968504 38.10602453763047 37.98297015198681 37.89067936275407 37.767624977110415 37.67533418787768 37.521516205823104 37.398461820179456 37.306171030946714 37.12158945248123 36.998535066837576 36.906244277604834 36.78318989196118 36.66013550631752 36.53708112067387 36.444790331441126 36.3832631386193 36.32173594579747 36.29097234938656 36.22944515656473 36.1679179637429 36.13715436733199 36.106390770921074 36.07562717451016 36.044863578099246 36.01409998168833 35.952572788866505 35.86028199963376 35.76799121040103 35.706464017579194 35.55264603552463 35.429591649880976 35.30653726423732 35.183482878593665 35.09119208936092 34.90661051089544 34.84508331807361 34.75279252884087 34.5989745467863 34.50668375755356 34.44515656473173 34.383629371909905 34.32210217908808 34.229811389855335 34.137520600622594 34.10675700421168 34.01446621497894 33.95293902215711 33.89141182933528 33.829884636513455 33.79912104010255 33.7068302508698 33.64530305804798 33.58377586522615 33.522248672404324 33.460721479582496 33.368430690349754 33.27613990111701 33.18384911188427 33.12232191906244 33.0300311298297 32.968503937007874 32.814685954953305 32.72239516572056 32.660867972898735 32.53781358725508 32.47628639443325 32.38399560520051 32.29170481596777 32.260941219556855 32.23017762314594 32.19941402673503 32.168650430324114 32.1378868339132 32.107123237502286 32.07635964109137 32.04559604468046 32.014832448269544 32.014832448269544 31.984068851858634 31.95330525544772 31.922541659036806 31.891778062625892 31.830250869804065 31.79948727339315 31.79948727339315 31.737960080571323 31.64566929133858 31.584142098516754 31.491851309284012 31.399560520051274 31.307269730818533 31.184215345174877 31.091924555942136 30.96887017029848 30.845815784654825 30.72276139901117 30.599707013367514 30.47665262772386 30.29207104925838 30.23054385643655 30.13825306720381 30.045962277971068 30.045962277971068 30.015198681560154 30.015198681560154 30.015198681560154 30.015198681560154 30.015198681560154 30.015198681560154 30.015198681560154 30.015198681560154 29.98443508514924 29.98443508514924 29.98443508514924 29.98443508514924 29.98443508514924 29.98443508514924 29.953671488738326 29.953671488738326 29.953671488738326 29.953671488738326 29.953671488738326 29.922907892327412 29.922907892327412 29.922907892327412 29.922907892327412 29.8921442959165 29.8921442959165 29.8921442959165 29.8921442959165 29.8921442959165 29.8921442959165 29.8921442959165 29.861380699505585 29.861380699505585 29.861380699505585 29.83061710309467 29.83061710309467 29.83061710309467 29.799853506683757 29.799853506683757 29.769089910272843 29.73832631386193 29.73832631386193 29.73832631386193 29.73832631386193 29.73832631386193 29.73832631386193 29.73832631386193 29.707562717451015 29.707562717451015 29.707562717451015 29.6767991210401 29.6767991210401 29.6767991210401 29.646035524629188 29.646035524629188 29.615271928218274 29.615271928218274 29.615271928218274 29.615271928218274 29.615271928218274 29.58450833180736 29.553744735396446 29.553744735396446 29.522981138985532 29.522981138985532 29.49221754257462 29.49221754257462 29.49221754257462 29.49221754257462 29.49221754257462 29.461453946163708 29.430690349752794 29.430690349752794 29.430690349752794 29.39992675334188 29.430690349752794 29.430690349752794 29.39992675334188 29.39992675334188 29.39992675334188 29.39992675334188 29.39992675334188 29.39992675334188 29.369163156930966 29.369163156930966 29.369163156930966 29.338399560520052 29.338399560520052 29.338399560520052 29.338399560520052 29.338399560520052 29.338399560520052 29.30763596410914 29.338399560520052 29.338399560520052 29.338399560520052 29.338399560520052 29.338399560520052 29.338399560520052 29.338399560520052 29.338399560520052 29.338399560520052 29.30763596410914 29.338399560520052 29.338399560520052 29.338399560520052 29.338399560520052 29.338399560520052 29.338399560520052 29.30763596410914 29.338399560520052 29.30763596410914 29.338399560520052 29.30763596410914 29.30763596410914 29.30763596410914 29.30763596410914 29.30763596410914 29.30763596410914 29.30763596410914 29.30763596410914 29.30763596410914 29.30763596410914 29.30763596410914 29.30763596410914 29.30763596410914 29.30763596410914 29.30763596410914 29.30763596410914 29.30763596410914 29.30763596410914 29.30763596410914 29.30763596410914 29.30763596410914 29.30763596410914 29.30763596410914 29.30763596410914 29.30763596410914 29.30763596410914 29.30763596410914 29.30763596410914 29.30763596410914 29.30763596410914 29.30763596410914 29.30763596410914 29.30763596410914 29.30763596410914 29.30763596410914 29.30763596410914 29.30763596410914 29.30763596410914 29.30763596410914 29.30763596410914 29.30763596410914 29.30763596410914 29.30763596410914 29.30763596410914 29.30763596410914 29.30763596410914 29.30763596410914 29.30763596410914 29.30763596410914 29.30763596410914 29.30763596410914 29.30763596410914 29.30763596410914 29.30763596410914 29.276872367698225 29.30763596410914 29.30763596410914 29.30763596410914 29.30763596410914 29.30763596410914 29.30763596410914 29.30763596410914 29.30763596410914 29.30763596410914 29.30763596410914 29.30763596410914 29.30763596410914 29.30763596410914 29.276872367698225 29.30763596410914 29.30763596410914 29.30763596410914 29.30763596410914 29.30763596410914 29.30763596410914 29.276872367698225 29.276872367698225 29.30763596410914 29.30763596410914 29.30763596410914 29.30763596410914 29.30763596410914 29.30763596410914 29.30763596410914 29.30763596410914 29.30763596410914 29.30763596410914 29.276872367698225 29.276872367698225 29.30763596410914 29.30763596410914 29.30763596410914 29.276872367698225 29.30763596410914 29.30763596410914 29.276872367698225 29.30763596410914 29.276872367698225 29.30763596410914 29.276872367698225 29.276872367698225 29.276872367698225 29.276872367698225 29.276872367698225 29.276872367698225 29.276872367698225 29.276872367698225 29.276872367698225 29.276872367698225 29.276872367698225 29.276872367698225 29.276872367698225 29.276872367698225 29.276872367698225 29.276872367698225 29.276872367698225 29.276872367698225 29.276872367698225 29.276872367698225 29.276872367698225 29.276872367698225 29.276872367698225 29.276872367698225 29.276872367698225 29.276872367698225 29.276872367698225 29.276872367698225 29.276872367698225 29.276872367698225 29.276872367698225 29.276872367698225 29.276872367698225 29.276872367698225 29.276872367698225 29.276872367698225 29.276872367698225 29.276872367698225 29.276872367698225 29.276872367698225 29.276872367698225 29.276872367698225 29.276872367698225 29.24610877128731 29.24610877128731 29.24610877128731 29.24610877128731 29.24610877128731 29.24610877128731 29.24610877128731 29.24610877128731 29.215345174876397 29.24610877128731 29.24610877128731 29.215345174876397 29.215345174876397 29.215345174876397 29.215345174876397 29.215345174876397 29.184581578465483 29.184581578465483 29.184581578465483 29.184581578465483 29.184581578465483 29.184581578465483 29.184581578465483 29.184581578465483 29.15381798205457 29.184581578465483 29.184581578465483 29.184581578465483 29.184581578465483 29.184581578465483 29.184581578465483 29.15381798205457 29.15381798205457 29.15381798205457 29.15381798205457 29.15381798205457 29.15381798205457 29.15381798205457 29.123054385643655 29.123054385643655 29.123054385643655 29.123054385643655 29.123054385643655 29.123054385643655 29.123054385643655 29.123054385643655 29.123054385643655 29.09229078923274 29.09229078923274 29.09229078923274 29.09229078923274 29.09229078923274 29.09229078923274 29.09229078923274 29.061527192821828 29.061527192821828 29.061527192821828 29.061527192821828 29.061527192821828 29.061527192821828 29.061527192821828 29.061527192821828 29.061527192821828 29.061527192821828 29.030763596410914 29.061527192821828 29.030763596410914 29.030763596410914 29.061527192821828 29.030763596410914 29.061527192821828 29.030763596410914 29.061527192821828 29.061527192821828 29.030763596410914 29.030763596410914 29.030763596410914 29.061527192821828 29.030763596410914 29.030763596410914 29.030763596410914 29.030763596410914 29.030763596410914 29.030763596410914 29.030763596410914 29.030763596410914 29.030763596410914 29.030763596410914 29.030763596410914 29.030763596410914 29.030763596410914 29.030763596410914 29.030763596410914 29.030763596410914 29.030763596410914 29.030763596410914 29.030763596410914 29.030763596410914 29.030763596410914 29.030763596410914 29.030763596410914 29.030763596410914 29.030763596410914 29.030763596410914 29.030763596410914 29.030763596410914 29.030763596410914 29.030763596410914 29.030763596410914 29.030763596410914 29.030763596410914 29.030763596410914 29.030763596410914 29.030763596410914 29.030763596410914 29.030763596410914 29.030763596410914 29.0 29.030763596410914 29.030763596410914 29.030763596410914 29.030763596410914 29.030763596410914 29.030763596410914 29.0 29.030763596410914 29.030763596410914 29.0 29.030763596410914 29.030763596410914 29.030763596410914 29.0 29.030763596410914 29.030763596410914 29.030763596410914 29.0 29.030763596410914 29.030763596410914 29.0 29.030763596410914 29.030763596410914 29.030763596410914 29.030763596410914 29.030763596410914 29.0 29.030763596410914 29.030763596410914 29.0 29.030763596410914 29.030763596410914 29.0 29.0 29.030763596410914 29.030763596410914 29.030763596410914 29.0 29.030763596410914 29.030763596410914 29.0 29.030763596410914 29.030763596410914 29.0 29.030763596410914 29.0 29.030763596410914 29.0 29.0 29.030763596410914 29.030763596410914 29.030763596410914 29.030763596410914 29.0 29.030763596410914 29.030763596410914 29.030763596410914 29.030763596410914 29.030763596410914 29.030763596410914 29.0 29.030763596410914 29.0 29.030763596410914 29.030763596410914 29.0 29.030763596410914 29.0 29.0 29.0 29.0 29.0 29.030763596410914 29.030763596410914 29.030763596410914 29.030763596410914 29.0 29.030763596410914 29.030763596410914 29.030763596410914 29.030763596410914 29.030763596410914 29.030763596410914 29.030763596410914 29.030763596410914 29.0 29.030763596410914 29.0 29.0 29.030763596410914 29.030763596410914 29.030763596410914 29.030763596410914 29.0 29.0 29.0 29.030763596410914 29.0 29.030763596410914 29.030763596410914 29.030763596410914 29.0 29.0 29.030763596410914 29.030763596410914 29.030763596410914 29.0 29.030763596410914 29.0 29.0 29.0 29.030763596410914 29.030763596410914 29.0 29.0 29.0 29.030763596410914 29.0 29.0 29.0 29.0 29.0 29.0 29.0 29.0 29.030763596410914 29.0 29.0 29.030763596410914 29.030763596410914 29.030763596410914 29.030763596410914 29.0 29.0 29.0 29.030763596410914 29.0 29.0 29.030763596410914 29.030763596410914 29.0 29.0 29.030763596410914 29.0 29.030763596410914 29.030763596410914 29.0 29.030763596410914 29.030763596410914 29.0 29.030763596410914 29.030763596410914 29.0 29.0 29.030763596410914 29.0 29.0 29.0 29.0 29.0 29.0 29.030763596410914 29.0 29.0 29.0 29.030763596410914 29.030763596410914 29.0 29.030763596410914 29.030763596410914 29.030763596410914 29.0 29.030763596410914 29.030763596410914 29.0 29.030763596410914 29.0 29.0 29.0 29.0 29.0 29.0 29.030763596410914 29.0 29.030763596410914 29.030763596410914 29.030763596410914 29.030763596410914 29.0 29.030763596410914 29.0 29.0 29.0 29.0 29.030763596410914 29.030763596410914 29.030763596410914 29.0 29.030763596410914 29.030763596410914 29.0 29.0 29.030763596410914 29.0 29.0 29.0 29.030763596410914 29.030763596410914 29.030763596410914 29.0 29.0 29.030763596410914 29.0 29.0 29.030763596410914 29.0 29.0 29.0 29.0 29.0 29.030763596410914 29.0 29.030763596410914 29.0 29.0 29.0 29.030763596410914 29.030763596410914 29.030763596410914 29.0 29.0 29.0 29.0 29.0 29.0 29.0 29.030763596410914 29.030763596410914 29.0 29.0 29.030763596410914 29.0 29.030763596410914 29.030763596410914 29.0 29.0 29.0 29.030763596410914 29.0 29.0 29.030763596410914 29.030763596410914 29.0 29.030763596410914 29.030763596410914 29.0 29.0 29.030763596410914 29.030763596410914 29.0 29.030763596410914 29.0 29.030763596410914 29.0 29.0 29.0 29.0 29.0 29.0 29.0 29.0 29.030763596410914 29.0 29.0 29.0 29.0 29.0 29.0 29.0 29.030763596410914 29.030763596410914 29.0 29.0 29.0 29.030763596410914 29.0 29.0 29.0 29.030763596410914 29.030763596410914 29.0 29.0 29.0 29.0 29.0 29.0 29.0 29.0 29.0 29.0 29.0 29.0 29.030763596410914 29.0 29.0 29.0 29.0 29.0 29.0 29.030763596410914 29.0 29.0 29.030763596410914 29.0 29.030763596410914 29.0 29.030763596410914 29.0 29.0 29.0 29.0 29.030763596410914 29.0 29.0 29.0 29.0 29.0 29.0 29.0 29.030763596410914 29.030763596410914 29.030763596410914 29.0 29.0 29.0 29.030763596410914 29.0 29.030763596410914 29.0 29.0 29.030763596410914 29.030763596410914 29.0 29.030763596410914 29.0 29.030763596410914 29.0 29.0 29.030763596410914 29.030763596410914 29.061527192821828 29.09229078923274 29.123054385643655 29.15381798205457 29.15381798205457 29.184581578465483 29.184581578465483 29.215345174876397 29.215345174876397 29.24610877128731 29.24610877128731 29.276872367698225 29.30763596410914 29.338399560520052 29.338399560520052 29.369163156930966 29.39992675334188 29.430690349752794 29.461453946163708 29.49221754257462 29.522981138985532 29.553744735396446 29.58450833180736 29.58450833180736 29.615271928218274 29.646035524629188 29.707562717451015 29.799853506683757 29.922907892327412 30.015198681560154 30.07672587438198 30.107489470792896 30.169016663614723 30.23054385643655 30.353598242080206 30.415125434902034 30.47665262772386 30.5689434169566 30.66123420618934 30.72276139901117 30.81505218824391 30.907342977476652 30.999633766709394 31.06116095953122 31.153451748763963 31.245742537996705 31.338033327229446 31.461087712873102 31.584142098516754 31.64566929133858 31.737960080571323 31.830250869804065 31.95330525544772 32.04559604468046 32.04559604468046 32.07635964109137 32.168650430324114 32.23017762314594 32.260941219556855 32.260941219556855 32.32246841237868 32.44552279802234 32.568577183665994 32.69163156930965 32.87621314777513 33.0300311298297 33.2453763047061 33.522248672404324 33.73759384728072 34.01446621497894 34.383629371909905 34.75279252884087 34.99890130012818 35.27577366782641 35.64493682475737 36.044863578099246 36.352499542208385 36.93700787401575 37.24464383812489 37.70609778428859 38.013733748397726 38.321369712506865 38.75206006225966 39.33656839406702 39.61344076176525 40.07489470792895 40.38253067203809 40.81322102179088 41.27467496795458 41.61307452847464 42.07452847463834 42.566746017212964 42.905145577733016 43.39736312030763 43.85881706647134 44.474088994689616 44.81248855520967 45.181651712140635 45.76616004394799 46.2276139901117 46.750595129097235 47.45815784654825 47.82732100347921 48.28877494964292 48.565647317341146 48.9040468778612 49.55008240249039 49.888481963010435 50.31917231276323 50.74986266251602 51.08826222303607 51.488188976377955 51.949642922541656 52.257278886650795 52.65720563999267 52.9340780076909 53.364768357443694 53.79545870719648 54.13385826771653 54.47225782823658 54.81065738875664 55.11829335286578 55.51822010620765 55.76432887749496 56.225782823658676 56.56418238417872 56.841054751876946 57.302508698040654 57.57938106573887 57.8562534334371 58.40999816883354 58.68687053653177 59.117560886284565 59.54825123603735 59.85588720014648 60.22505035707745 60.62497711041934 61.055667460172124 61.36330342428126 61.6709393883904 62.07086614173228 62.44002929866325 62.83995605200513 63.08606482329243 63.60904596227797 63.824391137154365 64.1320271012635 64.37813587255081 64.90111701153634 65.33180736128914 65.63944332539828 66.10089727156199 66.5931148141366 66.90075077824574 67.42373191723127 67.76213147775132 68.43893059879143 68.74656656290057 69.11572971983153 69.60794726240616 70.13092840139169 70.53085515473356 70.93078190807545 71.2999450650064 71.79216260758102 72.28438015015564 72.77659769273026 73.20728804248306 73.57645119941402 73.88408716352316 74.22248672404322 74.49935909174144 75.05310382713789 75.42226698406884 75.66837575535615 76.00677531587621 76.2221204907526 76.43746566562899 76.80662882255997 76.99121040102546 77.23731917231275 77.51419154001098 77.69877311847647 77.97564548617468 78.16022706464017 78.46786302874932 78.62168101080388 78.77549899285845 79.02160776414576 79.20618934261125 79.36000732466582 79.5753524995422 79.72917048159677 79.82146127082952 79.88298846365134 79.94451565647316 80.0368064457059 80.12909723493865 80.19062442776048 80.25215162058231 80.28291521699322 80.31367881340414 80.37520600622597 80.40596960263687 80.4674967954587 80.55978758469143 80.65207837392418 80.74436916315693 80.80589635597875 80.95971433803334 81.1135323200879 81.20582310932063 81.35964109137521 81.51345907342977 81.63651345907343 81.75956784471708 81.94414942318257 82.0364402124153 82.09796740523714 82.15949459805896 82.22102179088078 82.22102179088078 82.22102179088078 82.22102179088078 82.22102179088078 82.22102179088078 82.22102179088078 82.22102179088078 82.22102179088078 82.22102179088078 82.22102179088078 82.19025819446988 82.19025819446988 82.19025819446988 82.19025819446988 82.19025819446988 82.19025819446988 82.19025819446988 82.19025819446988 82.19025819446988 82.19025819446988 82.19025819446988 82.19025819446988 82.19025819446988 82.19025819446988 82.19025819446988 82.19025819446988 82.19025819446988 82.19025819446988 82.19025819446988 82.19025819446988 82.19025819446988 82.19025819446988 82.19025819446988 82.19025819446988 82.19025819446988 82.19025819446988 82.19025819446988 82.19025819446988 82.19025819446988 82.19025819446988 82.19025819446988 82.19025819446988 82.19025819446988 82.19025819446988 82.19025819446988 82.19025819446988 82.15949459805896 82.15949459805896 82.15949459805896 82.12873100164805 82.09796740523714 82.09796740523714 82.06720380882622 82.0364402124153 82.0364402124153 82.0056766160044 82.0056766160044 81.97491301959349 81.97491301959349 81.94414942318257 81.97491301959349 81.94414942318257 81.94414942318257 81.97491301959349 81.94414942318257 81.94414942318257 81.94414942318257 81.94414942318257 81.94414942318257 81.91338582677164 81.91338582677164 81.91338582677164 81.91338582677164 81.88262223036074 81.88262223036074 81.91338582677164 81.88262223036074 81.88262223036074 81.91338582677164 81.88262223036074 81.88262223036074 81.88262223036074 81.88262223036074 81.88262223036074 81.88262223036074 81.88262223036074 81.85185863394983 81.85185863394983 81.79033144112799 81.75956784471708 81.75956784471708 81.72880424830618 81.72880424830618 81.72880424830618 81.69804065189524 81.72880424830618 81.69804065189524 81.69804065189524 81.69804065189524 81.69804065189524 81.66727705548433 81.66727705548433 81.66727705548433 81.66727705548433 81.66727705548433 81.66727705548433 81.63651345907343 81.66727705548433 81.63651345907343 81.63651345907343 81.63651345907343 81.63651345907343 81.63651345907343 81.63651345907343 81.63651345907343 81.63651345907343 81.63651345907343 81.63651345907343 81.6057498626625 81.5749862662516 81.54422266984068 81.51345907342977 81.51345907342977 81.48269547701886 81.48269547701886 81.48269547701886 81.48269547701886 81.48269547701886 81.48269547701886 81.48269547701886 81.48269547701886 81.48269547701886 81.48269547701886 81.48269547701886 81.48269547701886 81.48269547701886 81.48269547701886 81.48269547701886 81.48269547701886 81.48269547701886 81.48269547701886 81.48269547701886 81.48269547701886 81.45193188060794 81.45193188060794 81.45193188060794 81.45193188060794 81.45193188060794 81.45193188060794 81.45193188060794 81.45193188060794 81.45193188060794 81.45193188060794 81.45193188060794 81.45193188060794 81.45193188060794 81.45193188060794 81.45193188060794 81.42116828419702 81.45193188060794 81.45193188060794 81.45193188060794 81.45193188060794 81.45193188060794 81.45193188060794 81.45193188060794 81.42116828419702 81.45193188060794 81.42116828419702 81.42116828419702 81.42116828419702 81.39040468778612 81.35964109137521 81.35964109137521 81.35964109137521 81.35964109137521 81.35964109137521 81.32887749496429 81.32887749496429 81.32887749496429 81.32887749496429 81.32887749496429 81.35964109137521 81.32887749496429 81.35964109137521 81.35964109137521 81.32887749496429 81.35964109137521 81.32887749496429 81.32887749496429 81.32887749496429 81.32887749496429 81.32887749496429 81.29811389855337 81.29811389855337 81.29811389855337 81.26735030214246 81.26735030214246 81.23658670573155 81.23658670573155 81.23658670573155 81.20582310932063 81.20582310932063 81.20582310932063 81.17505951290971 81.17505951290971 81.17505951290971 81.17505951290971 81.1442959164988 81.17505951290971 81.1442959164988 81.1442959164988 81.17505951290971 81.1442959164988 81.17505951290971 81.1442959164988 81.1442959164988 81.1442959164988 81.1442959164988 81.1442959164988 81.1442959164988 81.1442959164988 81.1442959164988 81.1442959164988 81.17505951290971 81.1442959164988 81.1442959164988 81.1442959164988 81.1442959164988 81.1442959164988 81.1442959164988 81.1442959164988 81.1442959164988 81.1135323200879 81.08276872367698 81.05200512726607 81.02124153085515 81.02124153085515 80.95971433803334 80.9289507416224 80.9289507416224 80.9289507416224 80.8981871452115 80.83665995238968 80.77513275956784 80.68284197033509 80.62131477751328 80.59055118110236 80.52902398828053 80.49826039186962 80.4674967954587 80.40596960263687 80.37520600622597 80.31367881340414 80.25215162058231 80.25215162058231 80.25215162058231 80.25215162058231 80.2213880241714 80.2213880241714 80.19062442776048 80.12909723493865 80.09833363852775 80.06757004211681 80.006042849295 79.97527925288409 79.94451565647316 79.91375206006225 79.88298846365134 79.85222486724042 79.85222486724042 79.82146127082952 79.7906976744186 79.72917048159677 79.66764328877494 79.5753524995422 79.45229811389855 79.36000732466582 79.23695293902216 79.0831349569676 78.8677897820912 78.68320820362571 78.56015381798206 78.37557223951657 78.22175425746201 77.91411829335286 77.7910639077092 77.57571873283281 77.39113715436733 77.14502838308002 77.05273759384727 76.83739241897088 76.68357443691632 76.43746566562899 76.16059329793077 75.91448452664346 75.63761215894525 75.36073979124703 75.26844900201428 74.89928584508331 74.68394067020691 74.37630470609778 74.06866874198865 73.88408716352316 73.57645119941402 73.36110602453763 73.02270646401757 72.68430690349753 72.43819813221022 72.06903497527925 71.7306354147592 71.4845266434719 71.05383629371909 70.74620032960996 70.31550997985717 69.9463468229262 69.63871085881706 69.11572971983153 68.71580296648965 68.43893059879143 68.00824024903864 67.7006042849295 67.45449551364219 67.05456876030031 66.83922358542392 66.5931148141366 66.28547885002746 66.10089727156199 65.82402490386376 65.63944332539828 65.36257095770006 65.11646218641275 64.93188060794725 64.65500824024903 64.37813587255081 64.1012635048526 63.824391137154365 63.60904596227797 63.239882805347 62.96301043764878 62.74766526277239 62.44002929866325 61.947811756088626 61.701702984801315 61.42483061710309 61.14795824940487 60.71726789965207 60.28657754989928 59.978941585790146 59.54825123603735 59.117560886284565 58.809924922175426 58.37923457242263 57.88701702984801 57.48709027650613 57.179454312397 56.87181834828786 56.47189159494598 56.0719648416041 55.67203808826222 55.27211133492034 55.026002563633035 54.626075810291155 54.379967039003844 54.10309467130563 53.70316791796374 53.33400476103277 52.96484160410181 52.59567844717085 52.34956967588353 51.98040651895257 51.61124336202161 51.242080205090645 50.96520783739241 50.688335469694195 50.2576451199414 49.82695477018861 49.51931880607947 48.93481047427211 48.62717451016297 48.38106573887566 47.95037538912287 47.67350302142465 47.24281267167186 46.750595129097235 46.504486357809924 46.196850393700785 45.950741622413474 45.76616004394799 45.36623329060612 45.181651712140635 44.935542940853324 44.68943416956601 44.50485259110053 44.227980223402305 43.95110785570408 43.73576268082768 43.45889031312946 43.274308734663975 42.966672770554844 42.62827321003479 42.38216443874748 42.07452847463834 41.64383812488555 41.42849295000916 41.15162058231093 40.90551181102362 40.413294268449 40.10565830433986 39.76725874381981 39.39809558688884 39.0596960263688 38.78282365867057 38.50595129097235 38.29060611609595 38.075260941219554 37.82915216993224 37.67533418787768 37.459989013001284 37.24464383812489 37.09082585607032 36.93700787401575 36.78318989196118 36.56784471708478 36.41402673503021 36.22944515656473 36.1679179637429 36.044863578099246 35.952572788866505 35.79875480681194 35.737227613990115 35.52188243911371 35.39882805347006 35.30653726423732 35.183482878593665 35.09119208936092 34.99890130012818 34.84508331807361 34.72202893242996 34.5989745467863 34.475920161142646 34.383629371909905 34.29133858267716 34.229811389855335 34.137520600622594 34.075993407800766 34.04522981138985 34.01446621497894 33.95293902215711 33.922175425746204 33.922175425746204 33.89141182933528 33.89141182933528 33.89141182933528 33.89141182933528 33.860648232924376 33.829884636513455 33.829884636513455 33.79912104010255 33.76835744369163 33.73759384728072 33.67606665445889 33.614539461637065 33.55301226881524 33.460721479582496 33.42995788317158 33.33766709393884 33.214612708295185 33.12232191906244 33.0300311298297 32.968503937007874 32.87621314777513 32.78392235854239 32.660867972898735 32.59934078007691 32.568577183665994 32.53781358725508 32.507049990844166 32.47628639443325 32.47628639443325 32.414759201611425 32.38399560520051 32.3532320087896 32.32246841237868 32.29170481596777 32.23017762314594 32.19941402673503 32.1378868339132 32.107123237502286 32.107123237502286 32.04559604468046 32.04559604468046 31.95330525544772 31.922541659036806 31.86101446621498 31.737960080571323 31.64566929133858 31.491851309284012 31.338033327229446 31.153451748763963 30.96887017029848 30.845815784654825 30.72276139901117 30.5689434169566 30.538179820545686 30.538179820545686 30.538179820545686 30.538179820545686 30.507416224134772 30.47665262772386 30.47665262772386 30.47665262772386 30.445889031312948 30.445889031312948 30.415125434902034 30.415125434902034 30.415125434902034 30.415125434902034 30.38436183849112 30.38436183849112 30.38436183849112 30.353598242080206 30.38436183849112 30.38436183849112 30.38436183849112 30.353598242080206 30.353598242080206 30.322834645669293 30.322834645669293 30.29207104925838 30.261307452847465 30.23054385643655 30.199780260025637 30.169016663614723 30.169016663614723 30.13825306720381 30.13825306720381 30.13825306720381 30.13825306720381 30.13825306720381 30.107489470792896 30.107489470792896 30.107489470792896 30.107489470792896 30.107489470792896 30.07672587438198 30.107489470792896 30.07672587438198 30.07672587438198 30.07672587438198 30.07672587438198 30.07672587438198 30.045962277971068 30.045962277971068 30.045962277971068 30.045962277971068 30.015198681560154 29.98443508514924 29.98443508514924 29.98443508514924 29.953671488738326 29.98443508514924 29.953671488738326 29.953671488738326 29.953671488738326 29.953671488738326 29.953671488738326 29.953671488738326 29.953671488738326 29.953671488738326 29.953671488738326 29.922907892327412 29.922907892327412 29.8921442959165 29.861380699505585 29.861380699505585 29.83061710309467 29.799853506683757 29.799853506683757 29.769089910272843 29.73832631386193 29.707562717451015 29.6767991210401 29.6767991210401 29.646035524629188 29.646035524629188 29.646035524629188 29.646035524629188 29.646035524629188 29.615271928218274 29.646035524629188 29.646035524629188 29.615271928218274 29.615271928218274 29.615271928218274 29.615271928218274 29.615271928218274 29.615271928218274 29.615271928218274 29.615271928218274 29.615271928218274 29.615271928218274 29.615271928218274 29.615271928218274 29.615271928218274 29.615271928218274 29.615271928218274 29.615271928218274 29.615271928218274 29.615271928218274 29.58450833180736 29.58450833180736 29.615271928218274 29.58450833180736 29.58450833180736 29.58450833180736 29.58450833180736 29.58450833180736 29.58450833180736 29.58450833180736 29.58450833180736 29.58450833180736 29.58450833180736 29.58450833180736 29.58450833180736 29.58450833180736 29.58450833180736 29.58450833180736 29.58450833180736 29.58450833180736 29.58450833180736 29.58450833180736 29.58450833180736 29.58450833180736 29.58450833180736 29.58450833180736 29.58450833180736 29.58450833180736 29.58450833180736 29.58450833180736 29.58450833180736 29.553744735396446 29.58450833180736 29.58450833180736 29.58450833180736 29.58450833180736 29.58450833180736 29.553744735396446 29.58450833180736 29.58450833180736 29.58450833180736 29.58450833180736 29.58450833180736 29.58450833180736 29.58450833180736 29.58450833180736 29.58450833180736 29.553744735396446 29.553744735396446 29.553744735396446 29.58450833180736 29.553744735396446 29.553744735396446 29.553744735396446 29.58450833180736 29.553744735396446 29.553744735396446 29.58450833180736 29.553744735396446 29.553744735396446 29.553744735396446 29.553744735396446 29.58450833180736 29.58450833180736 29.553744735396446 29.553744735396446 29.553744735396446 29.553744735396446 29.553744735396446 29.553744735396446 29.553744735396446 29.553744735396446 29.553744735396446 29.553744735396446 29.553744735396446 29.553744735396446 29.553744735396446 29.553744735396446 29.553744735396446 29.553744735396446 29.553744735396446 29.553744735396446 29.553744735396446 29.553744735396446 29.553744735396446 29.553744735396446 29.553744735396446 29.553744735396446 29.553744735396446 29.553744735396446 29.553744735396446 29.553744735396446 29.553744735396446 29.553744735396446 29.553744735396446 29.553744735396446 29.553744735396446 29.553744735396446 29.553744735396446 29.553744735396446 29.553744735396446 29.553744735396446 29.553744735396446 29.553744735396446 29.553744735396446 29.553744735396446 29.553744735396446 29.553744735396446 29.553744735396446 29.553744735396446 29.553744735396446 29.553744735396446 29.553744735396446 29.553744735396446 29.553744735396446 29.553744735396446 29.553744735396446 29.553744735396446 29.553744735396446 29.553744735396446 29.553744735396446 29.553744735396446 29.553744735396446 29.553744735396446 29.553744735396446 29.553744735396446 29.553744735396446 29.553744735396446 29.553744735396446 29.553744735396446 29.553744735396446 29.553744735396446 29.553744735396446 29.553744735396446 29.553744735396446 29.553744735396446 29.553744735396446 29.553744735396446 29.553744735396446 29.553744735396446 29.553744735396446 29.553744735396446 29.553744735396446 29.553744735396446 29.553744735396446 29.553744735396446 29.553744735396446 29.553744735396446 29.553744735396446 29.553744735396446 29.553744735396446 29.553744735396446 29.553744735396446 29.553744735396446 29.553744735396446 29.553744735396446 29.553744735396446 29.553744735396446 29.553744735396446 29.553744735396446 29.553744735396446 29.553744735396446 29.553744735396446 29.553744735396446 29.553744735396446 29.553744735396446 29.553744735396446 29.553744735396446 29.553744735396446 29.553744735396446 29.553744735396446 29.553744735396446 29.553744735396446 29.553744735396446 29.553744735396446 29.553744735396446 29.553744735396446 29.553744735396446 29.553744735396446 29.553744735396446 29.553744735396446 29.553744735396446 29.553744735396446 29.553744735396446 29.553744735396446 29.553744735396446 29.553744735396446 29.553744735396446 29.553744735396446 29.553744735396446 29.553744735396446 29.553744735396446 29.553744735396446 29.553744735396446 29.553744735396446 29.553744735396446 29.553744735396446 29.553744735396446 29.553744735396446 29.553744735396446 29.553744735396446 29.553744735396446 29.553744735396446 29.553744735396446 29.522981138985532 29.553744735396446 29.553744735396446 29.553744735396446 29.553744735396446 29.553744735396446 29.553744735396446 29.553744735396446 29.522981138985532 29.553744735396446 29.553744735396446 29.553744735396446 29.553744735396446 29.553744735396446 29.553744735396446 29.553744735396446 29.553744735396446 29.553744735396446 29.553744735396446 29.553744735396446 29.553744735396446 29.553744735396446 29.553744735396446 29.553744735396446 29.553744735396446 29.553744735396446 29.553744735396446 29.553744735396446 29.553744735396446 29.553744735396446 29.553744735396446 29.553744735396446 29.553744735396446 29.553744735396446 29.553744735396446 29.553744735396446 29.553744735396446 29.553744735396446 29.553744735396446 29.553744735396446 29.553744735396446 29.553744735396446 29.522981138985532 29.553744735396446 29.553744735396446 29.553744735396446 29.553744735396446 29.553744735396446 29.553744735396446 29.553744735396446 29.553744735396446 29.553744735396446 29.553744735396446 29.553744735396446 29.553744735396446 29.553744735396446 29.553744735396446 29.553744735396446 29.553744735396446 29.553744735396446 29.553744735396446 29.553744735396446 29.553744735396446 29.553744735396446 29.553744735396446 29.553744735396446 29.522981138985532 29.553744735396446 29.553744735396446 29.553744735396446 29.553744735396446 29.553744735396446 29.553744735396446 29.553744735396446 29.522981138985532 29.553744735396446 29.522981138985532 29.553744735396446 29.553744735396446 29.553744735396446 29.553744735396446 29.553744735396446 29.553744735396446 29.553744735396446 29.522981138985532 29.553744735396446 29.553744735396446 29.553744735396446 29.553744735396446 29.553744735396446 29.553744735396446 29.553744735396446 29.553744735396446 29.553744735396446 29.553744735396446 29.553744735396446 29.553744735396446 29.522981138985532 29.553744735396446 29.522981138985532 29.522981138985532 29.522981138985532 29.553744735396446 29.522981138985532 29.553744735396446 29.522981138985532 29.522981138985532 29.522981138985532 29.522981138985532 29.522981138985532 29.522981138985532 29.522981138985532 29.522981138985532 29.522981138985532 29.522981138985532 29.522981138985532 29.522981138985532 29.522981138985532 29.49221754257462 29.522981138985532 29.522981138985532 29.49221754257462 29.49221754257462 29.522981138985532 29.49221754257462 29.49221754257462 29.49221754257462 29.49221754257462 29.49221754257462 29.49221754257462 29.49221754257462 29.49221754257462 29.49221754257462 29.49221754257462 29.49221754257462 29.49221754257462 29.49221754257462 29.49221754257462 29.49221754257462 29.49221754257462 29.49221754257462 29.49221754257462 29.49221754257462 29.49221754257462 29.49221754257462 29.49221754257462 29.49221754257462 29.49221754257462 29.49221754257462 29.49221754257462 29.49221754257462 29.49221754257462 29.49221754257462 29.49221754257462 29.49221754257462 29.49221754257462 29.49221754257462 29.49221754257462 29.49221754257462 29.49221754257462 29.49221754257462 29.49221754257462 29.49221754257462 29.49221754257462 29.49221754257462 29.49221754257462 29.49221754257462 29.49221754257462 29.49221754257462 29.49221754257462 29.49221754257462 29.49221754257462 29.49221754257462 29.49221754257462 29.49221754257462 29.49221754257462 29.49221754257462 29.49221754257462 29.49221754257462 29.49221754257462 29.49221754257462 29.49221754257462 29.49221754257462 29.49221754257462 29.49221754257462 29.49221754257462 29.49221754257462 29.49221754257462 29.49221754257462 29.49221754257462 29.49221754257462 29.49221754257462 29.49221754257462 29.49221754257462 29.49221754257462 29.49221754257462 29.49221754257462 29.49221754257462 29.49221754257462 29.49221754257462 29.49221754257462 29.49221754257462 29.49221754257462 29.49221754257462 29.49221754257462 29.49221754257462 29.49221754257462 29.49221754257462 29.49221754257462 29.49221754257462 29.49221754257462 29.49221754257462 29.49221754257462 29.49221754257462 29.49221754257462 29.49221754257462 29.49221754257462 29.49221754257462 29.49221754257462 29.49221754257462 29.49221754257462 29.49221754257462 29.49221754257462 29.49221754257462 29.49221754257462 29.49221754257462 29.49221754257462 29.49221754257462 29.49221754257462 29.49221754257462 29.49221754257462 29.49221754257462 29.49221754257462 29.49221754257462 29.49221754257462 29.49221754257462 29.49221754257462 29.49221754257462 29.49221754257462 29.49221754257462 29.49221754257462 29.49221754257462 29.49221754257462 29.49221754257462 29.49221754257462 29.49221754257462 29.49221754257462 29.49221754257462 29.49221754257462 29.49221754257462 29.49221754257462 29.49221754257462 29.49221754257462 29.49221754257462 29.49221754257462 29.49221754257462 29.49221754257462 29.49221754257462 29.49221754257462 29.49221754257462 29.49221754257462 29.49221754257462 29.49221754257462 29.49221754257462 29.49221754257462 29.49221754257462 29.49221754257462 29.49221754257462 29.49221754257462 29.49221754257462 29.49221754257462 29.49221754257462 29.49221754257462 29.49221754257462 29.49221754257462 29.49221754257462 29.49221754257462 29.49221754257462 29.49221754257462 29.49221754257462 29.49221754257462 29.49221754257462 29.49221754257462 29.49221754257462 29.49221754257462 29.49221754257462 29.49221754257462 29.49221754257462 29.49221754257462 29.49221754257462 29.49221754257462 29.49221754257462 29.49221754257462 29.49221754257462 29.49221754257462 29.49221754257462 29.49221754257462 29.49221754257462 29.49221754257462 29.49221754257462 29.49221754257462 29.49221754257462 29.49221754257462 29.49221754257462 29.49221754257462 29.49221754257462 29.49221754257462 29.49221754257462 29.49221754257462 29.461453946163708 29.461453946163708 29.461453946163708 29.461453946163708 29.461453946163708 29.461453946163708 29.461453946163708 29.461453946163708 29.461453946163708 29.461453946163708 29.461453946163708 29.461453946163708 29.461453946163708 29.430690349752794 29.430690349752794 29.430690349752794 29.430690349752794 29.430690349752794 29.430690349752794 29.430690349752794 29.430690349752794 29.430690349752794 29.430690349752794 29.430690349752794 29.430690349752794 29.430690349752794 29.430690349752794 29.430690349752794 29.430690349752794 29.430690349752794 29.430690349752794 29.430690349752794 29.430690349752794 29.430690349752794 29.430690349752794 29.430690349752794 29.430690349752794 29.430690349752794 29.430690349752794 29.430690349752794 29.430690349752794 29.430690349752794 29.430690349752794 29.430690349752794 29.430690349752794 29.430690349752794 29.430690349752794 29.430690349752794 29.430690349752794 29.430690349752794 29.430690349752794 29.430690349752794 29.430690349752794 29.430690349752794 29.430690349752794 29.430690349752794 29.430690349752794 29.430690349752794 29.430690349752794 29.430690349752794 29.430690349752794 29.430690349752794 29.430690349752794 29.430690349752794 29.430690349752794 29.430690349752794 29.430690349752794 29.430690349752794 29.430690349752794 29.430690349752794 29.430690349752794 29.430690349752794 29.430690349752794 29.430690349752794 29.430690349752794 29.430690349752794 29.430690349752794 29.430690349752794 29.430690349752794 29.430690349752794 29.430690349752794 29.430690349752794 29.430690349752794 29.430690349752794 29.430690349752794 29.430690349752794 29.430690349752794 29.430690349752794 29.430690349752794 29.430690349752794 29.430690349752794 29.430690349752794 29.430690349752794 29.430690349752794 29.430690349752794 29.430690349752794 29.430690349752794 29.430690349752794 29.430690349752794 29.430690349752794 29.430690349752794 29.430690349752794 29.430690349752794 29.430690349752794 29.430690349752794 29.430690349752794 29.430690349752794 29.430690349752794 29.430690349752794 29.430690349752794 29.430690349752794 29.430690349752794 29.430690349752794 29.430690349752794 29.430690349752794 29.430690349752794 29.430690349752794 29.430690349752794 29.430690349752794 29.430690349752794 29.430690349752794 29.430690349752794 29.430690349752794 29.430690349752794 29.430690349752794 29.430690349752794 29.430690349752794 29.430690349752794 29.430690349752794 29.430690349752794 29.430690349752794 29.430690349752794 29.430690349752794 29.430690349752794 29.430690349752794 29.430690349752794 29.430690349752794 29.430690349752794 29.430690349752794 29.430690349752794 29.430690349752794 29.430690349752794 29.430690349752794 29.430690349752794 29.430690349752794 29.430690349752794 29.430690349752794 29.430690349752794 29.430690349752794 29.430690349752794 29.430690349752794 29.430690349752794 29.430690349752794 29.430690349752794 29.430690349752794 29.430690349752794 29.430690349752794 29.461453946163708 29.49221754257462 29.522981138985532 29.522981138985532 29.553744735396446 29.553744735396446 29.553744735396446 29.553744735396446 29.553744735396446 29.58450833180736 29.58450833180736 29.58450833180736 29.615271928218274 29.615271928218274 29.6767991210401 29.707562717451015 29.707562717451015 29.707562717451015 29.73832631386193 29.769089910272843 29.799853506683757 29.83061710309467 29.8921442959165 29.922907892327412 29.98443508514924 30.045962277971068 30.169016663614723 30.261307452847465 30.29207104925838 30.322834645669293 30.353598242080206 30.38436183849112 30.445889031312948 30.445889031312948 30.538179820545686 30.5689434169566 30.630470609778428 30.72276139901117 30.845815784654825 30.907342977476652 31.030397363120308 31.153451748763963 31.307269730818533 31.36879692364036 31.491851309284012 31.676432887749495 31.86101446621498 31.922541659036806 31.95330525544772 31.984068851858634 32.107123237502286 32.29170481596777 32.414759201611425 32.44552279802234 32.69163156930965 32.87621314777513 33.18384911188427 33.42995788317158 33.7068302508698 34.01446621497894 34.26057498626625 34.56821095037539 34.84508331807361 35.27577366782641 35.76799121040103 35.82951840322285 36.29097234938656 36.53708112067387 36.78318989196118 37.306171030946714 37.552279802234025 37.9522065555759 38.35213330891778 38.65976927302692 39.0596960263688 39.5211499725325 39.982603918696206 40.38253067203809 40.75169382896905 41.3054385643655 41.85918329976195 42.44369163156931 43.028199963376665 43.39736312030763 43.828053470060425 44.41256180186779 44.81248855520967 45.5508148690716 46.043032411646216 46.41219556857718 46.84288591832997 47.18128547885003 47.45815784654825 48.04266617835561 48.319538546053835 48.6887017029848 49.05786485991577 49.30397363120308 49.642373191723124 50.042299945065004 50.16535433070866 50.442226698406884 50.62680827687237 50.934444240981506 51.211316608679724 51.488188976377955 51.76506134407617 52.011170115363484 52.16498809741805 52.38033327229445 52.56491485075993 52.87255081486907 53.24171397180004 53.45705914667643 53.79545870719648 54.13385826771653 54.34920344259293 54.65683940670207 54.90294817798937 55.30287493133125 55.641274491851306 55.88738326313862 56.25654642006958 56.502655191356894 57.117927119575164 57.33327229445156 57.57938106573887 57.94854422266984 58.28694378318989 58.533052554477194 58.96374290422999 59.24061527192821 59.45596044680461 59.82512360373558 59.94817798937923 60.34810474272111 60.594213514008416 60.84032228529573 61.14795824940487 61.36330342428126 61.547885002746746 61.91704815967771 62.101629738143195 62.37850210584142 62.65537447353964 62.870719648416035 63.14759201611426 63.36293719099066 63.63980955868888 63.978209119208934 64.22431789049625 64.5627174510163 64.93188060794725 65.20875297564548 65.60867972898737 65.97784288591834 66.31624244643838 66.56235121772569 66.80845998901299 67.2391503387658 67.57754989928584 67.85442226698407 68.19282182750412 68.43893059879143 68.8080937557224 69.14649331624244 69.39260208752975 69.79252884087163 70.19245559421351 70.46932796191174 71.02307269730818 71.2999450650064 71.7306354147592 72.00750778245742 72.31514374656656 72.77659769273026 73.36110602453763 73.66874198864676 74.09943233839957 74.56088628456325 74.8377586522615 75.11463101995972 75.39150338765793 75.94524812305438 76.2221204907526 76.62204724409449 77.02197399743636 77.36037355795642 77.66800952206555 78.0064090825856 78.25251785387292 78.59091741439296 78.8985533785021 79.17542574620032 79.48306171030947 79.7906976744186 80.09833363852775 80.28291521699322 80.4367331990478 80.65207837392418 80.77513275956784 80.99047793444424 81.17505951290971 81.20582310932063 81.32887749496429 81.39040468778612 81.45193188060794 81.51345907342977 81.6057498626625 81.66727705548433 81.72880424830618 81.75956784471708 81.79033144112799 81.8210950375389 81.85185863394983 81.88262223036074 81.88262223036074 81.88262223036074 81.88262223036074 81.88262223036074 81.88262223036074 81.88262223036074 81.91338582677164 81.91338582677164 81.88262223036074 81.88262223036074 81.88262223036074 81.91338582677164 81.88262223036074 81.88262223036074 81.88262223036074 81.88262223036074 81.88262223036074 81.88262223036074 81.88262223036074 81.88262223036074 81.88262223036074 81.88262223036074 81.88262223036074 81.88262223036074 81.88262223036074 81.88262223036074 81.88262223036074 81.88262223036074 81.88262223036074 81.88262223036074 81.88262223036074 81.88262223036074 81.88262223036074 81.88262223036074 81.88262223036074 81.88262223036074 81.88262223036074 81.85185863394983 81.85185863394983 81.85185863394983 81.85185863394983 81.8210950375389 81.85185863394983 81.85185863394983 81.8210950375389 81.8210950375389 81.79033144112799 81.75956784471708 81.72880424830618 81.66727705548433 81.6057498626625 81.5749862662516 81.51345907342977 81.48269547701886 81.39040468778612 81.32887749496429 81.29811389855337 81.26735030214246 81.26735030214246 81.26735030214246 81.26735030214246 81.26735030214246 81.26735030214246 81.23658670573155 81.26735030214246 81.26735030214246 81.20582310932063 81.17505951290971 81.1135323200879 81.08276872367698 81.08276872367698 81.05200512726607 81.02124153085515 80.99047793444424 80.95971433803334 80.95971433803334 80.95971433803334 80.95971433803334 80.95971433803334 80.95971433803334 80.95971433803334 80.95971433803334 80.95971433803334 80.95971433803334 80.95971433803334 80.95971433803334 80.95971433803334 80.95971433803334 80.95971433803334 80.95971433803334 80.95971433803334 80.9289507416224 80.9289507416224 80.9289507416224 80.9289507416224 80.8981871452115 80.8981871452115 80.8981871452115 80.86742354880059 80.86742354880059 80.86742354880059 80.83665995238968 80.83665995238968 80.83665995238968 80.80589635597875 80.80589635597875 80.80589635597875 80.80589635597875 80.74436916315693 80.74436916315693 80.71360556674601 80.68284197033509 80.68284197033509 80.65207837392418 80.62131477751328 80.62131477751328 80.62131477751328 80.62131477751328 80.59055118110236 80.59055118110236 80.59055118110236 80.59055118110236 80.59055118110236 80.59055118110236 80.59055118110236 80.59055118110236 80.59055118110236 80.59055118110236 80.59055118110236 80.59055118110236 80.59055118110236 80.59055118110236 80.59055118110236 80.59055118110236 80.59055118110236 80.59055118110236 80.59055118110236 80.59055118110236 80.59055118110236 80.59055118110236 80.59055118110236 80.59055118110236 80.55978758469143 80.49826039186962 80.4674967954587 80.4674967954587 80.4367331990478 80.40596960263687 80.40596960263687 80.40596960263687 80.40596960263687 80.40596960263687 80.40596960263687 80.40596960263687 80.40596960263687 80.37520600622597 80.40596960263687 80.40596960263687 80.40596960263687 80.40596960263687 80.40596960263687 80.37520600622597 80.40596960263687 80.40596960263687 80.37520600622597 80.40596960263687 80.40596960263687 80.40596960263687 80.40596960263687 80.40596960263687 80.40596960263687 80.37520600622597 80.37520600622597 80.37520600622597 80.34444240981506 80.34444240981506 80.34444240981506 80.34444240981506 80.31367881340414 80.31367881340414 80.31367881340414 80.31367881340414 80.31367881340414 80.31367881340414 80.31367881340414 80.31367881340414 80.31367881340414 80.31367881340414 80.31367881340414 80.31367881340414 80.34444240981506 80.31367881340414 80.31367881340414 80.34444240981506 80.31367881340414 80.31367881340414 80.31367881340414 80.31367881340414 80.31367881340414 80.31367881340414 80.31367881340414 80.31367881340414 80.31367881340414 80.28291521699322 80.28291521699322 80.28291521699322 80.28291521699322 80.28291521699322 80.28291521699322 80.25215162058231 80.25215162058231 80.25215162058231 80.28291521699322 80.28291521699322 