29.0 29.0 29.0 29.0 29.0 29.0 29.0 29.0 29.0 29.0 29.0 29.0 29.0 29.0 29.0 29.0 29.0 29.0 29.0 29.0 29.0 29.0 29.0 29.0 29.0 29.0 29.0 29.0 29.0 29.0 29.0 29.0 29.0 29.0 29.0 29.0 29.0 29.0 29.0 29.0 29.0 29.0 29.0 29.0 29.0 29.0 29.0 29.0 29.0 29.0 29.0 29.0 29.0 29.0 29.0 29.0 29.0 29.0 29.0 29.0 29.0 29.0 29.0 29.0 29.0 29.0 29.0 29.0 29.0 29.0 29.0 29.0 29.0 29.0 29.0 29.0 29.0 29.0 29.0 29.0 29.0 29.0 29.0 29.0 29.0 29.0 29.0 29.0 29.0 29.0 29.0 29.0 29.0 29.0 29.0 29.0 29.0 29.0 29.0 29.0 29.0 29.0 29.0 29.0 29.0 29.0 29.0 29.0 29.0 29.0 29.0 29.0 29.0 29.0 29.0 29.0 29.0 29.0 29.0 29.0 29.0 29.0 29.0 29.0 29.0 29.0 29.0 29.0 29.0 29.0 29.0 29.0 29.0 29.0 29.0 29.0 29.0 29.0 29.0 29.0 29.0 29.0 29.0 29.0 29.0 29.0 29.0 29.0 29.0 29.0 29.0 29.0 29.0 29.0 29.0 29.0 29.0 29.0 29.0 29.0 29.0 29.0 29.0 29.0 29.0 29.0 29.0 29.0 29.0 29.0 29.0 29.0 29.0 29.0 29.0 29.0 29.0 29.0 29.0 29.0 29.0 29.0 29.0 29.0 29.0 29.0 29.0 29.0 29.0 29.0 29.0 29.0 29.0 29.0 29.0 29.0 29.0 29.0 29.0 29.0 29.0 29.0 29.0 29.0 29.0 29.0 29.0 29.0 29.0 29.0 29.0 29.0 29.0 29.0 29.0 29.0 29.0 29.0 29.0 29.0 29.0 29.0 29.0 29.0 29.0 29.0 29.0 29.0 29.0 29.0 29.0 29.0 29.0 29.0 29.0 29.0 29.0 29.0 29.0 29.0 29.0 29.0 29.0 29.0 29.0 29.0 29.0 29.0 28.969236403589086 29.0 29.0 29.0 29.0 29.0 29.0 29.0 29.0 29.0 29.0 29.0 29.0 29.0 29.0 29.0 29.0 29.0 29.0 29.0 29.0 29.0 29.0 29.0 29.0 29.0 29.0 29.0 29.0 29.0 29.0 29.0 29.0 29.0 29.0 29.0 29.0 29.0 29.0 29.0 29.0 29.0 29.0 29.0 29.0 29.0 29.0 29.0 29.0 29.0 29.0 28.969236403589086 29.0 29.0 29.0 29.0 29.0 29.0 29.0 29.0 29.0 29.0 29.0 29.0 29.0 29.0 29.0 29.0 29.0 29.0 29.0 28.969236403589086 29.0 29.0 29.0 29.0 29.0 29.0 29.0 29.0 29.0 29.0 29.0 29.0 29.0 29.0 29.0 29.0 29.0 29.0 29.0 29.0 29.0 29.0 29.0 29.0 29.0 29.0 29.0 29.0 29.0 29.0 29.0 29.0 29.0 29.0 29.0 29.0 29.0 29.0 29.0 29.0 29.0 29.0 29.0 29.0 29.0 29.0 29.0 29.0 29.0 29.0 29.0 29.0 29.0 29.0 29.0 29.0 29.0 29.0 29.0 29.0 29.0 28.969236403589086 29.0 29.0 29.0 29.0 29.0 29.0 29.0 29.0 29.0 29.0 29.0 29.0 29.0 29.0 29.0 29.0 29.0 29.0 29.0 29.0 29.0 29.0 29.0 29.0 29.0 29.0 29.0 29.0 29.0 29.0 29.0 29.0 29.0 29.0 29.0 29.0 29.0 29.0 29.0 29.0 29.0 29.0 28.969236403589086 29.0 29.0 29.0 29.0 29.0 29.0 29.0 29.0 29.0 29.0 29.0 29.0 29.0 29.0 29.0 29.0 29.0 29.0 29.0 29.0 29.0 29.0 29.0 29.0 29.0 29.0 29.0 29.0 29.0 29.0 29.0 29.0 29.0 29.0 29.0 29.0 29.0 29.0 29.0 29.0 29.0 29.0 29.0 29.0 29.0 29.0 29.0 29.0 29.0 29.0 29.0 29.0 29.0 29.0 29.0 29.0 29.0 29.0 29.0 29.0 29.0 29.0 29.0 29.0 29.0 29.0 29.0 29.0 29.0 29.0 29.0 29.0 29.0 29.0 29.0 29.0 28.969236403589086 29.0 29.0 29.0 28.969236403589086 29.0 29.0 29.0 29.0 29.0 29.0 29.0 29.0 29.0 29.0 29.0 28.969236403589086 29.0 29.0 29.0 29.0 29.0 29.0 29.0 29.0 29.0 29.0 29.0 29.0 29.0 29.0 29.0 28.969236403589086 28.969236403589086 29.0 29.0 29.0 29.0 29.0 29.0 29.0 29.0 29.0 29.0 29.0 29.0 29.0 29.0 29.0 29.0 28.969236403589086 29.0 29.0 29.0 29.0 29.0 29.0 29.0 29.0 29.0 29.0 29.0 29.0 29.0 29.0 29.0 29.0 29.0 29.0 29.0 29.0 29.0 29.0 29.0 29.0 29.0 29.0 29.0 29.0 29.0 29.0 29.030763596410914 29.030763596410914 29.030763596410914 29.030763596410914 29.030763596410914 29.030763596410914 29.030763596410914 29.030763596410914 29.030763596410914 29.030763596410914 29.061527192821828 29.061527192821828 29.061527192821828 29.061527192821828 29.061527192821828 29.061527192821828 29.09229078923274 29.09229078923274 29.09229078923274 29.09229078923274 29.09229078923274 29.09229078923274 29.09229078923274 29.09229078923274 29.123054385643655 29.123054385643655 29.123054385643655 29.15381798205457 29.15381798205457 29.15381798205457 29.15381798205457 29.15381798205457 29.215345174876397 29.24610877128731 29.276872367698225 29.30763596410914 29.369163156930966 29.39992675334188 29.430690349752794 29.461453946163708 29.553744735396446 29.615271928218274 29.707562717451015 29.799853506683757 29.8921442959165 30.015198681560154 30.107489470792896 30.23054385643655 30.38436183849112 30.538179820545686 30.691997802600255 30.81505218824391 30.96887017029848 31.091924555942136 31.21497894158579 31.27650613440762 31.399560520051274 31.522614905694926 31.64566929133858 31.79948727339315 31.922541659036806 32.07635964109137 32.23017762314594 32.38399560520051 32.53781358725508 32.69163156930965 32.84544955136422 33.0300311298297 33.18384911188427 33.33766709393884 33.39919428676067 33.67606665445889 33.983702618568024 34.01446621497894 34.29133858267716 34.56821095037539 34.69126533601904 35.09119208936092 35.46035524629189 35.79875480681194 36.198681560153815 36.598608313495696 37.060062259659404 37.4907526094122 37.921442959164985 38.19831532686321 38.59824208020509 38.967405237136056 39.367331990477936 39.76725874381981 40.10565830433986 40.444057864859914 40.78245742537997 41.15162058231093 41.5207837392419 41.92071049258377 42.35140084233657 42.78209119208936 43.274308734663975 43.7665262772386 44.227980223402305 44.68943416956601 45.15088811572972 45.58157846548251 46.043032411646216 46.47372276139901 46.87364951474089 47.33510346090459 47.7965574070683 48.25801135323201 48.6887017029848 49.18091924555942 49.70390038454495 50.19611792711957 50.65757187328328 51.242080205090645 51.85735213330892 52.47262406152719 53.057132393334555 53.79545870719648 54.379967039003844 54.933711774400294 55.79509247390588 56.656473173411456 57.456326680095216 58.22541659036806 58.90221571140816 59.51748763962644 60.00970518220106 60.74803149606299 61.36330342428126 61.855520966855885 62.47079289507416 63.14759201611426 63.60904596227797 64.53195385460538 64.96264420435817 65.42409815052187 66.00860648232924 66.5931148141366 67.11609595312214 67.97747665262773 68.40816700238051 69.08496612342061 69.54642006958431 69.97711041933712 70.56161875114448 71.02307269730818 71.79216260758102 72.16132576451199 72.74583409631936 73.29957883171579 73.69950558505768 74.22248672404322 74.71470426661784 75.05310382713789 75.48379417689067 75.729902948178 76.00677531587621 76.1913568943417 76.28364768357443 76.34517487639626 76.34517487639626 76.37593847280718 76.37593847280718 76.37593847280718 76.37593847280718 76.37593847280718 76.37593847280718 76.37593847280718 76.37593847280718 76.37593847280718 76.43746566562899 76.49899285845083 76.59128364768358 76.71433803332724 76.80662882255997 76.92968320820361 77.05273759384727 77.11426478666911 77.26808276872367 77.32960996154551 77.45266434718914 77.45266434718914 77.48342794360008 77.51419154001098 77.5449551364219 77.5449551364219 77.60648232924373 77.66800952206555 77.7910639077092 77.88335469694195 77.94488188976378 78.06793627540742 78.22175425746201 78.31404504669473 78.46786302874932 78.52939022157113 78.59091741439296 78.65244460721479 78.65244460721479 78.65244460721479 78.68320820362571 78.68320820362571 78.68320820362571 78.65244460721479 78.65244460721479 78.65244460721479 78.65244460721479 78.65244460721479 78.65244460721479 78.65244460721479 78.65244460721479 78.65244460721479 78.68320820362571 78.65244460721479 78.65244460721479 78.65244460721479 78.65244460721479 78.65244460721479 78.65244460721479 78.68320820362571 78.65244460721479 78.65244460721479 78.65244460721479 78.65244460721479 78.65244460721479 78.65244460721479 78.65244460721479 78.65244460721479 78.65244460721479 78.68320820362571 78.65244460721479 78.65244460721479 78.65244460721479 78.68320820362571 78.65244460721479 78.65244460721479 78.65244460721479 78.68320820362571 78.68320820362571 78.68320820362571 78.68320820362571 78.68320820362571 78.71397180003662 78.71397180003662 78.74473539644754 78.77549899285845 78.77549899285845 78.80626258926935 78.83702618568027 78.83702618568027 78.83702618568027 78.83702618568027 78.8677897820912 78.8677897820912 78.8677897820912 78.8677897820912 78.8677897820912 78.8677897820912 78.8677897820912 78.8677897820912 78.8677897820912 78.8677897820912 78.8677897820912 78.8677897820912 78.8677897820912 78.8677897820912 78.8677897820912 78.8677897820912 78.8677897820912 78.8677897820912 78.8677897820912 78.8677897820912 78.8677897820912 78.8677897820912 78.8677897820912 78.8677897820912 78.8985533785021 78.8677897820912 78.8677897820912 78.8677897820912 78.8677897820912 78.8677897820912 78.8677897820912 78.8677897820912 78.8677897820912 78.8677897820912 78.8677897820912 78.8677897820912 78.8677897820912 78.8677897820912 78.8677897820912 78.8677897820912 78.8677897820912 78.8677897820912 78.8677897820912 78.8677897820912 78.8985533785021 78.8677897820912 78.8677897820912 78.8677897820912 78.8677897820912 78.8677897820912 78.8985533785021 78.8985533785021 78.8677897820912 78.8677897820912 78.8677897820912 78.8677897820912 78.8677897820912 78.8677897820912 78.8677897820912 78.8677897820912 78.8985533785021 78.8677897820912 78.8677897820912 78.8677897820912 78.8677897820912 78.8677897820912 78.8677897820912 78.8677897820912 78.8677897820912 78.8677897820912 78.8677897820912 78.8677897820912 78.8677897820912 78.8677897820912 78.8677897820912 78.8677897820912 78.8677897820912 78.8677897820912 78.8677897820912 78.8677897820912 78.8677897820912 78.8677897820912 78.8677897820912 78.8677897820912 78.8677897820912 78.8677897820912 78.8677897820912 78.8677897820912 78.8677897820912 78.8677897820912 78.8677897820912 78.8677897820912 78.8677897820912 78.8677897820912 78.8677897820912 78.8677897820912 78.8677897820912 78.8677897820912 78.8677897820912 78.8677897820912 78.8677897820912 78.8677897820912 78.8677897820912 78.8677897820912 78.8677897820912 78.8677897820912 78.8677897820912 78.8677897820912 78.8677897820912 78.8677897820912 78.8677897820912 78.8985533785021 78.8677897820912 78.8985533785021 78.8677897820912 78.8677897820912 78.8677897820912 78.8677897820912 78.8677897820912 78.8677897820912 78.8677897820912 78.8677897820912 78.8677897820912 78.8677897820912 78.8677897820912 78.8677897820912 78.8677897820912 78.8677897820912 78.8677897820912 78.8677897820912 78.8677897820912 78.8677897820912 78.8677897820912 78.8985533785021 78.8677897820912 78.8677897820912 78.8677897820912 78.8677897820912 78.8985533785021 78.8985533785021 78.8677897820912 78.8985533785021 78.8677897820912 78.8677897820912 78.8985533785021 78.8985533785021 78.8985533785021 78.8677897820912 78.8677897820912 78.8677897820912 78.8677897820912 78.8677897820912 78.8677897820912 78.8677897820912 78.8677897820912 78.8677897820912 78.8677897820912 78.8677897820912 78.8677897820912 78.8677897820912 78.8677897820912 78.8677897820912 78.8677897820912 78.8677897820912 78.8677897820912 78.8677897820912 78.8677897820912 78.8677897820912 78.8677897820912 78.8677897820912 78.8677897820912 78.8677897820912 78.8677897820912 78.8677897820912 78.8677897820912 78.8677897820912 78.8677897820912 78.8677897820912 78.8677897820912 78.8677897820912 78.8677897820912 78.8677897820912 78.8677897820912 78.8677897820912 78.8677897820912 78.8677897820912 78.8677897820912 78.8677897820912 78.8677897820912 78.8677897820912 78.8677897820912 78.8677897820912 78.8677897820912 78.8677897820912 78.8677897820912 78.8677897820912 78.8677897820912 78.8677897820912 78.83702618568027 78.8677897820912 78.8677897820912 78.83702618568027 78.8677897820912 78.8677897820912 78.8677897820912 78.8677897820912 78.83702618568027 78.83702618568027 78.83702618568027 78.83702618568027 78.83702618568027 78.80626258926935 78.80626258926935 78.80626258926935 78.80626258926935 78.80626258926935 78.80626258926935 78.80626258926935 78.80626258926935 78.80626258926935 78.80626258926935 78.80626258926935 78.80626258926935 78.80626258926935 78.80626258926935 78.80626258926935 78.83702618568027 78.80626258926935 78.80626258926935 78.80626258926935 78.80626258926935 78.80626258926935 78.80626258926935 78.80626258926935 78.80626258926935 78.80626258926935 78.80626258926935 78.80626258926935 78.80626258926935 78.80626258926935 78.80626258926935 78.80626258926935 78.80626258926935 78.77549899285845 78.80626258926935 78.77549899285845 78.77549899285845 78.77549899285845 78.77549899285845 78.77549899285845 78.74473539644754 78.74473539644754 78.71397180003662 78.74473539644754 78.71397180003662 78.71397180003662 78.71397180003662 78.71397180003662 78.71397180003662 78.71397180003662 78.68320820362571 78.68320820362571 78.68320820362571 78.62168101080388 78.62168101080388 78.59091741439296 78.59091741439296 78.56015381798206 78.56015381798206 78.52939022157113 78.52939022157113 78.52939022157113 78.52939022157113 78.52939022157113 78.52939022157113 78.52939022157113 78.52939022157113 78.52939022157113 78.52939022157113 78.52939022157113 78.49862662516023 78.52939022157113 78.49862662516023 78.49862662516023 78.4370994323384 78.40633583592748 78.40633583592748 78.37557223951657 78.37557223951657 78.31404504669473 78.28328145028382 78.25251785387292 78.16022706464017 78.09869987181834 77.97564548617468 77.7603003112983 77.63724592565464 77.45266434718914 77.36037355795642 77.23731917231275 77.02197399743636 76.8989196117927 76.68357443691632 76.49899285845083 76.40670206921808 76.1913568943417 76.00677531587621 75.85295733382165 75.57608496612343 75.3299761948361 75.05310382713789 74.71470426661784 74.43783189891961 74.09943233839957 73.57645119941402 73.26881523530488 72.77659769273026 72.43819813221022 71.97674418604652 71.5152902398828 71.08459989013001 70.68467313678812 70.4078007690899 70.19245559421351 69.82329243728255 69.45412928035158 69.08496612342061 68.71580296648965 68.40816700238051 68.00824024903864 67.73136788134042 67.33144112799853 66.93151437465664 66.62387841054752 66.28547885002746 65.85478850027468 65.54715253616553 65.14722578282365 64.90111701153634 64.43966306537264 64.03973631203075 63.79362754074345 63.39370078740157 62.901483244826956 62.62461087712873 62.255447720197765 62.009338948910454 61.79399377403406 61.30177623145944 61.14795824940487 60.778795092473906 60.40963193554294 60.040468778611974 59.732832814502835 59.45596044680461 59.05603369346274 58.65610694012086 58.40999816883354 58.010071415491666 57.67167185497162 57.39479948727339 56.964109137520595 56.87181834828786 56.41036440212415 55.948910455960444 55.61051089544039 54.90294817798937 54.41073063541476 54.072331074894706 53.580113532320084 53.21095037538912 52.87255081486907 52.288042483061716 51.98040651895257 51.51895257278886 51.11902581944699 50.78062625892693 50.442226698406884 50.10382713788683 49.85771836659953 49.51931880607947 49.24244643838125 48.9040468778612 48.65793810657389 48.28877494964292 47.88884819630104 47.519685039370074 47.15052188243911 46.87364951474089 46.596777147042665 46.31990477934444 45.950741622413474 45.643105658304336 45.3354696941952 45.12012451931881 44.781724958798755 44.50485259110053 44.35103460904596 44.135689434169564 44.01263504852591 43.79728987364952 43.581944698773114 43.39736312030763 42.99743636696576 42.78209119208936 42.505218824391136 42.16681926387108 41.92071049258377 41.58231093206372 41.21314777513276 40.997802600256364 40.75169382896905 40.536348654092656 40.35176707562717 40.01336751510712 39.890313129463465 39.45962277971067 39.121223219190625 38.875114447903314 38.50595129097235 38.167551730452296 37.89067936275407 37.4907526094122 37.18311664530306 36.81395348837209 36.3832631386193 36.106390770921074 35.67570042116829 35.24501007141549 34.96813770371727 34.72202893242996 34.56821095037539 34.383629371909905 34.26057498626625 34.137520600622594 33.922175425746204 33.860648232924376 33.829884636513455 33.7068302508698 33.64530305804798 33.49148507599341 33.33766709393884 33.27613990111701 33.214612708295185 33.15308551547336 33.09155832265153 32.968503937007874 32.906976744186046 32.814685954953305 32.72239516572056 32.63010437648782 32.568577183665994 32.53781358725508 32.53781358725508 32.53781358725508 32.53781358725508 32.47628639443325 32.44552279802234 32.44552279802234 32.414759201611425 32.38399560520051 32.3532320087896 32.32246841237868 32.29170481596777 32.260941219556855 32.23017762314594 32.19941402673503 32.168650430324114 32.1378868339132 32.07635964109137 32.014832448269544 31.95330525544772 31.922541659036806 31.891778062625892 31.86101446621498 31.86101446621498 31.830250869804065 31.830250869804065 31.79948727339315 31.79948727339315 31.768723676982237 31.70719648416041 31.676432887749495 31.614905694927668 31.584142098516754 31.55337850210584 31.491851309284012 31.36879692364036 31.27650613440762 31.184215345174877 31.091924555942136 30.96887017029848 30.87657938106574 30.784288591832997 30.691997802600255 30.599707013367514 30.538179820545686 30.445889031312948 30.38436183849112 30.353598242080206 30.353598242080206 30.322834645669293 30.353598242080206 30.322834645669293 30.322834645669293 30.322834645669293 30.322834645669293 30.29207104925838 30.29207104925838 30.29207104925838 30.29207104925838 30.29207104925838 30.261307452847465 30.261307452847465 30.23054385643655 30.23054385643655 30.23054385643655 30.199780260025637 30.169016663614723 30.169016663614723 30.13825306720381 30.13825306720381 30.107489470792896 30.107489470792896 30.07672587438198 30.07672587438198 30.07672587438198 30.07672587438198 30.07672587438198 30.07672587438198 30.07672587438198 30.045962277971068 30.045962277971068 30.015198681560154 30.015198681560154 29.98443508514924 29.953671488738326 29.953671488738326 29.922907892327412 29.8921442959165 29.8921442959165 29.861380699505585 29.861380699505585 29.861380699505585 29.861380699505585 29.861380699505585 29.83061710309467 29.861380699505585 29.83061710309467 29.83061710309467 29.83061710309467 29.83061710309467 29.83061710309467 29.799853506683757 29.799853506683757 29.799853506683757 29.769089910272843 29.769089910272843 29.769089910272843 29.769089910272843 29.769089910272843 29.769089910272843 29.769089910272843 29.73832631386193 29.73832631386193 29.73832631386193 29.73832631386193 29.73832631386193 29.707562717451015 29.707562717451015 29.6767991210401 29.6767991210401 29.646035524629188 29.6767991210401 29.646035524629188 29.646035524629188 29.646035524629188 29.646035524629188 29.646035524629188 29.646035524629188 29.646035524629188 29.646035524629188 29.646035524629188 29.615271928218274 29.615271928218274 29.615271928218274 29.615271928218274 29.58450833180736 29.58450833180736 29.553744735396446 29.553744735396446 29.553744735396446 29.522981138985532 29.553744735396446 29.522981138985532 29.522981138985532 29.522981138985532 29.522981138985532 29.522981138985532 29.49221754257462 29.49221754257462 29.522981138985532 29.522981138985532 29.49221754257462 29.522981138985532 29.49221754257462 29.49221754257462 29.49221754257462 29.49221754257462 29.49221754257462 29.49221754257462 29.49221754257462 29.461453946163708 29.49221754257462 29.461453946163708 29.49221754257462 29.461453946163708 29.461453946163708 29.461453946163708 29.461453946163708 29.461453946163708 29.461453946163708 29.461453946163708 29.461453946163708 29.461453946163708 29.461453946163708 29.461453946163708 29.461453946163708 29.461453946163708 29.461453946163708 29.461453946163708 29.461453946163708 29.461453946163708 29.461453946163708 29.461453946163708 29.430690349752794 29.430690349752794 29.430690349752794 29.430690349752794 29.39992675334188 29.430690349752794 29.39992675334188 29.39992675334188 29.39992675334188 29.39992675334188 29.369163156930966 29.369163156930966 29.369163156930966 29.369163156930966 29.369163156930966 29.369163156930966 29.369163156930966 29.338399560520052 29.338399560520052 29.338399560520052 29.338399560520052 29.338399560520052 29.338399560520052 29.30763596410914 29.30763596410914 29.338399560520052 29.338399560520052 29.338399560520052 29.338399560520052 29.338399560520052 29.338399560520052 29.30763596410914 29.338399560520052 29.338399560520052 29.30763596410914 29.30763596410914 29.30763596410914 29.30763596410914 29.30763596410914 29.30763596410914 29.30763596410914 29.30763596410914 29.338399560520052 29.30763596410914 29.30763596410914 29.30763596410914 29.30763596410914 29.30763596410914 29.30763596410914 29.30763596410914 29.30763596410914 29.30763596410914 29.30763596410914 29.30763596410914 29.30763596410914 29.276872367698225 29.276872367698225 29.276872367698225 29.276872367698225 29.24610877128731 29.24610877128731 29.24610877128731 29.24610877128731 29.24610877128731 29.24610877128731 29.24610877128731 29.24610877128731 29.24610877128731 29.24610877128731 29.24610877128731 29.215345174876397 29.215345174876397 29.215345174876397 29.215345174876397 29.215345174876397 29.215345174876397 29.215345174876397 29.215345174876397 29.215345174876397 29.215345174876397 29.184581578465483 29.215345174876397 29.215345174876397 29.215345174876397 29.184581578465483 29.215345174876397 29.215345174876397 29.215345174876397 29.184581578465483 29.184581578465483 29.184581578465483 29.184581578465483 29.184581578465483 29.184581578465483 29.184581578465483 29.184581578465483 29.184581578465483 29.184581578465483 29.184581578465483 29.184581578465483 29.184581578465483 29.184581578465483 29.184581578465483 29.184581578465483 29.184581578465483 29.184581578465483 29.184581578465483 29.184581578465483 29.184581578465483 29.184581578465483 29.184581578465483 29.184581578465483 29.184581578465483 29.184581578465483 29.184581578465483 29.184581578465483 29.184581578465483 29.184581578465483 29.184581578465483 29.184581578465483 29.184581578465483 29.184581578465483 29.184581578465483 29.184581578465483 29.184581578465483 29.184581578465483 29.184581578465483 29.184581578465483 29.184581578465483 29.184581578465483 29.184581578465483 29.184581578465483 29.184581578465483 29.184581578465483 29.184581578465483 29.184581578465483 29.15381798205457 29.184581578465483 29.184581578465483 29.184581578465483 29.184581578465483 29.184581578465483 29.184581578465483 29.184581578465483 29.184581578465483 29.184581578465483 29.184581578465483 29.184581578465483 29.184581578465483 29.184581578465483 29.184581578465483 29.184581578465483 29.15381798205457 29.184581578465483 29.184581578465483 29.184581578465483 29.184581578465483 29.184581578465483 29.184581578465483 29.184581578465483 29.184581578465483 29.184581578465483 29.184581578465483 29.184581578465483 29.15381798205457 29.184581578465483 29.15381798205457 29.15381798205457 29.15381798205457 29.184581578465483 29.15381798205457 29.184581578465483 29.184581578465483 29.184581578465483 29.184581578465483 29.184581578465483 29.184581578465483 29.184581578465483 29.15381798205457 29.184581578465483 29.15381798205457 29.184581578465483 29.184581578465483 29.15381798205457 29.184581578465483 29.184581578465483 29.184581578465483 29.184581578465483 29.184581578465483 29.184581578465483 29.15381798205457 29.184581578465483 29.15381798205457 29.184581578465483 29.184581578465483 29.184581578465483 29.184581578465483 29.184581578465483 29.184581578465483 29.184581578465483 29.184581578465483 29.15381798205457 29.184581578465483 29.15381798205457 29.15381798205457 29.184581578465483 29.184581578465483 29.184581578465483 29.184581578465483 29.15381798205457 29.15381798205457 29.184581578465483 29.15381798205457 29.184581578465483 29.184581578465483 29.184581578465483 29.15381798205457 29.15381798205457 29.15381798205457 29.184581578465483 29.184581578465483 29.15381798205457 29.184581578465483 29.184581578465483 29.184581578465483 29.184581578465483 29.15381798205457 29.184581578465483 29.184581578465483 29.184581578465483 29.15381798205457 29.184581578465483 29.184581578465483 29.15381798205457 29.184581578465483 29.184581578465483 29.15381798205457 29.184581578465483 29.184581578465483 29.184581578465483 29.15381798205457 29.184581578465483 29.184581578465483 29.15381798205457 29.184581578465483 29.184581578465483 29.15381798205457 29.15381798205457 29.184581578465483 29.184581578465483 29.184581578465483 29.184581578465483 29.184581578465483 29.184581578465483 29.184581578465483 29.184581578465483 29.184581578465483 29.184581578465483 29.184581578465483 29.184581578465483 29.184581578465483 29.184581578465483 29.15381798205457 29.184581578465483 29.184581578465483 29.15381798205457 29.15381798205457 29.184581578465483 29.15381798205457 29.184581578465483 29.184581578465483 29.184581578465483 29.184581578465483 29.184581578465483 29.184581578465483 29.184581578465483 29.15381798205457 29.184581578465483 29.15381798205457 29.15381798205457 29.184581578465483 29.15381798205457 29.15381798205457 29.184581578465483 29.184581578465483 29.15381798205457 29.184581578465483 29.184581578465483 29.184581578465483 29.15381798205457 29.184581578465483 29.15381798205457 29.184581578465483 29.184581578465483 29.184581578465483 29.184581578465483 29.15381798205457 29.184581578465483 29.15381798205457 29.184581578465483 29.15381798205457 29.184581578465483 29.15381798205457 29.184581578465483 29.184581578465483 29.184581578465483 29.15381798205457 29.184581578465483 29.184581578465483 29.184581578465483 29.15381798205457 29.15381798205457 29.184581578465483 29.15381798205457 29.15381798205457 29.15381798205457 29.184581578465483 29.184581578465483 29.184581578465483 29.15381798205457 29.15381798205457 29.184581578465483 29.184581578465483 29.184581578465483 29.184581578465483 29.184581578465483 29.184581578465483 29.184581578465483 29.184581578465483 29.184581578465483 29.15381798205457 29.15381798205457 29.15381798205457 29.15381798205457 29.15381798205457 29.184581578465483 29.184581578465483 29.184581578465483 29.184581578465483 29.184581578465483 29.184581578465483 29.184581578465483 29.184581578465483 29.184581578465483 29.184581578465483 29.184581578465483 29.15381798205457 29.184581578465483 29.184581578465483 29.15381798205457 29.184581578465483 29.184581578465483 29.15381798205457 29.15381798205457 29.184581578465483 29.184581578465483 29.15381798205457 29.184581578465483 29.184581578465483 29.184581578465483 29.15381798205457 29.184581578465483 29.15381798205457 29.184581578465483 29.184581578465483 29.15381798205457 29.15381798205457 29.184581578465483 29.15381798205457 29.184581578465483 29.184581578465483 29.15381798205457 29.15381798205457 29.184581578465483 29.184581578465483 29.15381798205457 29.15381798205457 29.15381798205457 29.184581578465483 29.184581578465483 29.15381798205457 29.184581578465483 29.184581578465483 29.184581578465483 29.15381798205457 29.184581578465483 29.184581578465483 29.184581578465483 29.184581578465483 29.184581578465483 29.15381798205457 29.184581578465483 29.184581578465483 29.184581578465483 29.15381798205457 29.184581578465483 29.184581578465483 29.184581578465483 29.15381798205457 29.184581578465483 29.184581578465483 29.184581578465483 29.184581578465483 29.15381798205457 29.15381798205457 29.184581578465483 29.184581578465483 29.184581578465483 29.184581578465483 29.184581578465483 29.184581578465483 29.15381798205457 29.184581578465483 29.15381798205457 29.184581578465483 29.15381798205457 29.15381798205457 29.184581578465483 29.184581578465483 29.184581578465483 29.15381798205457 29.15381798205457 29.184581578465483 29.184581578465483 29.15381798205457 29.184581578465483 29.184581578465483 29.15381798205457 29.184581578465483 29.184581578465483 29.184581578465483 29.184581578465483 29.15381798205457 29.15381798205457 29.15381798205457 29.15381798205457 29.184581578465483 29.184581578465483 29.184581578465483 29.184581578465483 29.184581578465483 29.184581578465483 29.184581578465483 29.184581578465483 29.15381798205457 29.184581578465483 29.15381798205457 29.15381798205457 29.184581578465483 29.184581578465483 29.15381798205457 29.15381798205457 29.15381798205457 29.15381798205457 29.184581578465483 29.15381798205457 29.184581578465483 29.15381798205457 29.184581578465483 29.15381798205457 29.15381798205457 29.184581578465483 29.184581578465483 29.184581578465483 29.184581578465483 29.184581578465483 29.15381798205457 29.184581578465483 29.184581578465483 29.184581578465483 29.15381798205457 29.15381798205457 29.15381798205457 29.184581578465483 29.15381798205457 29.184581578465483 29.15381798205457 29.184581578465483 29.184581578465483 29.15381798205457 29.184581578465483 29.15381798205457 29.184581578465483 29.15381798205457 29.15381798205457 29.184581578465483 29.184581578465483 29.184581578465483 29.184581578465483 29.184581578465483 29.15381798205457 29.15381798205457 29.15381798205457 29.15381798205457 29.184581578465483 29.15381798205457 29.184581578465483 29.184581578465483 29.184581578465483 29.15381798205457 29.184581578465483 29.184581578465483 29.184581578465483 29.15381798205457 29.184581578465483 29.15381798205457 29.15381798205457 29.15381798205457 29.184581578465483 29.15381798205457 29.184581578465483 29.15381798205457 29.15381798205457 29.15381798205457 29.15381798205457 29.184581578465483 29.184581578465483 29.184581578465483 29.15381798205457 29.15381798205457 29.15381798205457 29.184581578465483 29.15381798205457 29.15381798205457 29.15381798205457 29.15381798205457 29.15381798205457 29.15381798205457 29.184581578465483 29.184581578465483 29.15381798205457 29.15381798205457 29.15381798205457 29.15381798205457 29.184581578465483 29.15381798205457 29.15381798205457 29.15381798205457 29.184581578465483 29.184581578465483 29.15381798205457 29.184581578465483 29.184581578465483 29.15381798205457 29.184581578465483 29.184581578465483 29.15381798205457 29.15381798205457 29.15381798205457 29.15381798205457 29.184581578465483 29.15381798205457 29.15381798205457 29.15381798205457 29.184581578465483 29.15381798205457 29.15381798205457 29.184581578465483 29.184581578465483 29.15381798205457 29.184581578465483 29.184581578465483 29.15381798205457 29.184581578465483 29.15381798205457 29.184581578465483 29.184581578465483 29.184581578465483 29.15381798205457 29.184581578465483 29.184581578465483 29.15381798205457 29.184581578465483 29.15381798205457 29.15381798205457 29.15381798205457 29.184581578465483 29.15381798205457 29.184581578465483 29.15381798205457 29.15381798205457 29.184581578465483 29.15381798205457 29.15381798205457 29.15381798205457 29.15381798205457 29.15381798205457 29.15381798205457 29.15381798205457 29.15381798205457 29.15381798205457 29.15381798205457 29.15381798205457 29.15381798205457 29.15381798205457 29.184581578465483 29.15381798205457 29.15381798205457 29.15381798205457 29.15381798205457 29.184581578465483 29.15381798205457 29.15381798205457 29.15381798205457 29.15381798205457 29.15381798205457 29.15381798205457 29.15381798205457 29.15381798205457 29.15381798205457 29.15381798205457 29.15381798205457 29.15381798205457 29.15381798205457 29.15381798205457 29.15381798205457 29.15381798205457 29.15381798205457 29.15381798205457 29.15381798205457 29.15381798205457 29.15381798205457 29.15381798205457 29.15381798205457 29.15381798205457 29.123054385643655 29.15381798205457 29.15381798205457 29.15381798205457 29.15381798205457 29.15381798205457 29.123054385643655 29.123054385643655 29.123054385643655 29.123054385643655 29.123054385643655 29.123054385643655 29.123054385643655 29.123054385643655 29.123054385643655 29.123054385643655 29.123054385643655 29.123054385643655 29.123054385643655 29.123054385643655 29.123054385643655 29.123054385643655 29.123054385643655 29.123054385643655 29.123054385643655 29.123054385643655 29.15381798205457 29.184581578465483 29.215345174876397 29.276872367698225 29.338399560520052 29.369163156930966 29.39992675334188 29.461453946163708 29.49221754257462 29.553744735396446 29.58450833180736 29.6767991210401 29.707562717451015 29.769089910272843 29.83061710309467 29.922907892327412 30.07672587438198 30.261307452847465 30.38436183849112 30.538179820545686 30.753524995422083 30.87657938106574 31.091924555942136 31.184215345174877 31.27650613440762 31.36879692364036 31.461087712873102 31.55337850210584 31.584142098516754 31.614905694927668 31.737960080571323 31.86101446621498 32.04559604468046 32.260941219556855 32.38399560520051 32.69163156930965 32.87621314777513 33.060794726240616 33.368430690349754 33.64530305804798 33.95293902215711 34.44515656473173 34.69126533601904 35.09119208936092 35.39882805347006 35.67570042116829 36.26020875297564 36.56784471708478 37.060062259659404 37.521516205823104 37.859915766343164 38.29060611609595 38.59824208020509 39.09045962277971 39.582677165354326 39.95184032228529 40.47482146127083 41.02856619666728 41.490020142830986 41.92071049258377 42.32063724592565 42.99743636696576 43.5511811023622 44.01263504852591 44.84325215162058 45.30470609778429 45.67386925471526 46.78135872550815 47.24281267167186 47.61197582860282 48.104193371177445 48.50412012451932 49.05786485991577 49.45779161325764 49.980772752243176 50.56528108405054 50.96520783739241 51.54971616919978 52.31880607947262 52.503387657938106 53.026368796923634 53.3955319538546 54.072331074894706 54.379967039003844 54.68760300311298 55.27211133492034 55.61051089544039 55.91814685954953 56.47189159494598 56.77952755905512 57.210217908807905 57.6409082585607 57.917780626258924 58.34847097601172 58.7483977293536 59.025270097051816 59.45596044680461 59.732832814502835 60.1019959714338 60.50192272477568 60.87108588170665 61.17872184581578 61.48635780992492 61.76323017762314 62.101629738143195 62.347738509430506 62.83995605200513 63.239882805347 63.48599157663431 63.85515473356528 64.1012635048526 64.40889946896172 64.99340780076909 65.39333455411096 65.76249771104193 66.19318806079472 66.53158762131477 67.17762314594395 67.48525911005311 67.85442226698407 68.3774034059696 68.74656656290057 69.23878410547519 69.76176524446072 70.13092840139169 70.8384911188427 71.20765427577366 71.54605383629371 72.06903497527925 72.43819813221022 73.02270646401757 73.7302691814686 74.13019593481047 74.653177073796 75.02234023072697 75.39150338765793 75.88372093023256 76.37593847280718 76.80662882255997 77.20655557590185 77.5449551364219 77.88335469694195 78.19099066105107 78.49862662516023 78.8677897820912 79.14466214978941 79.51382530672038 79.88298846365134 80.2213880241714 80.62131477751328 80.83665995238968 81.08276872367698 81.42116828419702 81.63651345907343 81.94414942318257 82.28254898370261 82.43636696575717 82.55942135140083 82.62094854422267 82.68247573704448 82.74400292986633 82.77476652627723 82.80553012268815 82.86705731550998 82.89782091192089 82.92858450833181 82.99011170115364 83.08240249038637 83.1746932796191 83.26698406885185 83.42080205090642 83.54385643655007 83.63614722578282 83.78996520783738 83.88225599707013 84.00531038271379 84.06683757553562 84.12836476835744 84.22065555759018 84.2514191540011 84.282182750412 84.31294634682291 84.31294634682291 84.34370994323385 84.34370994323385 84.37447353964475 84.37447353964475 84.40523713605566 84.40523713605566 84.40523713605566 84.4667643288775 84.52829152169932 84.58981871452116 84.62058231093206 84.68210950375389 84.7128731001648 84.80516388939753 84.86669108221938 84.86669108221938 84.92821827504119 84.98974546786303 85.05127266068484 85.11279985350667 85.1435634499176 85.1435634499176 85.1743270463285 85.1743270463285 85.1743270463285 85.1743270463285 85.1743270463285 85.20509064273942 85.1743270463285 85.1743270463285 85.1743270463285 85.1743270463285 85.20509064273942 85.1743270463285 85.1743270463285 85.1743270463285 85.1743270463285 85.1743270463285 85.1743270463285 85.1743270463285 85.1743270463285 85.1743270463285 85.1743270463285 85.1743270463285 85.1435634499176 85.1743270463285 85.1743270463285 85.1435634499176 85.1435634499176 85.1435634499176 85.1435634499176 85.1435634499176 85.1435634499176 85.1435634499176 85.1435634499176 85.11279985350667 85.11279985350667 85.11279985350667 85.08203625709577 85.08203625709577 85.08203625709577 85.05127266068484 85.05127266068484 85.05127266068484 85.05127266068484 85.02050906427394 85.02050906427394 85.02050906427394 85.02050906427394 85.02050906427394 84.98974546786303 84.98974546786303 84.98974546786303 84.98974546786303 84.98974546786303 84.95898187145211 84.95898187145211 84.92821827504119 84.92821827504119 84.92821827504119 84.92821827504119 84.89745467863028 84.89745467863028 84.86669108221938 84.86669108221938 84.83592748580845 84.83592748580845 84.80516388939753 84.77440029298663 84.77440029298663 84.77440029298663 84.74363669657572 84.7128731001648 84.65134590734297 84.58981871452116 84.55905511811024 84.55905511811024 84.55905511811024 84.55905511811024 84.55905511811024 84.55905511811024 84.55905511811024 84.55905511811024 84.52829152169932 84.52829152169932 84.52829152169932 84.49752792528841 84.49752792528841 84.4667643288775 84.40523713605566 84.37447353964475 84.34370994323385 84.34370994323385 84.34370994323385 84.34370994323385 84.282182750412 84.2514191540011 84.22065555759018 84.18989196117926 84.18989196117926 84.18989196117926 84.18989196117926 84.18989196117926 84.18989196117926 84.15912836476835 84.12836476835744 84.0360739791247 83.97454678630287 83.94378318989196 83.94378318989196 83.91301959348104 83.91301959348104 83.88225599707013 83.8207288042483 83.75920161142648 83.72843801501557 83.66691082219373 83.66691082219373 83.63614722578282 83.57462003296098 83.57462003296098 83.54385643655007 83.54385643655007 83.51309284013917 83.51309284013917 83.51309284013917 83.51309284013917 83.51309284013917 83.51309284013917 83.51309284013917 83.48232924372826 83.45156564731735 83.42080205090642 83.42080205090642 83.39003845449551 83.39003845449551 83.39003845449551 83.39003845449551 83.39003845449551 83.39003845449551 83.35927485808459 83.32851126167368 83.29774766526276 83.26698406885185 83.23622047244095 83.20545687603003 83.1746932796191 83.1746932796191 83.1439296832082 83.1439296832082 83.1439296832082 83.1439296832082 83.11316608679729 83.1439296832082 83.1439296832082 83.1439296832082 83.1439296832082 83.11316608679729 83.1439296832082 83.11316608679729 83.1439296832082 83.1439296832082 83.11316608679729 83.1439296832082 83.11316608679729 83.1439296832082 83.1439296832082 83.11316608679729 83.11316608679729 83.11316608679729 83.05163889397545 82.99011170115364 82.95934810474272 82.95934810474272 82.92858450833181 82.92858450833181 82.92858450833181 82.92858450833181 82.92858450833181 82.92858450833181 82.89782091192089 82.89782091192089 82.89782091192089 82.92858450833181 82.89782091192089 82.92858450833181 82.89782091192089 82.89782091192089 82.89782091192089 82.89782091192089 82.89782091192089 82.89782091192089 82.89782091192089 82.89782091192089 82.89782091192089 82.89782091192089 82.86705731550998 82.83629371909906 82.83629371909906 82.83629371909906 82.80553012268815 82.80553012268815 82.80553012268815 82.77476652627723 82.77476652627723 82.77476652627723 82.77476652627723 82.77476652627723 82.77476652627723 82.77476652627723 82.77476652627723 82.77476652627723 82.77476652627723 82.77476652627723 82.74400292986633 82.71323933345542 82.68247573704448 82.62094854422267 82.59018494781176 82.55942135140083 82.52865775498992 82.52865775498992 82.52865775498992 82.49789415857902 82.52865775498992 82.49789415857902 82.52865775498992 82.52865775498992 82.52865775498992 82.52865775498992 82.52865775498992 82.52865775498992 82.52865775498992 82.52865775498992 82.52865775498992 82.52865775498992 82.52865775498992 82.52865775498992 82.52865775498992 82.52865775498992 82.52865775498992 82.52865775498992 82.52865775498992 82.52865775498992 82.52865775498992 82.52865775498992 82.52865775498992 82.52865775498992 82.52865775498992 82.52865775498992 82.49789415857902 82.49789415857902 82.4671305621681 82.40560336934627 82.40560336934627 82.37483977293536 82.37483977293536 82.34407617652444 82.34407617652444 82.31331258011353 82.31331258011353 82.31331258011353 82.31331258011353 82.31331258011353 82.31331258011353 82.31331258011353 82.31331258011353 82.31331258011353 82.31331258011353 82.31331258011353 82.31331258011353 82.31331258011353 82.31331258011353 82.31331258011353 82.31331258011353 82.31331258011353 82.31331258011353 82.31331258011353 82.31331258011353 82.31331258011353 82.31331258011353 82.28254898370261 82.31331258011353 82.28254898370261 82.28254898370261 82.2517853872917 82.22102179088078 82.22102179088078 82.19025819446988 82.19025819446988 82.19025819446988 82.19025819446988 82.19025819446988 82.19025819446988 82.19025819446988 82.19025819446988 82.19025819446988 82.19025819446988 82.19025819446988 82.12873100164805 82.06720380882622 81.97491301959349 81.88262223036074 81.79033144112799 81.66727705548433 81.5749862662516 81.45193188060794 81.29811389855337 81.1135323200879 80.9289507416224 80.68284197033509 80.4367331990478 80.15986083134956 80.0368064457059 79.72917048159677 79.36000732466582 79.05237136055666 78.49862662516023 78.03717267899651 77.72953671488739 77.26808276872367 77.08350119025819 76.83739241897088 76.16059329793077 75.79143014099981 75.3299761948361 74.8377586522615 74.46859549533052 74.03790514557772 73.5456876030031 73.33034242812671 72.74583409631936 72.4074345357993 71.9459805896356 71.5152902398828 71.20765427577366 70.68467313678812 70.377037172679 70.06940120856986 69.73100164804981 69.42336568394066 69.14649331624244 68.71580296648965 68.50045779161326 68.22358542391504 68.03900384544954 67.85442226698407 67.51602270646401 67.33144112799853 67.05456876030031 66.77769639260208 66.56235121772569 66.31624244643838 66.1624244643838 65.88555209668559 65.60867972898737 65.39333455411096 65.08569859000184 64.83958981871451 64.47042666178355 64.03973631203075 63.79362754074345 63.424464383812484 63.14759201611426 62.870719648416035 62.347738509430506 62.101629738143195 61.6709393883904 61.30177623145944 61.02490386376122 60.655740706830244 60.25581395348837 60.00970518220106 59.64054202527009 59.39443325398278 59.05603369346274 58.71763413294268 58.44076176524446 58.13312580113532 57.79472624061527 57.57938106573887 57.302508698040654 57.117927119575164 56.77952755905512 56.62570957700055 56.441127998535066 56.16425563083684 56.01043764878227 55.85661966672771 55.51822010620765 55.36440212415309 55.11829335286578 54.90294817798937 54.68760300311298 54.41073063541476 54.16462186412745 54.01080388207288 53.73393151437466 53.518586339498256 53.24171397180004 52.99560520051273 52.718732832814496 52.44186046511628 52.22651529023988 51.98040651895257 51.67277055484343 51.457425379967034 51.08826222303607 50.842153451748764 50.65757187328328 50.4729902948178 50.19611792711957 50.042299945065004 49.61160959531221 49.334737227613985 49.08862845632668 48.719465299395715 48.53488372093023 48.25801135323201 47.98113898553378 47.7965574070683 47.5812122321919 47.39663065372642 47.18128547885003 46.965940303973625 46.68906793627541 46.41219556857718 46.2276139901117 46.043032411646216 45.735396447537084 45.52005127266068 45.12012451931881 44.81248855520967 44.59714338033327 44.28950741622413 44.074162241347736 43.7665262772386 43.42812671671855 43.18201794543124 42.84361838491119 42.47445522798022 42.197582860282 41.797656106940124 41.55154733565281 41.18238417872185 40.81322102179088 40.56711225050357 40.16718549716169 39.82878593664164 39.582677165354326 39.121223219190625 38.875114447903314 38.629005676616 38.25984251968504 38.04449734480864 37.73686138069951 37.36769822376854 37.12158945248123 36.93700787401575 36.752426295550265 36.598608313495696 36.22944515656473 35.98333638527742 35.737227613990115 35.491118842702804 35.36806445705915 35.183482878593665 35.09119208936092 34.937374107306354 34.8143197216627 34.75279252884087 34.66050173960813 34.5989745467863 34.537447353964474 34.50668375755356 34.44515656473173 34.41439296832082 34.35286577549899 34.32210217908808 34.26057498626625 34.19904779344442 34.16828419703351 34.075993407800766 34.04522981138985 33.95293902215711 33.89141182933528 33.860648232924376 33.76835744369163 33.67606665445889 33.58377586522615 33.522248672404324 33.460721479582496 33.42995788317158 33.368430690349754 33.27613990111701 33.2453763047061 33.18384911188427 33.12232191906244 33.09155832265153 33.09155832265153 33.09155832265153 33.09155832265153 33.09155832265153 33.09155832265153 33.09155832265153 33.060794726240616 33.060794726240616 33.0300311298297 33.0300311298297 32.99926753341879 32.968503937007874 32.93774034059696 32.906976744186046 32.87621314777513 32.814685954953305 32.78392235854239 32.72239516572056 32.69163156930965 32.660867972898735 32.63010437648782 32.59934078007691 32.507049990844166 32.47628639443325 32.44552279802234 32.38399560520051 32.3532320087896 32.32246841237868 32.260941219556855 32.260941219556855 32.19941402673503 32.168650430324114 32.1378868339132 32.07635964109137 32.04559604468046 32.014832448269544 31.95330525544772 31.922541659036806 31.86101446621498 31.79948727339315 31.768723676982237 31.676432887749495 31.64566929133858 31.584142098516754 31.522614905694926 31.461087712873102 31.399560520051274 31.27650613440762 31.184215345174877 31.091924555942136 31.030397363120308 30.999633766709394 30.938106573887566 30.87657938106574 30.845815784654825 30.81505218824391 30.784288591832997 30.784288591832997 30.784288591832997 30.753524995422083 30.753524995422083 30.753524995422083 30.753524995422083 30.753524995422083 30.753524995422083 30.753524995422083 30.72276139901117 30.72276139901117 30.72276139901117 30.72276139901117 30.72276139901117 30.72276139901117 30.72276139901117 30.691997802600255 30.691997802600255 30.66123420618934 30.630470609778428 30.599707013367514 30.5689434169566 30.507416224134772 30.47665262772386 30.445889031312948 30.415125434902034 30.38436183849112 30.353598242080206 30.322834645669293 30.29207104925838 30.261307452847465 30.23054385643655 30.199780260025637 30.199780260025637 30.169016663614723 30.169016663614723 30.13825306720381 30.13825306720381 30.13825306720381 30.13825306720381 30.13825306720381 30.13825306720381 30.107489470792896 30.107489470792896 30.107489470792896 30.107489470792896 30.107489470792896 30.107489470792896 30.107489470792896 30.107489470792896 30.107489470792896 30.107489470792896 30.07672587438198 30.07672587438198 30.07672587438198 30.07672587438198 30.045962277971068 30.045962277971068 30.045962277971068 30.045962277971068 30.015198681560154 30.015198681560154 30.015198681560154 29.98443508514924 29.98443508514924 29.98443508514924 29.953671488738326 29.953671488738326 29.953671488738326 29.922907892327412 29.922907892327412 29.922907892327412 29.8921442959165 29.8921442959165 29.8921442959165 29.8921442959165 29.8921442959165 29.8921442959165 29.8921442959165 29.8921442959165 29.8921442959165 29.8921442959165 29.8921442959165 29.8921442959165 29.8921442959165 29.8921442959165 29.8921442959165 29.8921442959165 29.8921442959165 29.861380699505585 29.8921442959165 29.8921442959165 29.861380699505585 29.861380699505585 29.861380699505585 29.861380699505585 29.8921442959165 29.8921442959165 29.861380699505585 29.861380699505585 29.861380699505585 29.861380699505585 29.861380699505585 29.861380699505585 29.861380699505585 29.861380699505585 29.8921442959165 29.861380699505585 29.861380699505585 29.861380699505585 29.861380699505585 29.861380699505585 29.861380699505585 29.861380699505585 29.861380699505585 29.861380699505585 29.861380699505585 29.861380699505585 29.861380699505585 29.861380699505585 29.861380699505585 29.861380699505585 29.861380699505585 29.861380699505585 29.861380699505585 29.83061710309467 29.83061710309467 29.83061710309467 29.83061710309467 29.83061710309467 29.83061710309467 29.83061710309467 29.83061710309467 29.83061710309467 29.83061710309467 29.83061710309467 29.83061710309467 29.83061710309467 29.83061710309467 29.83061710309467 29.799853506683757 29.83061710309467 29.799853506683757 29.799853506683757 29.83061710309467 29.799853506683757 29.799853506683757 29.799853506683757 29.83061710309467 29.83061710309467 29.83061710309467 29.799853506683757 29.799853506683757 29.83061710309467 29.83061710309467 29.83061710309467 29.799853506683757 29.799853506683757 29.799853506683757 29.799853506683757 29.799853506683757 29.83061710309467 29.799853506683757 29.83061710309467 29.83061710309467 29.799853506683757 29.83061710309467 29.83061710309467 29.83061710309467 29.83061710309467 29.799853506683757 29.799853506683757 29.799853506683757 29.799853506683757 29.799853506683757 29.799853506683757 29.799853506683757 29.799853506683757 29.799853506683757 29.799853506683757 29.799853506683757 29.799853506683757 29.799853506683757 29.799853506683757 29.799853506683757 29.799853506683757 29.799853506683757 29.799853506683757 29.799853506683757 29.799853506683757 29.799853506683757 29.83061710309467 29.799853506683757 29.799853506683757 29.799853506683757 29.799853506683757 29.799853506683757 29.799853506683757 29.799853506683757 29.799853506683757 29.799853506683757 29.799853506683757 29.799853506683757 29.799853506683757 29.799853506683757 29.799853506683757 29.799853506683757 29.799853506683757 29.799853506683757 29.799853506683757 29.799853506683757 29.799853506683757 29.799853506683757 29.799853506683757 29.799853506683757 29.799853506683757 29.799853506683757 29.799853506683757 29.799853506683757 29.799853506683757 29.799853506683757 29.799853506683757 29.799853506683757 29.799853506683757 29.799853506683757 29.799853506683757 29.799853506683757 29.799853506683757 29.799853506683757 29.799853506683757 29.799853506683757 29.799853506683757 29.799853506683757 29.799853506683757 29.799853506683757 29.799853506683757 29.799853506683757 29.799853506683757 29.799853506683757 29.799853506683757 29.799853506683757 29.799853506683757 29.799853506683757 29.799853506683757 29.799853506683757 29.799853506683757 29.799853506683757 29.799853506683757 29.799853506683757 29.799853506683757 29.799853506683757 29.799853506683757 29.799853506683757 29.799853506683757 29.799853506683757 29.799853506683757 29.799853506683757 29.799853506683757 29.799853506683757 29.799853506683757 29.799853506683757 29.799853506683757 29.799853506683757 29.799853506683757 29.799853506683757 29.799853506683757 29.799853506683757 29.799853506683757 29.799853506683757 29.799853506683757 29.799853506683757 29.799853506683757 29.799853506683757 29.799853506683757 29.769089910272843 29.799853506683757 29.799853506683757 29.799853506683757 29.799853506683757 29.769089910272843 29.769089910272843 29.769089910272843 29.769089910272843 29.799853506683757 29.769089910272843 29.769089910272843 29.769089910272843 29.769089910272843 29.769089910272843 29.769089910272843 29.769089910272843 29.769089910272843 29.769089910272843 29.769089910272843 29.769089910272843 29.769089910272843 29.73832631386193 29.769089910272843 29.769089910272843 29.769089910272843 29.769089910272843 29.769089910272843 29.769089910272843 29.769089910272843 29.769089910272843 29.769089910272843 29.769089910272843 29.769089910272843 29.769089910272843 29.769089910272843 29.73832631386193 29.769089910272843 29.73832631386193 29.769089910272843 29.73832631386193 29.769089910272843 29.73832631386193 29.769089910272843 29.769089910272843 29.73832631386193 29.73832631386193 29.769089910272843 29.73832631386193 29.769089910272843 29.73832631386193 29.73832631386193 29.769089910272843 29.73832631386193 29.769089910272843 29.769089910272843 29.73832631386193 29.73832631386193 29.73832631386193 29.769089910272843 29.73832631386193 29.73832631386193 29.769089910272843 29.73832631386193 29.73832631386193 29.73832631386193 29.73832631386193 29.73832631386193 29.73832631386193 29.769089910272843 29.73832631386193 29.73832631386193 29.73832631386193 29.769089910272843 29.73832631386193 29.73832631386193 29.769089910272843 29.73832631386193 29.769089910272843 29.73832631386193 29.769089910272843 29.73832631386193 29.73832631386193 29.73832631386193 29.73832631386193 29.73832631386193 29.73832631386193 29.73832631386193 29.73832631386193 29.73832631386193 29.73832631386193 29.73832631386193 29.73832631386193 29.769089910272843 29.73832631386193 29.73832631386193 29.769089910272843 29.73832631386193 29.73832631386193 29.769089910272843 29.73832631386193 29.73832631386193 29.73832631386193 29.769089910272843 29.73832631386193 29.73832631386193 29.73832631386193 29.73832631386193 29.73832631386193 29.769089910272843 29.73832631386193 29.73832631386193 29.73832631386193 29.73832631386193 29.73832631386193 29.73832631386193 29.73832631386193 29.769089910272843 29.769089910272843 29.73832631386193 29.769089910272843 29.73832631386193 29.73832631386193 29.769089910272843 29.73832631386193 29.73832631386193 29.73832631386193 29.73832631386193 29.73832631386193 29.73832631386193 29.73832631386193 29.73832631386193 29.73832631386193 29.73832631386193 29.73832631386193 29.73832631386193 29.73832631386193 29.73832631386193 29.73832631386193 29.73832631386193 29.73832631386193 29.73832631386193 29.73832631386193 29.73832631386193 29.73832631386193 29.73832631386193 29.73832631386193 29.73832631386193 29.73832631386193 29.73832631386193 29.769089910272843 29.73832631386193 29.73832631386193 29.73832631386193 29.73832631386193 29.73832631386193 29.73832631386193 29.73832631386193 29.73832631386193 29.73832631386193 29.73832631386193 29.73832631386193 29.73832631386193 29.73832631386193 29.73832631386193 29.73832631386193 29.73832631386193 29.73832631386193 29.73832631386193 29.73832631386193 29.73832631386193 29.73832631386193 29.73832631386193 29.73832631386193 29.73832631386193 29.73832631386193 29.73832631386193 29.73832631386193 29.73832631386193 29.73832631386193 29.73832631386193 29.73832631386193 29.73832631386193 29.73832631386193 29.73832631386193 29.73832631386193 29.73832631386193 29.73832631386193 29.73832631386193 29.73832631386193 29.73832631386193 29.73832631386193 29.73832631386193 29.73832631386193 29.73832631386193 29.73832631386193 29.73832631386193 29.73832631386193 29.73832631386193 29.73832631386193 29.73832631386193 29.73832631386193 29.73832631386193 29.73832631386193 29.73832631386193 29.73832631386193 29.73832631386193 29.707562717451015 29.73832631386193 29.707562717451015 29.73832631386193 29.707562717451015 29.707562717451015 29.707562717451015 29.73832631386193 29.707562717451015 29.707562717451015 29.707562717451015 29.707562717451015 29.707562717451015 29.707562717451015 29.707562717451015 29.707562717451015 29.707562717451015 29.707562717451015 29.707562717451015 29.707562717451015 29.707562717451015 29.6767991210401 29.707562717451015 29.707562717451015 29.707562717451015 29.707562717451015 29.6767991210401 29.707562717451015 29.707562717451015 29.707562717451015 29.707562717451015 29.6767991210401 29.707562717451015 29.707562717451015 29.707562717451015 29.707562717451015 29.707562717451015 29.6767991210401 29.707562717451015 29.707562717451015 29.707562717451015 29.707562717451015 29.707562717451015 29.6767991210401 29.6767991210401 29.707562717451015 29.707562717451015 29.707562717451015 29.707562717451015 29.6767991210401 29.707562717451015 29.707562717451015 29.707562717451015 29.6767991210401 29.707562717451015 29.707562717451015 29.707562717451015 29.6767991210401 29.707562717451015 29.707562717451015 29.707562717451015 29.707562717451015 29.707562717451015 29.707562717451015 29.707562717451015 29.707562717451015 29.6767991210401 29.6767991210401 29.707562717451015 29.6767991210401 29.707562717451015 29.6767991210401 29.707562717451015 29.707562717451015 29.6767991210401 29.707562717451015 29.707562717451015 29.707562717451015 29.707562717451015 29.6767991210401 29.707562717451015 29.707562717451015 29.707562717451015 29.707562717451015 29.707562717451015 29.707562717451015 29.707562717451015 29.707562717451015 29.707562717451015 29.707562717451015 29.707562717451015 29.707562717451015 29.707562717451015 29.6767991210401 29.6767991210401 29.6767991210401 29.707562717451015 29.707562717451015 29.707562717451015 29.707562717451015 29.6767991210401 29.707562717451015 29.6767991210401 29.6767991210401 29.707562717451015 29.6767991210401 29.707562717451015 29.707562717451015 29.707562717451015 29.6767991210401 29.6767991210401 29.6767991210401 29.6767991210401 29.707562717451015 29.707562717451015 29.6767991210401 29.707562717451015 29.6767991210401 29.707562717451015 29.6767991210401 29.707562717451015 29.707562717451015 29.707562717451015 29.707562717451015 29.707562717451015 29.6767991210401 29.6767991210401 29.6767991210401 29.6767991210401 29.707562717451015 29.707562717451015 29.6767991210401 29.707562717451015 29.707562717451015 29.707562717451015 29.707562717451015 29.707562717451015 29.707562717451015 29.6767991210401 29.6767991210401 29.707562717451015 29.707562717451015 29.6767991210401 29.6767991210401 29.6767991210401 29.707562717451015 29.707562717451015 29.6767991210401 29.6767991210401 29.707562717451015 29.6767991210401 29.6767991210401 29.6767991210401 29.707562717451015 29.6767991210401 29.6767991210401 29.707562717451015 29.6767991210401 29.6767991210401 29.6767991210401 29.707562717451015 29.707562717451015 29.707562717451015 29.707562717451015 29.707562717451015 29.6767991210401 29.6767991210401 29.707562717451015 29.6767991210401 29.707562717451015 29.707562717451015 29.6767991210401 29.707562717451015 29.6767991210401 29.707562717451015 29.707562717451015 29.6767991210401 29.707562717451015 29.6767991210401 29.707562717451015 29.6767991210401 29.707562717451015 29.707562717451015 29.707562717451015 29.707562717451015 29.707562717451015 29.707562717451015 29.707562717451015 29.707562717451015 29.707562717451015 29.707562717451015 29.6767991210401 29.707562717451015 29.707562717451015 29.6767991210401 29.707562717451015 29.6767991210401 29.707562717451015 29.707562717451015 29.707562717451015 29.707562717451015 29.6767991210401 29.707562717451015 29.707562717451015 29.707562717451015 29.6767991210401 29.707562717451015 29.707562717451015 29.6767991210401 29.707562717451015 29.707562717451015 29.707562717451015 29.707562717451015 29.6767991210401 29.707562717451015 29.6767991210401 29.707562717451015 29.6767991210401 29.707562717451015 29.707562717451015 29.707562717451015 29.707562717451015 29.707562717451015 29.707562717451015 29.6767991210401 29.707562717451015 29.707562717451015 29.6767991210401 29.707562717451015 29.707562717451015 29.707562717451015 29.707562717451015 29.707562717451015 29.6767991210401 29.707562717451015 29.6767991210401 29.6767991210401 29.707562717451015 29.6767991210401 29.6767991210401 29.6767991210401 29.6767991210401 29.646035524629188 29.6767991210401 29.6767991210401 29.6767991210401 29.6767991210401 29.646035524629188 29.6767991210401 29.646035524629188 29.646035524629188 29.6767991210401 29.646035524629188 29.6767991210401 29.6767991210401 29.6767991210401 29.646035524629188 29.6767991210401 29.6767991210401 29.6767991210401 29.707562717451015 29.73832631386193 29.769089910272843 29.799853506683757 29.83061710309467 29.861380699505585 29.8921442959165 29.922907892327412 29.953671488738326 29.98443508514924 30.045962277971068 30.07672587438198 30.13825306720381 30.169016663614723 30.199780260025637 30.23054385643655 30.29207104925838 30.322834645669293 30.38436183849112 30.415125434902034 30.47665262772386 30.5689434169566 30.630470609778428 30.753524995422083 30.784288591832997 30.96887017029848 31.153451748763963 31.27650613440762 31.461087712873102 31.64566929133858 31.70719648416041 31.79948727339315 31.891778062625892 32.014832448269544 32.1378868339132 32.168650430324114 32.168650430324114 32.19941402673503 32.23017762314594 32.38399560520051 32.59934078007691 32.63010437648782 32.75315876213148 32.87621314777513 33.12232191906244 33.27613990111701 33.64530305804798 33.89141182933528 34.10675700421168 34.41439296832082 34.629738143197216 34.96813770371727 35.15271928218275 35.52188243911371 35.86028199963376 36.22944515656473 36.47555392785204 36.84471708478301 37.2754074345358 37.61380699505585 38.075260941219554 38.44442409815052 39.0596960263688 39.582677165354326 39.982603918696206 40.75169382896905 41.336202160776416 41.58231093206372 42.22834645669291 42.68980040285662 43.305072331074896 44.16645303058048 44.59714338033327 45.24317890496246 45.735396447537084 46.16608679728987 47.18128547885003 47.7965574070683 48.473356528108404 49.27321003479216 49.85771836659953 50.596044680461446 51.42666178355613 52.011170115363484 52.74949642922542 53.27247756821095 53.980040285661964 54.65683940670207 55.11829335286578 55.76432887749496 56.41036440212415 56.81029115546603 57.456326680095216 57.88701702984801 58.65610694012086 59.025270097051816 59.60977842885918 60.19428676066654 60.594213514008416 60.96337667093938 61.73246658121223 62.22468412378685 62.716901666361466 63.33217359457974 63.79362754074345 64.47042666178355 64.93188060794725 65.63944332539828 66.31624244643838 66.80845998901299 67.51602270646401 68.43893059879143 69.02343893059879 69.51565647317341 69.97711041933712 70.50009155832265 71.17689067936274 71.60758102911555 72.43819813221022 73.23805163889398 73.57645119941402 74.06866874198865 74.46859549533052 74.80699505585056 75.51455777330159 75.91448452664346 76.34517487639626 76.83739241897088 77.14502838308002 77.72953671488739 77.91411829335286 78.28328145028382 78.65244460721479 78.92931697491301 79.29848013184399 79.63687969236403 80.0368064457059 80.34444240981506 80.59055118110236 80.83665995238968 81.17505951290971 81.45193188060794 81.91338582677164 82.31331258011353 82.59018494781176 82.92858450833181 83.1746932796191 83.42080205090642 83.8207288042483 84.0360739791247 84.31294634682291 84.52829152169932 84.68210950375389 84.86669108221938 85.08203625709577 85.1435634499176 85.23585423915033 85.26661783556125 85.26661783556125 85.26661783556125 85.26661783556125 85.29738143197216 85.29738143197216 85.26661783556125 85.26661783556125 85.26661783556125 85.26661783556125 85.26661783556125 85.26661783556125 85.26661783556125 85.26661783556125 85.26661783556125 85.26661783556125 85.26661783556125 85.26661783556125 85.26661783556125 85.23585423915033 85.23585423915033 85.26661783556125 85.23585423915033 85.23585423915033 85.23585423915033 85.20509064273942 85.1743270463285 85.1435634499176 85.11279985350667 85.11279985350667 85.08203625709577 85.08203625709577 85.11279985350667 85.11279985350667 85.08203625709577 85.08203625709577 85.05127266068484 84.98974546786303 84.89745467863028 84.80516388939753 84.74363669657572 84.65134590734297 84.58981871452116 84.4667643288775 84.31294634682291 84.2514191540011 84.15912836476835 84.12836476835744 84.06683757553562 84.06683757553562 84.0360739791247 83.94378318989196 83.88225599707013 83.85149240065923 83.75920161142648 83.69767441860465 83.66691082219373 83.57462003296098 83.54385643655007 83.48232924372826 83.39003845449551 83.39003845449551 83.35927485808459 83.35927485808459 83.35927485808459 83.32851126167368 83.32851126167368 83.32851126167368 83.32851126167368 83.29774766526276 83.29774766526276 83.26698406885185 83.23622047244095 83.20545687603003 83.20545687603003 83.1439296832082 83.08240249038637 83.05163889397545 83.02087529756454 83.02087529756454 82.99011170115364 82.95934810474272 82.99011170115364 82.99011170115364 82.99011170115364 82.99011170115364 82.99011170115364 82.95934810474272 82.99011170115364 82.95934810474272 82.99011170115364 82.95934810474272 82.95934810474272 82.95934810474272 82.99011170115364 82.99011170115364 82.95934810474272 82.95934810474272 82.95934810474272 82.95934810474272 82.95934810474272 82.92858450833181 82.89782091192089 82.89782091192089 82.89782091192089 82.86705731550998 82.86705731550998 82.83629371909906 82.83629371909906 82.83629371909906 82.80553012268815 82.77476652627723 82.77476652627723 82.77476652627723 82.77476652627723 82.77476652627723 82.74400292986633 82.74400292986633 82.74400292986633 82.74400292986633 82.71323933345542 82.74400292986633 82.74400292986633 82.74400292986633 82.74400292986633 82.71323933345542 82.74400292986633 82.71323933345542 82.71323933345542 82.68247573704448 82.65171214063358 82.62094854422267 82.62094854422267 82.59018494781176 82.55942135140083 82.49789415857902 82.43636696575717 82.40560336934627 82.37483977293536 82.31331258011353 82.28254898370261 82.2517853872917 82.19025819446988 82.15949459805896 82.09796740523714 82.09796740523714 82.06720380882622 82.0056766160044 82.0056766160044 81.97491301959349 81.94414942318257 81.94414942318257 81.94414942318257 81.94414942318257 81.94414942318257 81.91338582677164 81.94414942318257 81.94414942318257 81.94414942318257 81.91338582677164 81.91338582677164 81.94414942318257 81.91338582677164 81.91338582677164 81.91338582677164 81.91338582677164 81.91338582677164 81.91338582677164 81.91338582677164 81.91338582677164 81.91338582677164 81.91338582677164 81.88262223036074 81.85185863394983 81.8210950375389 81.79033144112799 81.75956784471708 81.72880424830618 81.69804065189524 81.66727705548433 81.66727705548433 81.66727705548433 81.63651345907343 81.66727705548433 81.63651345907343 81.66727705548433 81.66727705548433 81.66727705548433 81.66727705548433 81.66727705548433 81.63651345907343 81.66727705548433 81.63651345907343 81.6057498626625 81.5749862662516 81.54422266984068 81.51345907342977 81.48269547701886 81.48269547701886 81.45193188060794 81.45193188060794 81.45193188060794 81.45193188060794 81.45193188060794 81.48269547701886 81.48269547701886 81.48269547701886 81.48269547701886 81.48269547701886 81.48269547701886 81.48269547701886 81.48269547701886 81.45193188060794 81.48269547701886 81.45193188060794 81.48269547701886 81.45193188060794 81.48269547701886 81.48269547701886 81.48269547701886 81.45193188060794 81.48269547701886 81.48269547701886 81.48269547701886 81.48269547701886 81.48269547701886 81.45193188060794 81.45193188060794 81.48269547701886 81.45193188060794 81.48269547701886 81.48269547701886 81.45193188060794 81.45193188060794 81.48269547701886 81.48269547701886 81.45193188060794 81.45193188060794 81.45193188060794 81.48269547701886 81.48269547701886 81.45193188060794 81.45193188060794 81.48269547701886 81.45193188060794 81.42116828419702 81.42116828419702 81.42116828419702 81.39040468778612 81.42116828419702 81.42116828419702 81.42116828419702 81.39040468778612 81.42116828419702 81.42116828419702 81.42116828419702 81.42116828419702 81.39040468778612 81.35964109137521 81.32887749496429 81.32887749496429 81.29811389855337 81.29811389855337 81.29811389855337 81.29811389855337 81.29811389855337 81.29811389855337 81.29811389855337 81.29811389855337 81.29811389855337 81.29811389855337 81.32887749496429 81.32887749496429 81.32887749496429 81.29811389855337 81.32887749496429 81.32887749496429 81.32887749496429 81.29811389855337 81.32887749496429 81.29811389855337 81.32887749496429 81.32887749496429 81.32887749496429 81.32887749496429 81.32887749496429 81.32887749496429 81.32887749496429 81.32887749496429 81.32887749496429 81.32887749496429 81.32887749496429 81.29811389855337 81.32887749496429 81.32887749496429 81.32887749496429 81.32887749496429 81.32887749496429 81.32887749496429 81.29811389855337 81.29811389855337 81.29811389855337 81.29811389855337 81.29811389855337 81.26735030214246 81.26735030214246 81.23658670573155 81.23658670573155 81.20582310932063 81.20582310932063 81.20582310932063 81.23658670573155 81.20582310932063 81.20582310932063 81.20582310932063 81.20582310932063 81.20582310932063 81.20582310932063 81.20582310932063 81.20582310932063 81.20582310932063 81.20582310932063 81.17505951290971 81.17505951290971 81.17505951290971 81.17505951290971 81.17505951290971 81.17505951290971 81.1442959164988 81.1442959164988 81.1442959164988 81.17505951290971 81.1442959164988 81.17505951290971 81.17505951290971 81.17505951290971 81.1442959164988 81.17505951290971 81.1442959164988 81.1442959164988 81.17505951290971 81.1442959164988 81.1442959164988 81.1442959164988 81.08276872367698 81.08276872367698 81.02124153085515 80.99047793444424 80.9289507416224 80.86742354880059 80.80589635597875 80.77513275956784 80.68284197033509 80.68284197033509 80.62131477751328 80.55978758469143 80.49826039186962 80.37520600622597 80.31367881340414 80.19062442776048 80.0368064457059 79.97527925288409 79.7906976744186 79.72917048159677 79.54458890313128 79.3292437282549 79.17542574620032 78.96008057132393 78.80626258926935 78.4370994323384 78.16022706464017 78.03717267899651 77.63724592565464 77.39113715436733 77.17579197949092 76.77586522614905 76.56052005127265 76.1913568943417 75.82219373741073 75.5453213697125 75.02234023072697 74.74546786302875 74.37630470609778 73.94561435634498 73.60721479582494 73.14576084966123 72.71507049990844 72.09979857169017 71.88445339681377 71.57681743270463 71.33070866141732 71.02307269730818 70.77696392602087 70.22321919062442 69.88481963010437 69.60794726240616 69.20802050906427 68.93114814136604 68.65427577366782 68.1620582310932 67.82365867057315 67.54678630287492 67.20838674235489 66.93151437465664 66.56235121772569 66.19318806079472 65.94707928950741 65.57791613257645 65.33180736128914 64.90111701153634 64.53195385460538 64.22431789049625 63.63980955868888 63.33217359457974 63.055301226881525 62.62461087712873 62.37850210584142 62.07086614173228 61.73246658121223 61.57864859915766 61.36330342428126 61.240249038637614 61.086431056583045 60.84032228529573 60.686504303241165 60.47115912836477 60.25581395348837 60.040468778611974 59.79436000732467 59.579014832448266 59.27137886833913 58.96374290422999 58.71763413294268 58.40999816883354 58.163889397546235 57.94854422266984 57.61014466214979 57.456326680095216 57.302508698040654 57.08716352316425 56.90258194469877 56.656473173411456 56.37960080571324 56.0719648416041 55.76432887749496 55.51822010620765 55.30287493133125 54.841420985167545 54.53378502105841 54.19538546053836 53.79545870719648 53.518586339498256 53.118659586156376 52.87255081486907 52.53415125434902 52.257278886650795 52.103460904596226 51.703534151254345 51.39589818714521 51.18055301226882 50.995971433803334 50.78062625892693 50.534517487639626 50.2576451199414 50.07306354147592 49.61160959531221 49.365500824024906 49.05786485991577 48.81175608862846 48.565647317341146 48.28877494964292 47.7965574070683 47.550448635780995 47.24281267167186 46.87364951474089 46.53524995422084 46.25837758652261 46.0122688152353 45.67386925471526 45.36623329060612 45.12012451931881 44.81248855520967 44.41256180186779 44.19721662699139 43.88958066288225 43.67423548800586 43.39736312030763 43.028199963376665 42.78209119208936 42.259110053103825 41.9822376854056 41.58231093206372 41.18238417872185 40.90551181102362 40.50558505768174 40.136421900750776 39.82878593664164 39.45962277971067 39.15198681560154 38.75206006225966 38.413660501739606 38.013733748397726 37.64457059146676 37.42922541659037 37.152353048892145 36.87548068119392 36.62937190990661 36.22944515656473 35.89104559604468 35.64493682475737 35.337300860648234 35.09119208936092 34.937374107306354 34.75279252884087 34.66050173960813 34.537447353964474 34.383629371909905 34.26057498626625 34.10675700421168 33.95293902215711 33.860648232924376 33.7068302508698 33.614539461637065 33.522248672404324 33.42995788317158 33.33766709393884 33.15308551547336 33.09155832265153 32.968503937007874 32.87621314777513 32.814685954953305 32.78392235854239 32.75315876213148 32.78392235854239 32.75315876213148 32.75315876213148 32.72239516572056 32.72239516572056 32.69163156930965 32.660867972898735 32.660867972898735 32.63010437648782 32.568577183665994 32.507049990844166 32.47628639443325 32.44552279802234 32.414759201611425 32.3532320087896 32.32246841237868 32.29170481596777 32.19941402673503 32.1378868339132 32.107123237502286 32.04559604468046 32.014832448269544 31.922541659036806 31.86101446621498 31.830250869804065 31.737960080571323 31.676432887749495 31.614905694927668 31.522614905694926 31.430324116462188 31.338033327229446 31.245742537996705 31.21497894158579 31.12268815235305 31.091924555942136 30.999633766709394 30.938106573887566 30.87657938106574 30.81505218824391 30.72276139901117 30.691997802600255 30.691997802600255 30.691997802600255 30.691997802600255 30.691997802600255 30.691997802600255 30.691997802600255 30.691997802600255 30.66123420618934 30.66123420618934 30.66123420618934 30.66123420618934 30.630470609778428 30.630470609778428 30.599707013367514 30.599707013367514 30.5689434169566 30.538179820545686 30.507416224134772 30.47665262772386 30.415125434902034 30.415125434902034 30.353598242080206 30.29207104925838 30.29207104925838 30.23054385643655 30.199780260025637 30.199780260025637 30.169016663614723 30.13825306720381 30.107489470792896 30.07672587438198 30.045962277971068 30.015198681560154 30.015198681560154 30.015198681560154 29.98443508514924 29.98443508514924 29.98443508514924 29.98443508514924 29.98443508514924 29.953671488738326 29.953671488738326 29.953671488738326 29.922907892327412 29.953671488738326 29.922907892327412 29.922907892327412 29.922907892327412 29.8921442959165 29.8921442959165 29.861380699505585 29.8921442959165 29.861380699505585 29.861380699505585 29.861380699505585 29.861380699505585 29.83061710309467 29.83061710309467 29.83061710309467 29.83061710309467 29.83061710309467 29.83061710309467 29.799853506683757 29.799853506683757 29.799853506683757 29.799853506683757 29.769089910272843 29.769089910272843 29.769089910272843 29.799853506683757 29.799853506683757 29.769089910272843 29.769089910272843 29.769089910272843 29.769089910272843 29.769089910272843 29.769089910272843 29.769089910272843 29.769089910272843 29.769089910272843 29.769089910272843 29.769089910272843 29.769089910272843 29.769089910272843 29.769089910272843 29.769089910272843 29.769089910272843 29.769089910272843 29.769089910272843 29.769089910272843 29.769089910272843 29.769089910272843 29.73832631386193 29.769089910272843 29.769089910272843 29.769089910272843 29.73832631386193 29.769089910272843 29.73832631386193 29.769089910272843 29.769089910272843 29.73832631386193 29.73832631386193 29.73832631386193 29.73832631386193 29.73832631386193 29.769089910272843 29.73832631386193 29.73832631386193 29.73832631386193 29.73832631386193 29.73832631386193 29.73832631386193 29.73832631386193 29.73832631386193 29.73832631386193 29.73832631386193 29.73832631386193 29.73832631386193 29.73832631386193 29.73832631386193 29.73832631386193 29.73832631386193 29.73832631386193 29.73832631386193 29.73832631386193 29.73832631386193 29.73832631386193 29.73832631386193 29.73832631386193 29.73832631386193 29.73832631386193 29.73832631386193 29.73832631386193 29.707562717451015 29.73832631386193 29.73832631386193 29.73832631386193 29.73832631386193 29.73832631386193 29.73832631386193 29.707562717451015 29.707562717451015 29.707562717451015 29.707562717451015 29.707562717451015 29.707562717451015 29.707562717451015 29.707562717451015 29.707562717451015 29.707562717451015 29.707562717451015 29.707562717451015 29.707562717451015 29.707562717451015 29.707562717451015 29.707562717451015 29.707562717451015 29.707562717451015 29.707562717451015 29.707562717451015 29.707562717451015 29.707562717451015 29.707562717451015 29.707562717451015 29.707562717451015 29.707562717451015 29.707562717451015 29.707562717451015 29.707562717451015 29.707562717451015 29.707562717451015 29.707562717451015 29.707562717451015 29.707562717451015 29.707562717451015 29.707562717451015 29.707562717451015 29.707562717451015 29.707562717451015 29.707562717451015 29.707562717451015 29.707562717451015 29.707562717451015 29.707562717451015 29.707562717451015 29.707562717451015 29.707562717451015 29.707562717451015 29.6767991210401 29.6767991210401 29.6767991210401 29.6767991210401 29.707562717451015 29.707562717451015 29.6767991210401 29.6767991210401 29.6767991210401 29.707562717451015 29.6767991210401 29.6767991210401 29.6767991210401 29.707562717451015 29.6767991210401 29.6767991210401 29.707562717451015 29.6767991210401 29.6767991210401 29.6767991210401 29.6767991210401 29.6767991210401 29.6767991210401 29.6767991210401 29.6767991210401 29.6767991210401 29.6767991210401 29.6767991210401 29.6767991210401 29.6767991210401 29.6767991210401 29.6767991210401 29.6767991210401 29.6767991210401 29.6767991210401 29.6767991210401 29.6767991210401 29.6767991210401 29.6767991210401 29.6767991210401 29.6767991210401 29.6767991210401 29.6767991210401 29.6767991210401 29.6767991210401 29.6767991210401 29.6767991210401 29.6767991210401 29.6767991210401 29.6767991210401 29.6767991210401 29.6767991210401 29.6767991210401 29.6767991210401 29.6767991210401 29.646035524629188 29.646035524629188 29.6767991210401 29.646035524629188 29.646035524629188 29.646035524629188 29.6767991210401 29.646035524629188 29.6767991210401 29.6767991210401 29.6767991210401 29.646035524629188 29.646035524629188 29.6767991210401 29.6767991210401 29.646035524629188 29.6767991210401 29.646035524629188 29.6767991210401 29.646035524629188 29.646035524629188 29.6767991210401 29.6767991210401 29.6767991210401 29.646035524629188 29.6767991210401 29.646035524629188 29.646035524629188 29.646035524629188 29.646035524629188 29.6767991210401 29.646035524629188 29.646035524629188 29.646035524629188 29.646035524629188 29.646035524629188 29.646035524629188 29.646035524629188 29.646035524629188 29.646035524629188 29.646035524629188 29.646035524629188 29.646035524629188 29.646035524629188 29.646035524629188 29.646035524629188 29.646035524629188 29.646035524629188 29.646035524629188 29.646035524629188 29.646035524629188 29.615271928218274 29.615271928218274 29.615271928218274 29.615271928218274 29.615271928218274 29.615271928218274 29.615271928218274 29.615271928218274 29.615271928218274 29.615271928218274 29.615271928218274 29.615271928218274 29.615271928218274 29.615271928218274 29.615271928218274 29.615271928218274 29.615271928218274 29.615271928218274 29.615271928218274 29.615271928218274 29.615271928218274 29.615271928218274 29.615271928218274 29.615271928218274 29.615271928218274 29.58450833180736 29.615271928218274 29.58450833180736 29.58450833180736 29.58450833180736 29.58450833180736 29.58450833180736 29.553744735396446 29.553744735396446 29.58450833180736 29.553744735396446 29.553744735396446 29.553744735396446 29.553744735396446 29.553744735396446 29.553744735396446 29.553744735396446 29.553744735396446 29.553744735396446 29.553744735396446 29.553744735396446 29.553744735396446 29.553744735396446 29.553744735396446 29.553744735396446 29.553744735396446 29.553744735396446 29.553744735396446 29.553744735396446 29.553744735396446 29.553744735396446 29.553744735396446 29.553744735396446 29.553744735396446 29.553744735396446 29.553744735396446 29.553744735396446 29.553744735396446 29.553744735396446 29.553744735396446 29.553744735396446 29.553744735396446 29.553744735396446 29.553744735396446 29.553744735396446 29.553744735396446 29.553744735396446 29.553744735396446 29.553744735396446 29.553744735396446 29.553744735396446 29.553744735396446 29.553744735396446 29.553744735396446 29.553744735396446 29.553744735396446 29.553744735396446 29.553744735396446 29.553744735396446 29.553744735396446 29.553744735396446 29.553744735396446 29.553744735396446 29.553744735396446 29.553744735396446 29.553744735396446 29.553744735396446 29.553744735396446 29.553744735396446 29.553744735396446 29.553744735396446 29.553744735396446 29.553744735396446 29.553744735396446 29.553744735396446 29.553744735396446 29.553744735396446 29.553744735396446 29.553744735396446 29.553744735396446 29.553744735396446 29.553744735396446 29.553744735396446 29.553744735396446 29.553744735396446 29.553744735396446 29.553744735396446 29.553744735396446 29.553744735396446 29.553744735396446 29.553744735396446 29.553744735396446 29.553744735396446 29.553744735396446 29.553744735396446 29.553744735396446 29.553744735396446 29.553744735396446 29.553744735396446 29.553744735396446 29.553744735396446 29.553744735396446 29.553744735396446 29.553744735396446 29.553744735396446 29.553744735396446 29.553744735396446 29.553744735396446 29.553744735396446 29.553744735396446 29.553744735396446 29.553744735396446 29.553744735396446 29.553744735396446 29.553744735396446 29.553744735396446 29.553744735396446 29.553744735396446 29.553744735396446 29.553744735396446 29.553744735396446 29.553744735396446 29.553744735396446 29.553744735396446 29.553744735396446 29.553744735396446 29.553744735396446 29.553744735396446 29.553744735396446 29.553744735396446 29.553744735396446 29.553744735396446 29.553744735396446 29.553744735396446 29.553744735396446 29.553744735396446 29.553744735396446 29.553744735396446 29.553744735396446 29.553744735396446 29.553744735396446 29.553744735396446 29.553744735396446 29.553744735396446 29.553744735396446 29.553744735396446 29.553744735396446 29.553744735396446 29.553744735396446 29.522981138985532 29.553744735396446 29.553744735396446 29.553744735396446 29.553744735396446 29.553744735396446 29.553744735396446 29.553744735396446 29.553744735396446 29.553744735396446 29.553744735396446 29.553744735396446 29.553744735396446 29.553744735396446 29.553744735396446 29.553744735396446 29.553744735396446 29.553744735396446 29.522981138985532 29.553744735396446 29.553744735396446 29.553744735396446 29.553744735396446 29.553744735396446 29.553744735396446 29.553744735396446 29.553744735396446 29.553744735396446 29.553744735396446 29.553744735396446 29.522981138985532 29.553744735396446 29.553744735396446 29.522981138985532 29.553744735396446 29.553744735396446 29.553744735396446 29.553744735396446 29.522981138985532 29.553744735396446 29.553744735396446 29.553744735396446 29.553744735396446 29.553744735396446 29.553744735396446 29.553744735396446 29.553744735396446 29.553744735396446 29.553744735396446 29.553744735396446 29.553744735396446 29.553744735396446 29.553744735396446 29.553744735396446 29.553744735396446 29.553744735396446 29.553744735396446 29.553744735396446 29.553744735396446 29.553744735396446 29.553744735396446 29.553744735396446 29.553744735396446 29.553744735396446 29.553744735396446 29.522981138985532 29.553744735396446 29.553744735396446 29.553744735396446 29.553744735396446 29.553744735396446 29.553744735396446 29.522981138985532 29.522981138985532 29.522981138985532 29.522981138985532 29.522981138985532 29.553744735396446 29.522981138985532 29.522981138985532 29.553744735396446 29.553744735396446 29.553744735396446 29.553744735396446 29.553744735396446 29.522981138985532 29.522981138985532 29.522981138985532 29.522981138985532 29.522981138985532 29.522981138985532 29.553744735396446 29.553744735396446 29.553744735396446 29.553744735396446 29.522981138985532 29.522981138985532 29.553744735396446 29.553744735396446 29.553744735396446 29.553744735396446 29.553744735396446 29.522981138985532 29.553744735396446 29.522981138985532 29.522981138985532 29.522981138985532 29.553744735396446 29.553744735396446 29.522981138985532 29.553744735396446 29.553744735396446 29.553744735396446 29.553744735396446 29.522981138985532 29.522981138985532 29.522981138985532 29.522981138985532 29.553744735396446 29.553744735396446 29.553744735396446 29.522981138985532 29.522981138985532 29.522981138985532 29.522981138985532 29.522981138985532 29.522981138985532 29.522981138985532 29.522981138985532 29.522981138985532 29.522981138985532 29.522981138985532 29.522981138985532 29.553744735396446 29.522981138985532 29.553744735396446 29.553744735396446 29.522981138985532 29.522981138985532 29.522981138985532 29.522981138985532 29.522981138985532 29.522981138985532 29.522981138985532 29.522981138985532 29.522981138985532 29.522981138985532 29.522981138985532 29.553744735396446 29.522981138985532 29.522981138985532 29.522981138985532 29.522981138985532 29.522981138985532 29.522981138985532 29.522981138985532 29.553744735396446 29.522981138985532 29.522981138985532 29.522981138985532 29.522981138985532 29.522981138985532 29.522981138985532 29.522981138985532 29.522981138985532 29.522981138985532 29.522981138985532 29.553744735396446 29.522981138985532 29.522981138985532 29.522981138985532 29.522981138985532 29.522981138985532 29.522981138985532 29.522981138985532 29.522981138985532 29.522981138985532 29.522981138985532 29.522981138985532 29.522981138985532 29.522981138985532 29.522981138985532 29.522981138985532 29.522981138985532 29.522981138985532 29.522981138985532 29.522981138985532 29.522981138985532 29.522981138985532 29.522981138985532 29.522981138985532 29.522981138985532 29.522981138985532 29.522981138985532 29.522981138985532 29.522981138985532 29.522981138985532 29.522981138985532 29.553744735396446 29.522981138985532 29.522981138985532 29.522981138985532 29.522981138985532 29.522981138985532 29.522981138985532 29.522981138985532 29.522981138985532 29.522981138985532 29.522981138985532 29.522981138985532 29.522981138985532 29.522981138985532 29.522981138985532 29.522981138985532 29.522981138985532 29.522981138985532 29.553744735396446 29.522981138985532 29.522981138985532 29.522981138985532 29.522981138985532 29.522981138985532 29.522981138985532 29.522981138985532 29.522981138985532 29.522981138985532 29.522981138985532 29.522981138985532 29.522981138985532 29.522981138985532 29.522981138985532 29.522981138985532 29.522981138985532 29.522981138985532 29.522981138985532 29.522981138985532 29.522981138985532 29.522981138985532 29.522981138985532 29.522981138985532 29.522981138985532 29.553744735396446 29.522981138985532 29.522981138985532 29.522981138985532 29.522981138985532 29.522981138985532 29.522981138985532 29.553744735396446 29.522981138985532 29.522981138985532 29.522981138985532 29.522981138985532 29.522981138985532 29.522981138985532 29.522981138985532 29.522981138985532 29.553744735396446 29.522981138985532 29.522981138985532 29.522981138985532 29.522981138985532 29.522981138985532 29.522981138985532 29.522981138985532 29.522981138985532 29.522981138985532 29.522981138985532 29.522981138985532 29.522981138985532 29.522981138985532 29.522981138985532 29.522981138985532 29.522981138985532 29.522981138985532 29.522981138985532 29.522981138985532 29.522981138985532 29.522981138985532 29.522981138985532 29.522981138985532 29.522981138985532 29.522981138985532 29.522981138985532 29.522981138985532 29.522981138985532 29.522981138985532 29.522981138985532 29.522981138985532 29.522981138985532 29.522981138985532 29.522981138985532 29.522981138985532 29.522981138985532 29.522981138985532 29.553744735396446 29.522981138985532 29.522981138985532 29.553744735396446 29.553744735396446 29.553744735396446 29.553744735396446 29.58450833180736 29.58450833180736 29.615271928218274 29.615271928218274 29.615271928218274 29.646035524629188 29.646035524629188 29.6767991210401 29.707562717451015 29.707562717451015 29.73832631386193 29.769089910272843 29.769089910272843 29.799853506683757 29.83061710309467 29.83061710309467 29.861380699505585 29.8921442959165 29.922907892327412 29.953671488738326 29.98443508514924 30.015198681560154 30.045962277971068 30.07672587438198 30.13825306720381 30.169016663614723 30.199780260025637 30.261307452847465 30.322834645669293 30.353598242080206 30.415125434902034 30.47665262772386 30.599707013367514 30.66123420618934 30.784288591832997 30.907342977476652 31.030397363120308 31.12268815235305 31.245742537996705 31.307269730818533 31.399560520051274 31.461087712873102 31.491851309284012 31.55337850210584 31.64566929133858 31.70719648416041 31.768723676982237 31.830250869804065 31.891778062625892 31.95330525544772 31.984068851858634 32.014832448269544 32.1378868339132 32.168650430324114 32.29170481596777 32.47628639443325 32.87621314777513 33.18384911188427 33.49148507599341 33.73759384728072 33.983702618568024 34.19904779344442 34.56821095037539 34.84508331807361 35.183482878593665 35.583409631935545 35.89104559604468 36.506317524262954 36.87548068119392 37.21388024171397 37.70609778428859 38.04449734480864 38.53671488738326 39.275041201245195 39.79802234023072 40.290239882805345 40.690166636147225 41.05932979307819 41.61307452847464 42.04376487822743 42.812854788500275 43.42812671671855 43.95110785570408 44.4433253982787 44.84325215162058 45.21241530855154 45.98150521882439 46.38143197216627 46.965940303973625 47.550448635780995 47.91961179271196 48.473356528108404 48.9040468778612 49.39626442043581 49.95000915583226 50.31917231276323 50.81138985533785 51.33437099432338 51.73429774766526 52.44186046511628 52.99560520051273 53.42629555026552 53.79545870719648 54.16462186412745 54.56454861746933 55.24134773850943 55.67203808826222 56.13349203442593 56.502655191356894 56.841054751876946 57.517853872917044 57.82548983702618 58.317707379600805 58.809924922175426 59.14832448269547 59.60977842885918 59.94817798937923 60.40963193554294 60.87108588170665 61.240249038637614 61.6709393883904 61.947811756088626 62.409265702252334 62.870719648416035 63.33217359457974 63.79362754074345 64.16279069767441 64.50119025819447 64.93188060794725 65.20875297564548 65.60867972898737 65.97784288591834 66.19318806079472 66.50082402490386 66.83922358542392 67.02380516388939 67.33144112799853 67.54678630287492 67.82365867057315 68.10053103827138 68.31587621314777 68.62351217725691 68.93114814136604 69.14649331624244 69.42336568394066 69.60794726240616 70.03863761215894 70.34627357626809 70.46932796191174 70.8384911188427 71.08459989013001 71.26918146859549 71.63834462552646 71.79216260758102 72.06903497527925 72.34590734297747 72.53048892144295 72.83812488555209 73.0842336568394 73.29957883171579 73.57645119941402 73.7610327778795 74.03790514557772 74.43783189891961 74.6224134773851 74.93004944149423 75.14539461637062 75.3299761948361 75.63761215894525 75.85295733382165 76.25288408716352 76.59128364768358 76.83739241897088 77.17579197949092 77.45266434718914 77.72953671488739 78.19099066105107 78.59091741439296 78.8677897820912 79.23695293902216 79.51382530672038 79.91375206006225 80.31367881340414 80.55978758469143 80.9289507416224 81.1442959164988 81.45193188060794 81.8210950375389 82.0364402124153 82.28254898370261 82.49789415857902 82.65171214063358 82.89782091192089 83.05163889397545 83.35927485808459 83.57462003296098 83.72843801501557 83.97454678630287 84.18989196117926 84.37447353964475 84.68210950375389 84.89745467863028 85.1743270463285 85.45119941402672 85.63578099249222 85.88188976377953 86.066471342245 86.25105292071049 86.43563449917598 86.55868888481963 86.74327046328511 86.86632484892877 86.98937923457241 87.11243362021608 87.14319721662699 87.2047244094488 87.23548800585974 87.26625160227064 87.29701519868155 87.32777879509247 87.32777879509247 87.29701519868155 87.32777879509247 87.32777879509247 87.32777879509247 87.32777879509247 87.32777879509247 87.32777879509247 87.32777879509247 87.32777879509247 87.32777879509247 87.35854239150339 87.3893059879143 87.3893059879143 87.3893059879143 87.4200695843252 87.3893059879143 87.3893059879143 87.3893059879143 87.3893059879143 87.3893059879143 87.3893059879143 87.3893059879143 87.3893059879143 87.3893059879143 87.3893059879143 87.3893059879143 87.3893059879143 87.3893059879143 87.3893059879143 87.3893059879143 87.3893059879143 87.3893059879143 87.3893059879143 87.3893059879143 87.3893059879143 87.3893059879143 87.3893059879143 87.3893059879143 87.3893059879143 87.3893059879143 87.3893059879143 87.3893059879143 87.3893059879143 87.3893059879143 87.3893059879143 87.3893059879143 87.35854239150339 87.3893059879143 87.3893059879143 87.35854239150339 87.35854239150339 87.35854239150339 87.35854239150339 87.35854239150339 87.32777879509247 87.35854239150339 87.32777879509247 87.32777879509247 87.32777879509247 87.32777879509247 87.35854239150339 87.32777879509247 87.32777879509247 87.32777879509247 87.32777879509247 87.29701519868155 87.29701519868155 87.26625160227064 87.23548800585974 87.2047244094488 87.14319721662699 87.11243362021608 87.08167002380517 87.05090642739424 87.02014283098333 86.98937923457241 86.98937923457241 86.9586156381615 86.92785204175058 86.92785204175058 86.92785204175058 86.92785204175058 86.92785204175058 86.89708844533968 86.89708844533968 86.89708844533968 86.89708844533968 86.86632484892877 86.86632484892877 86.86632484892877 86.83556125251785 86.83556125251785 86.80479765610693 86.77403405969602 86.77403405969602 86.77403405969602 86.74327046328511 86.74327046328511 86.7125068668742 86.7125068668742 86.7125068668742 86.7125068668742 86.68174327046327 86.68174327046327 86.68174327046327 86.65097967405237 86.62021607764146 86.58945248123054 86.55868888481963 86.52792528840871 86.52792528840871 86.46639809558688 86.46639809558688 86.43563449917598 86.43563449917598 86.40487090276505 86.40487090276505 86.37410730635415 86.34334370994324 86.3125801135323 86.3125801135323 86.2818165171214 86.2818165171214 86.2818165171214 86.25105292071049 86.25105292071049 86.25105292071049 86.25105292071049 86.25105292071049 86.22028932429959 86.22028932429959 86.22028932429959 86.18952572788865 86.15876213147774 86.15876213147774 86.12799853506684 86.12799853506684 86.09723493865592 86.09723493865592 86.066471342245 86.03570774583409 86.00494414942318 86.00494414942318 86.00494414942318 86.00494414942318 85.97418055301226 85.97418055301226 85.97418055301226 85.97418055301226 85.97418055301226 85.97418055301226 85.97418055301226 85.97418055301226 85.97418055301226 85.97418055301226 85.97418055301226 85.94341695660134 85.97418055301226 85.97418055301226 85.91265336019043 85.88188976377953 85.8511261673686 85.8203625709577 85.78959897454678 85.75883537813587 85.69730818531404 85.66654458890312 85.63578099249222 85.60501739608131 85.60501739608131 85.60501739608131 85.60501739608131 85.60501739608131 85.60501739608131 85.57425379967039 85.60501739608131 85.54349020325947 85.48196301043765 85.48196301043765 85.48196301043765 85.45119941402672 85.48196301043765 85.45119941402672 85.45119941402672 85.45119941402672 85.48196301043765 85.45119941402672 85.45119941402672 85.48196301043765 85.45119941402672 85.48196301043765 85.48196301043765 85.48196301043765 85.45119941402672 85.48196301043765 85.48196301043765 85.48196301043765 85.48196301043765 85.48196301043765 85.45119941402672 85.45119941402672 85.45119941402672 85.45119941402672 85.45119941402672 85.45119941402672 85.45119941402672 85.48196301043765 85.45119941402672 85.42043581761581 85.3896722212049 85.358908624794 85.358908624794 85.358908624794 85.32814502838306 85.29738143197216 85.26661783556125 85.23585423915033 85.20509064273942 85.1435634499176 85.1435634499176 85.11279985350667 85.02050906427394 84.98974546786303 84.92821827504119 84.89745467863028 84.86669108221938 84.86669108221938 84.86669108221938 84.86669108221938 84.86669108221938 84.86669108221938 84.86669108221938 84.86669108221938 84.86669108221938 84.86669108221938 84.86669108221938 84.89745467863028 84.86669108221938 84.86669108221938 84.89745467863028 84.86669108221938 84.86669108221938 84.86669108221938 84.83592748580845 84.83592748580845 84.80516388939753 84.77440029298663 84.74363669657572 84.7128731001648 84.7128731001648 84.68210950375389 84.65134590734297 84.58981871452116 84.55905511811024 84.55905511811024 84.55905511811024 84.55905511811024 84.55905511811024 84.52829152169932 84.52829152169932 84.49752792528841 84.49752792528841 84.49752792528841 84.49752792528841 84.49752792528841 84.49752792528841 84.49752792528841 84.49752792528841 84.49752792528841 84.4667643288775 84.4667643288775 84.4667643288775 84.4667643288775 84.40523713605566 84.37447353964475 84.34370994323385 84.2514191540011 84.18989196117926 84.0360739791247 83.91301959348104 83.8207288042483 83.72843801501557 83.66691082219373 83.60538362937191 83.54385643655007 83.45156564731735 83.32851126167368 83.23622047244095 83.1439296832082 82.99011170115364 82.89782091192089 82.71323933345542 82.4671305621681 82.34407617652444 82.09796740523714 81.97491301959349 81.8210950375389 81.54422266984068 81.39040468778612 81.17505951290971 80.8981871452115 80.68284197033509 80.34444240981506 80.0368064457059 79.7906976744186 79.42153451748763 79.14466214978941 78.74473539644754 78.31404504669473 78.0064090825856 77.36037355795642 77.02197399743636 76.71433803332724 76.1913568943417 75.85295733382165 74.99157663431606 74.56088628456325 74.1917231276323 73.79179637429041 73.39186962094854 73.05347006042848 72.34590734297747 71.91521699322467 71.39223585423915 70.80772752243178 70.4078007690899 69.79252884087163 69.36183849111885 68.74656656290057 68.13129463468229 67.7006042849295 67.08533235671122 66.28547885002746 65.88555209668559 65.48562534334371 65.02417139718 64.50119025819447 63.978209119208934 63.60904596227797 62.93224684123786 62.409265702252334 61.97857535249954 61.57864859915766 61.240249038637614 60.74803149606299 60.28657754989928 59.91741439296832 59.45596044680461 59.025270097051816 58.68687053653177 58.071598608313494 57.88701702984801 57.39479948727339 56.90258194469877 56.47189159494598 56.0719648416041 55.48745650979674 54.99523896722212 54.7183665995239 54.41073063541476 54.10309467130563 53.67240432155283 53.364768357443694 52.78026002563632 52.288042483061716 51.88811572971983 51.42666178355613 51.08826222303607 50.534517487639626 50.10382713788683 49.79619117377769 49.365500824024906 48.93481047427211 48.65793810657389 48.25801135323201 47.85808459989013 47.519685039370074 47.1197582860282 46.78135872550815 46.38143197216627 45.950741622413474 45.52005127266068 45.05859732649698 44.81248855520967 44.50485259110053 44.10492583775865 43.828053470060425 43.21278154184215 42.905145577733016 42.44369163156931 42.04376487822743 41.73612891411829 41.3054385643655 40.936275407434536 40.6286394433254 40.22871268998352 39.95184032228529 39.582677165354326 39.15198681560154 38.8443508514924 38.19831532686321 37.89067936275407 37.58304339864493 37.21388024171397 36.93700787401575 36.53708112067387 35.98333638527742 35.706464017579194 35.337300860648234 35.029664896539096 34.783556125251785 34.537447353964474 34.41439296832082 34.26057498626625 34.137520600622594 34.075993407800766 33.95293902215711 33.89141182933528 33.829884636513455 33.7068302508698 33.64530305804798 33.55301226881524 33.460721479582496 33.42995788317158 33.33766709393884 33.2453763047061 33.15308551547336 33.12232191906244 33.09155832265153 33.09155832265153 33.09155832265153 33.060794726240616 33.0300311298297 32.99926753341879 32.99926753341879 32.968503937007874 32.93774034059696 32.906976744186046 32.84544955136422 32.78392235854239 32.72239516572056 32.660867972898735 32.568577183665994 32.47628639443325 32.414759201611425 32.3532320087896 32.29170481596777 32.260941219556855 32.260941219556855 32.23017762314594 32.168650430324114 32.07635964109137 31.984068851858634 31.891778062625892 31.768723676982237 31.64566929133858 31.491851309284012 31.338033327229446 31.12268815235305 30.999633766709394 30.938106573887566 30.938106573887566 30.96887017029848 30.96887017029848 30.938106573887566 30.938106573887566 30.938106573887566 30.938106573887566 30.938106573887566 30.938106573887566 30.938106573887566 30.907342977476652 30.938106573887566 30.907342977476652 30.907342977476652 30.907342977476652 30.907342977476652 30.907342977476652 30.87657938106574 30.87657938106574 30.87657938106574 30.87657938106574 30.845815784654825 30.845815784654825 30.845815784654825 30.81505218824391 30.81505218824391 30.784288591832997 30.753524995422083 30.72276139901117 30.66123420618934 30.630470609778428 30.5689434169566 30.538179820545686 30.47665262772386 30.445889031312948 30.38436183849112 30.322834645669293 30.29207104925838 30.23054385643655 30.23054385643655 30.199780260025637 30.169016663614723 30.169016663614723 30.169016663614723 30.169016663614723 30.169016663614723 30.169016663614723 30.169016663614723 30.169016663614723 30.13825306720381 30.13825306720381 30.13825306720381 30.13825306720381 30.107489470792896 30.107489470792896 30.107489470792896 30.107489470792896 30.107489470792896 30.07672587438198 30.07672587438198 30.07672587438198 30.07672587438198 30.07672587438198 30.045962277971068 30.045962277971068 30.045962277971068 30.045962277971068 30.015198681560154 30.015198681560154 30.015198681560154 30.015198681560154 30.015198681560154 30.015198681560154 30.015198681560154 29.98443508514924 29.98443508514924 29.98443508514924 29.98443508514924 29.953671488738326 29.98443508514924 29.953671488738326 29.953671488738326 29.953671488738326 29.953671488738326 29.953671488738326 29.953671488738326 29.953671488738326 29.953671488738326 29.953671488738326 29.953671488738326 29.953671488738326 29.953671488738326 29.953671488738326 29.953671488738326 29.953671488738326 29.953671488738326 29.922907892327412 29.953671488738326 29.922907892327412 29.922907892327412 29.922907892327412 29.922907892327412 29.922907892327412 29.922907892327412 29.922907892327412 29.922907892327412 29.922907892327412 29.922907892327412 29.922907892327412 29.922907892327412 29.922907892327412 29.922907892327412 29.922907892327412 29.8921442959165 29.922907892327412 29.8921442959165 29.8921442959165 29.8921442959165 29.8921442959165 29.8921442959165 29.8921442959165 29.8921442959165 29.8921442959165 29.8921442959165 29.8921442959165 29.8921442959165 29.8921442959165 29.8921442959165 29.8921442959165 29.8921442959165 29.8921442959165 29.8921442959165 29.8921442959165 29.8921442959165 29.8921442959165 29.8921442959165 29.8921442959165 29.861380699505585 29.8921442959165 29.8921442959165 29.861380699505585 29.861380699505585 29.8921442959165 29.861380699505585 29.8921442959165 29.8921442959165 29.861380699505585 29.861380699505585 29.861380699505585 29.8921442959165 29.861380699505585 29.861380699505585 29.861380699505585 29.861380699505585 29.861380699505585 29.861380699505585 29.861380699505585 29.8921442959165 29.861380699505585 29.861380699505585 29.861380699505585 29.861380699505585 29.861380699505585 29.861380699505585 29.861380699505585 29.861380699505585 29.861380699505585 29.861380699505585 29.861380699505585 29.861380699505585 29.861380699505585 29.861380699505585 29.861380699505585 29.861380699505585 29.861380699505585 29.861380699505585 29.861380699505585 29.861380699505585 29.861380699505585 29.861380699505585 29.861380699505585 29.861380699505585 29.861380699505585 29.861380699505585 29.861380699505585 29.861380699505585 29.861380699505585 29.861380699505585 29.861380699505585 29.861380699505585 29.861380699505585 29.861380699505585 29.861380699505585 29.861380699505585 29.861380699505585 29.861380699505585 29.861380699505585 29.861380699505585 29.861380699505585 29.861380699505585 29.861380699505585 29.83061710309467 29.861380699505585 29.861380699505585 29.861380699505585 29.83061710309467 29.861380699505585 29.861380699505585 29.861380699505585 29.861380699505585 29.83061710309467 29.861380699505585 29.861380699505585 29.861380699505585 29.861380699505585 29.861380699505585 29.83061710309467 29.861380699505585 29.83061710309467 29.83061710309467 29.861380699505585 29.861380699505585 29.861380699505585 29.861380699505585 29.83061710309467 29.861380699505585 29.83061710309467 29.861380699505585 29.861380699505585 29.861380699505585 29.861380699505585 29.861380699505585 29.83061710309467 29.861380699505585 29.861380699505585 29.83061710309467 29.83061710309467 29.83061710309467 29.83061710309467 29.83061710309467 29.83061710309467 29.83061710309467 29.861380699505585 29.83061710309467 29.83061710309467 29.83061710309467 29.83061710309467 29.83061710309467 29.83061710309467 29.83061710309467 29.83061710309467 29.861380699505585 29.83061710309467 29.83061710309467 29.83061710309467 29.83061710309467 29.83061710309467 29.83061710309467 29.861380699505585 29.83061710309467 29.83061710309467 29.83061710309467 29.83061710309467 29.83061710309467 29.83061710309467 29.83061710309467 29.83061710309467 29.83061710309467 29.83061710309467 29.83061710309467 29.83061710309467 29.83061710309467 29.83061710309467 29.83061710309467 29.83061710309467 29.83061710309467 29.83061710309467 29.83061710309467 29.83061710309467 29.83061710309467 29.799853506683757 29.83061710309467 29.83061710309467 29.83061710309467 29.83061710309467 29.83061710309467 29.83061710309467 29.83061710309467 29.83061710309467 29.83061710309467 29.83061710309467 29.83061710309467 29.83061710309467 29.83061710309467 29.83061710309467 29.83061710309467 29.83061710309467 29.83061710309467 29.83061710309467 29.83061710309467 29.83061710309467 29.83061710309467 29.83061710309467 29.83061710309467 29.799853506683757 29.83061710309467 29.83061710309467 29.83061710309467 29.83061710309467 29.83061710309467 29.83061710309467 29.83061710309467 29.83061710309467 29.83061710309467 29.83061710309467 29.83061710309467 29.83061710309467 29.83061710309467 29.83061710309467 29.83061710309467 29.83061710309467 29.83061710309467 29.799853506683757 29.83061710309467 29.83061710309467 29.83061710309467 29.799853506683757 29.799853506683757 29.799853506683757 29.799853506683757 29.83061710309467 29.83061710309467 29.799853506683757 29.83061710309467 29.83061710309467 29.799853506683757 29.799853506683757 29.83061710309467 29.799853506683757 29.83061710309467 29.799853506683757 29.799853506683757 29.799853506683757 29.799853506683757 29.83061710309467 29.799853506683757 29.799853506683757 29.799853506683757 29.799853506683757 29.799853506683757 29.799853506683757 29.799853506683757 29.799853506683757 29.799853506683757 29.799853506683757 29.799853506683757 29.799853506683757 29.799853506683757 29.799853506683757 29.799853506683757 29.799853506683757 29.799853506683757 29.799853506683757 29.799853506683757 29.799853506683757 29.799853506683757 29.799853506683757 29.799853506683757 29.799853506683757 29.799853506683757 29.799853506683757 29.799853506683757 29.799853506683757 29.799853506683757 29.799853506683757 29.799853506683757 29.799853506683757 29.799853506683757 29.799853506683757 29.799853506683757 29.799853506683757 29.799853506683757 29.799853506683757 29.799853506683757 29.799853506683757 29.769089910272843 29.799853506683757 29.799853506683757 29.769089910272843 29.799853506683757 29.769089910272843 29.799853506683757 29.799853506683757 29.799853506683757 29.799853506683757 29.799853506683757 29.799853506683757 29.799853506683757 29.769089910272843 29.799853506683757 29.799853506683757 29.799853506683757 29.799853506683757 29.799853506683757 29.799853506683757 29.799853506683757 29.799853506683757 29.799853506683757 29.799853506683757 29.799853506683757 29.799853506683757 29.799853506683757 29.799853506683757 29.799853506683757 29.799853506683757 29.799853506683757 29.799853506683757 29.799853506683757 29.799853506683757 29.799853506683757 29.799853506683757 29.799853506683757 29.799853506683757 29.799853506683757 29.799853506683757 29.799853506683757 29.799853506683757 29.799853506683757 29.799853506683757 29.799853506683757 29.799853506683757 29.799853506683757 29.799853506683757 29.799853506683757 29.769089910272843 29.799853506683757 29.799853506683757 29.799853506683757 29.799853506683757 29.769089910272843 29.799853506683757 29.799853506683757 29.799853506683757 29.799853506683757 29.799853506683757 29.799853506683757 29.799853506683757 29.799853506683757 29.799853506683757 29.799853506683757 29.769089910272843 29.799853506683757 29.799853506683757 29.799853506683757 29.799853506683757 29.799853506683757 29.799853506683757 29.799853506683757 29.769089910272843 29.799853506683757 29.799853506683757 29.799853506683757 29.799853506683757 29.799853506683757 29.769089910272843 29.799853506683757 29.799853506683757 29.799853506683757 29.799853506683757 29.799853506683757 29.799853506683757 29.799853506683757 29.799853506683757 29.799853506683757 29.799853506683757 29.799853506683757 29.799853506683757 29.799853506683757 29.799853506683757 29.799853506683757 29.799853506683757 29.769089910272843 29.769089910272843 29.799853506683757 29.799853506683757 29.799853506683757 29.799853506683757 29.799853506683757 29.799853506683757 29.799853506683757 29.769089910272843 29.769089910272843 29.799853506683757 29.799853506683757 29.769089910272843 29.799853506683757 29.769089910272843 29.769089910272843 29.799853506683757 29.799853506683757 29.799853506683757 29.769089910272843 29.769089910272843 29.769089910272843 29.799853506683757 29.769089910272843 29.799853506683757 29.799853506683757 29.769089910272843 29.799853506683757 29.799853506683757 29.799853506683757 29.769089910272843 29.769089910272843 29.799853506683757 29.799853506683757 29.799853506683757 29.799853506683757 29.799853506683757 29.799853506683757 29.799853506683757 29.799853506683757 29.799853506683757 29.799853506683757 29.799853506683757 29.799853506683757 29.799853506683757 29.799853506683757 29.769089910272843 29.769089910272843 29.769089910272843 29.769089910272843 29.799853506683757 29.799853506683757 29.799853506683757 29.769089910272843 29.799853506683757 29.799853506683757 29.799853506683757 29.799853506683757 29.799853506683757 29.799853506683757 29.769089910272843 29.769089910272843 29.769089910272843 29.769089910272843 29.769089910272843 29.799853506683757 29.799853506683757 29.799853506683757 29.799853506683757 29.799853506683757 29.769089910272843 29.769089910272843 29.799853506683757 29.769089910272843 29.799853506683757 29.799853506683757 29.799853506683757 29.769089910272843 29.769089910272843 29.769089910272843 29.799853506683757 29.769089910272843 29.769089910272843 29.769089910272843 29.769089910272843 29.769089910272843 29.769089910272843 29.769089910272843 29.769089910272843 29.769089910272843 29.799853506683757 29.769089910272843 29.769089910272843 29.769089910272843 29.769089910272843 29.769089910272843 29.769089910272843 29.769089910272843 29.769089910272843 29.769089910272843 29.769089910272843 29.769089910272843 29.769089910272843 29.769089910272843 29.769089910272843 29.769089910272843 29.769089910272843 29.769089910272843 29.769089910272843 29.769089910272843 29.769089910272843 29.769089910272843 29.769089910272843 29.769089910272843 29.769089910272843 29.769089910272843 29.769089910272843 29.769089910272843 29.769089910272843 29.769089910272843 29.769089910272843 29.769089910272843 29.769089910272843 29.769089910272843 29.769089910272843 29.769089910272843 29.769089910272843 29.769089910272843 29.769089910272843 29.769089910272843 29.769089910272843 29.769089910272843 29.769089910272843 29.769089910272843 29.769089910272843 29.769089910272843 29.769089910272843 29.769089910272843 29.769089910272843 29.769089910272843 29.769089910272843 29.769089910272843 29.769089910272843 29.769089910272843 29.769089910272843 29.769089910272843 29.769089910272843 29.769089910272843 29.769089910272843 29.769089910272843 29.769089910272843 29.769089910272843 29.769089910272843 29.769089910272843 29.769089910272843 29.769089910272843 29.769089910272843 29.769089910272843 29.769089910272843 29.769089910272843 29.769089910272843 29.769089910272843 29.769089910272843 29.769089910272843 29.769089910272843 29.769089910272843 29.769089910272843 29.769089910272843 29.769089910272843 29.769089910272843 29.769089910272843 29.769089910272843 29.769089910272843 29.769089910272843 29.769089910272843 29.769089910272843 29.769089910272843 29.769089910272843 29.769089910272843 29.769089910272843 29.769089910272843 29.769089910272843 29.769089910272843 29.769089910272843 29.769089910272843 29.769089910272843 29.769089910272843 29.769089910272843 29.769089910272843 29.769089910272843 29.769089910272843 29.769089910272843 29.769089910272843 29.769089910272843 29.769089910272843 29.769089910272843 29.769089910272843 29.769089910272843 29.769089910272843 29.769089910272843 29.769089910272843 29.769089910272843 29.769089910272843 29.769089910272843 29.769089910272843 29.769089910272843 29.769089910272843 29.769089910272843 29.769089910272843 29.769089910272843 29.769089910272843 29.769089910272843 29.769089910272843 29.769089910272843 29.769089910272843 29.769089910272843 29.769089910272843 29.769089910272843 29.769089910272843 29.769089910272843 29.769089910272843 29.769089910272843 29.769089910272843 29.769089910272843 29.769089910272843 29.769089910272843 29.769089910272843 29.769089910272843 29.769089910272843 29.769089910272843 29.769089910272843 29.769089910272843 29.769089910272843 29.769089910272843 29.769089910272843 29.769089910272843 29.769089910272843 29.769089910272843 29.769089910272843 29.769089910272843 29.769089910272843 29.769089910272843 29.769089910272843 29.769089910272843 29.769089910272843 29.769089910272843 29.769089910272843 29.769089910272843 29.769089910272843 29.769089910272843 29.769089910272843 29.769089910272843 29.769089910272843 29.769089910272843 29.769089910272843 29.769089910272843 29.769089910272843 29.769089910272843 29.769089910272843 29.769089910272843 29.769089910272843 29.769089910272843 29.769089910272843 29.769089910272843 29.769089910272843 29.769089910272843 29.769089910272843 29.769089910272843 29.769089910272843 29.769089910272843 29.769089910272843 29.769089910272843 29.769089910272843 29.769089910272843 29.769089910272843 29.769089910272843 29.769089910272843 29.769089910272843 29.769089910272843 29.769089910272843 29.769089910272843 29.769089910272843 29.769089910272843 29.769089910272843 29.73832631386193 29.769089910272843 29.769089910272843 29.769089910272843 29.769089910272843 29.769089910272843 29.769089910272843 29.769089910272843 29.769089910272843 29.769089910272843 29.769089910272843 29.769089910272843 29.769089910272843 29.769089910272843 29.769089910272843 29.769089910272843 29.769089910272843 29.769089910272843 29.769089910272843 29.769089910272843 29.769089910272843 29.769089910272843 29.73832631386193 29.769089910272843 29.769089910272843 29.769089910272843 29.769089910272843 29.769089910272843 29.769089910272843 29.769089910272843 29.769089910272843 29.769089910272843 29.769089910272843 29.769089910272843 29.769089910272843 29.769089910272843 29.769089910272843 29.769089910272843 29.769089910272843 29.769089910272843 29.769089910272843 29.769089910272843 29.769089910272843 29.769089910272843 29.769089910272843 29.769089910272843 29.769089910272843 29.769089910272843 29.769089910272843 29.769089910272843 29.769089910272843 29.769089910272843 29.799853506683757 29.799853506683757 29.83061710309467 29.83061710309467 29.861380699505585 29.8921442959165 29.8921442959165 29.922907892327412 29.922907892327412 29.953671488738326 29.98443508514924 29.98443508514924 30.015198681560154 30.045962277971068 30.107489470792896 30.13825306720381 30.169016663614723 30.199780260025637 30.261307452847465 30.29207104925838 30.38436183849112 30.47665262772386 30.507416224134772 30.5689434169566 30.630470609778428 30.753524995422083 30.845815784654825 30.938106573887566 31.12268815235305 31.27650613440762 31.399560520051274 31.430324116462188 31.461087712873102 31.461087712873102 31.461087712873102 31.491851309284012 31.491851309284012 31.522614905694926 31.584142098516754 31.737960080571323 31.86101446621498 31.984068851858634 32.23017762314594 32.63010437648782 32.906976744186046 33.39919428676067 33.7068302508698 34.01446621497894 34.29133858267716 34.66050173960813 34.99890130012818 35.27577366782641 35.61417322834646 35.9218091924556 36.198681560153815 36.56784471708478 36.84471708478301 37.24464383812489 37.70609778428859 38.075260941219554 38.53671488738326 39.33656839406702 39.7364951474089 40.1979490935726 40.87474821461271 41.27467496795458 41.85918329976195 42.505218824391136 43.0897271561985 43.73576268082768 44.16645303058048 44.75096136238784 45.15088811572972 45.70463285112616 46.25837758652261 46.658304339864486 47.18128547885003 47.73503021424648 48.25801135323201 48.99633766709394 49.21168284197033 49.85771836659953 50.4729902948178 51.02673503021424 51.61124336202161 52.288042483061716 52.903314411279986 53.54934993590917 54.01080388207288 54.7183665995239 55.30287493133125 55.85661966672771 56.53341878776781 56.994872733931516 57.67167185497162 58.317707379600805 58.7483977293536 59.425196850393704 60.00970518220106 60.440395531953854 61.02490386376122 61.42483061710309 62.009338948910454 62.68613806995056 63.024537630470604 63.48599157663431 63.79362754074345 64.1012635048526 64.53195385460538 64.80882622230361 65.30104376487822 65.67020692180918 65.9163156930965 66.22395165720565 66.47006042849296 66.71616919978025 67.08533235671122 67.2699139351767 67.57754989928584 67.88518586339498 68.06976744186046 68.40816700238051 68.68503937007873 68.90038454495513 69.20802050906427 69.42336568394066 69.73100164804981 70.10016480498078 70.43856436550081 70.77696392602087 71.02307269730818 71.26918146859549 71.63834462552646 71.88445339681377 72.34590734297747 72.65354330708661 72.89965207837392 73.20728804248306 73.45339681377037 73.66874198864676 73.97637795275591 74.13019593481047 74.40706830250869 74.653177073796 74.80699505585056 75.02234023072697 75.17615821278153 75.39150338765793 75.60684856253434 75.729902948178 75.91448452664346 76.09906610510895 76.2221204907526 76.46822926203993 76.62204724409449 76.74510162973814 76.92968320820361 77.17579197949092 77.42190075077824 77.66800952206555 77.82182750412012 78.09869987181834 78.31404504669473 78.62168101080388 78.99084416773485 79.29848013184399 79.75993407800769 80.2213880241714 80.55978758469143 80.99047793444424 81.29811389855337 81.69804065189524 82.09796740523714 82.37483977293536 82.74400292986633 83.1439296832082 83.42080205090642 83.57462003296098 83.69767441860465 83.78996520783738 83.8207288042483 83.85149240065923 83.85149240065923 83.85149240065923 83.88225599707013 83.85149240065923 83.88225599707013 83.88225599707013 83.85149240065923 83.88225599707013 83.88225599707013 83.91301959348104 83.94378318989196 84.06683757553562 84.12836476835744 84.15912836476835 84.2514191540011 84.34370994323385 84.40523713605566 84.52829152169932 84.58981871452116 84.65134590734297 84.68210950375389 84.74363669657572 84.77440029298663 84.80516388939753 84.83592748580845 84.89745467863028 84.86669108221938 84.89745467863028 84.89745467863028 84.89745467863028 84.89745467863028 84.89745467863028 84.89745467863028 84.89745467863028 84.89745467863028 84.89745467863028 84.86669108221938 84.89745467863028 84.89745467863028 84.89745467863028 84.86669108221938 84.86669108221938 84.86669108221938 84.86669108221938 84.86669108221938 84.86669108221938 84.86669108221938 84.86669108221938 84.86669108221938 84.86669108221938 84.86669108221938 84.86669108221938 84.86669108221938 84.86669108221938 84.86669108221938 84.86669108221938 84.86669108221938 84.86669108221938 84.86669108221938 84.83592748580845 84.83592748580845 84.83592748580845 84.83592748580845 84.83592748580845 84.83592748580845 84.83592748580845 84.83592748580845 84.83592748580845 84.83592748580845 84.83592748580845 84.83592748580845 84.83592748580845 84.83592748580845 84.83592748580845 84.83592748580845 84.83592748580845 84.83592748580845 84.83592748580845 84.83592748580845 84.83592748580845 84.83592748580845 84.83592748580845 84.83592748580845 84.83592748580845 84.83592748580845 84.80516388939753 84.83592748580845 84.83592748580845 84.80516388939753 84.83592748580845 84.80516388939753 84.80516388939753 84.77440029298663 84.77440029298663 84.74363669657572 84.74363669657572 84.7128731001648 84.7128731001648 84.68210950375389 84.65134590734297 84.65134590734297 84.65134590734297 84.65134590734297 84.65134590734297 84.62058231093206 84.62058231093206 84.65134590734297 84.65134590734297 84.62058231093206 84.65134590734297 84.62058231093206 84.62058231093206 84.62058231093206 84.62058231093206 84.62058231093206 84.62058231093206 84.62058231093206 84.62058231093206 84.62058231093206 84.62058231093206 84.62058231093206 84.62058231093206 84.62058231093206 84.62058231093206 84.62058231093206 84.62058231093206 84.62058231093206 84.62058231093206 84.62058231093206 84.62058231093206 84.62058231093206 84.62058231093206 84.58981871452116 84.55905511811024 84.55905511811024 84.52829152169932 84.52829152169932 84.52829152169932 84.49752792528841 84.49752792528841 84.49752792528841 84.49752792528841 84.49752792528841 84.49752792528841 84.49752792528841 84.49752792528841 84.49752792528841 84.49752792528841 84.49752792528841 84.49752792528841 84.49752792528841 84.49752792528841 84.49752792528841 84.49752792528841 84.49752792528841 84.4667643288775 84.49752792528841 84.49752792528841 84.49752792528841 84.49752792528841 84.4667643288775 84.4667643288775 84.43600073246657 84.40523713605566 84.40523713605566 84.34370994323385 84.31294634682291 