25.0 25.0 25.0 25.0 25.0 25.0 25.0 24.978026002563634 25.0 25.0 25.0 25.0 25.0 25.0 25.0 25.0 25.0 25.0 25.0 25.0 25.0 25.0 25.0 25.0 25.0 25.0 25.0 24.978026002563634 25.0 24.978026002563634 24.978026002563634 25.0 24.978026002563634 24.978026002563634 25.0 25.0 25.0 25.0 25.0 24.978026002563634 24.978026002563634 24.978026002563634 24.978026002563634 24.978026002563634 24.978026002563634 24.978026002563634 25.0 24.978026002563634 25.0 24.978026002563634 24.978026002563634 25.0 24.978026002563634 24.978026002563634 24.978026002563634 24.978026002563634 24.978026002563634 24.978026002563634 24.978026002563634 24.978026002563634 24.978026002563634 24.978026002563634 24.978026002563634 24.978026002563634 24.978026002563634 24.978026002563634 25.0 25.0 24.978026002563634 25.0 25.0 25.0 24.978026002563634 25.0 24.978026002563634 24.978026002563634 24.978026002563634 24.978026002563634 25.0 24.978026002563634 25.0 24.978026002563634 25.0 24.978026002563634 25.0 24.978026002563634 25.0 24.978026002563634 25.0 25.0 25.0 25.0 24.978026002563634 25.0 25.0 25.0 25.0 25.0 25.0 24.978026002563634 25.0 24.978026002563634 25.0 25.0 25.0 25.0 25.0 25.0 25.0 25.0 25.0 25.0 25.0 25.0 25.021973997436366 25.021973997436366 25.021973997436366 25.021973997436366 25.021973997436366 25.021973997436366 25.0 25.021973997436366 25.021973997436366 25.021973997436366 25.0 25.021973997436366 25.0 25.021973997436366 25.021973997436366 25.021973997436366 25.021973997436366 25.021973997436366 25.021973997436366 25.0 25.0 25.021973997436366 25.0 25.021973997436366 25.021973997436366 25.0 25.021973997436366 25.021973997436366 25.021973997436366 25.0 25.021973997436366 25.021973997436366 25.021973997436366 25.021973997436366 25.021973997436366 25.021973997436366 25.021973997436366 25.021973997436366 25.021973997436366 25.021973997436366 25.021973997436366 25.021973997436366 25.021973997436366 25.021973997436366 25.021973997436366 25.021973997436366 25.021973997436366 25.021973997436366 25.021973997436366 25.021973997436366 25.021973997436366 25.021973997436366 25.021973997436366 25.021973997436366 25.021973997436366 25.021973997436366 25.021973997436366 25.021973997436366 25.021973997436366 25.021973997436366 25.021973997436366 25.021973997436366 25.021973997436366 25.021973997436366 25.021973997436366 25.021973997436366 25.021973997436366 25.021973997436366 25.021973997436366 25.021973997436366 25.021973997436366 25.021973997436366 25.021973997436366 25.021973997436366 25.021973997436366 25.021973997436366 25.021973997436366 25.0 25.021973997436366 25.021973997436366 25.021973997436366 25.021973997436366 25.021973997436366 25.021973997436366 25.021973997436366 25.021973997436366 25.021973997436366 25.021973997436366 25.021973997436366 25.021973997436366 25.021973997436366 25.021973997436366 25.021973997436366 25.021973997436366 25.021973997436366 25.021973997436366 25.021973997436366 25.021973997436366 25.021973997436366 25.021973997436366 25.021973997436366 25.0 25.021973997436366 25.021973997436366 25.021973997436366 25.021973997436366 25.0 25.021973997436366 25.021973997436366 25.021973997436366 25.021973997436366 25.021973997436366 25.021973997436366 25.021973997436366 25.021973997436366 25.021973997436366 25.021973997436366 25.021973997436366 25.021973997436366 25.021973997436366 25.021973997436366 25.021973997436366 25.021973997436366 25.021973997436366 25.021973997436366 25.021973997436366 25.021973997436366 25.021973997436366 25.021973997436366 25.021973997436366 25.021973997436366 25.021973997436366 25.021973997436366 25.021973997436366 25.021973997436366 25.021973997436366 25.021973997436366 25.021973997436366 25.021973997436366 25.021973997436366 25.021973997436366 25.021973997436366 25.021973997436366 25.021973997436366 25.021973997436366 25.021973997436366 25.021973997436366 25.021973997436366 25.021973997436366 25.021973997436366 25.021973997436366 25.021973997436366 25.021973997436366 25.021973997436366 25.021973997436366 25.021973997436366 25.021973997436366 25.021973997436366 25.021973997436366 25.021973997436366 25.021973997436366 25.021973997436366 25.021973997436366 25.0 25.021973997436366 25.021973997436366 25.021973997436366 25.021973997436366 25.021973997436366 25.021973997436366 25.021973997436366 25.021973997436366 25.021973997436366 25.021973997436366 25.021973997436366 25.021973997436366 25.021973997436366 25.021973997436366 25.021973997436366 25.021973997436366 25.021973997436366 25.021973997436366 25.021973997436366 25.021973997436366 25.021973997436366 25.021973997436366 25.021973997436366 25.021973997436366 25.021973997436366 25.021973997436366 25.0 25.021973997436366 25.021973997436366 25.021973997436366 25.021973997436366 25.021973997436366 25.021973997436366 25.021973997436366 25.021973997436366 25.021973997436366 25.021973997436366 25.021973997436366 25.021973997436366 25.021973997436366 25.021973997436366 25.021973997436366 25.021973997436366 25.021973997436366 25.021973997436366 25.021973997436366 25.021973997436366 25.021973997436366 25.021973997436366 25.021973997436366 25.021973997436366 25.021973997436366 25.0 25.0 25.021973997436366 25.021973997436366 25.021973997436366 25.021973997436366 25.021973997436366 25.021973997436366 25.021973997436366 25.021973997436366 25.0 25.021973997436366 25.021973997436366 25.021973997436366 25.021973997436366 25.021973997436366 25.021973997436366 25.021973997436366 25.021973997436366 25.0 25.0 25.021973997436366 25.021973997436366 25.021973997436366 25.021973997436366 25.021973997436366 25.0 25.021973997436366 25.021973997436366 25.021973997436366 25.0 25.021973997436366 25.021973997436366 25.021973997436366 25.0 25.021973997436366 25.021973997436366 25.021973997436366 25.021973997436366 25.021973997436366 25.021973997436366 25.021973997436366 25.043947994872735 25.021973997436366 25.021973997436366 25.021973997436366 25.043947994872735 25.043947994872735 25.043947994872735 25.043947994872735 25.043947994872735 25.043947994872735 25.0659219923091 25.0659219923091 25.0659219923091 25.0659219923091 25.0659219923091 25.0659219923091 25.0659219923091 25.0659219923091 25.0659219923091 25.0659219923091 25.0659219923091 25.0659219923091 25.0659219923091 25.0659219923091 25.0659219923091 25.0659219923091 25.0659219923091 25.0659219923091 25.0659219923091 25.0659219923091 25.0659219923091 25.0659219923091 25.0659219923091 25.0659219923091 25.0659219923091 25.0659219923091 25.0659219923091 25.0659219923091 25.0659219923091 25.0659219923091 25.0659219923091 25.0659219923091 25.0659219923091 25.0659219923091 25.0659219923091 25.0659219923091 25.0659219923091 25.0659219923091 25.0659219923091 25.0659219923091 25.0659219923091 25.0659219923091 25.0659219923091 25.0659219923091 25.0659219923091 25.0659219923091 25.0659219923091 25.0659219923091 25.0659219923091 25.0659219923091 25.0659219923091 25.0659219923091 25.0659219923091 25.0659219923091 25.0659219923091 25.0659219923091 25.0659219923091 25.0659219923091 25.0659219923091 25.0659219923091 25.0659219923091 25.0659219923091 25.0659219923091 25.0659219923091 25.0659219923091 25.0659219923091 25.0659219923091 25.0659219923091 25.0659219923091 25.0659219923091 25.0659219923091 25.0659219923091 25.0659219923091 25.0659219923091 25.0659219923091 25.0659219923091 25.0659219923091 25.0659219923091 25.0659219923091 25.0659219923091 25.0659219923091 25.0659219923091 25.0659219923091 25.0659219923091 25.0659219923091 25.0659219923091 25.0659219923091 25.0659219923091 25.0659219923091 25.0659219923091 25.0659219923091 25.0659219923091 25.0659219923091 25.0659219923091 25.0659219923091 25.0659219923091 25.0659219923091 25.0659219923091 25.0659219923091 25.0659219923091 25.0659219923091 25.0659219923091 25.0659219923091 25.0659219923091 25.0659219923091 25.0659219923091 25.0659219923091 25.0659219923091 25.0659219923091 25.0659219923091 25.0659219923091 25.0659219923091 25.0659219923091 25.0659219923091 25.0659219923091 25.0659219923091 25.0659219923091 25.0659219923091 25.0659219923091 25.0659219923091 25.0659219923091 25.0659219923091 25.0659219923091 25.0659219923091 25.0659219923091 25.0659219923091 25.0659219923091 25.0659219923091 25.0659219923091 25.0659219923091 25.0659219923091 25.0659219923091 25.0659219923091 25.0659219923091 25.0659219923091 25.0659219923091 25.0659219923091 25.0659219923091 25.0659219923091 25.0659219923091 25.0659219923091 25.0659219923091 25.0659219923091 25.0659219923091 25.0659219923091 25.0659219923091 25.0659219923091 25.0659219923091 25.0659219923091 25.0659219923091 25.08789598974547 25.0659219923091 25.0659219923091 25.0659219923091 25.0659219923091 25.0659219923091 25.0659219923091 25.0659219923091 25.0659219923091 25.0659219923091 25.0659219923091 25.08789598974547 25.0659219923091 25.08789598974547 25.08789598974547 25.08789598974547 25.08789598974547 25.109869987181835 25.109869987181835 25.15381798205457 25.15381798205457 25.197765976927304 25.197765976927304 25.241713971800035 25.263687969236404 25.30763596410914 25.35158395898187 25.417505951290973 25.461453946163708 25.50540194103644 25.549349935909174 25.593297930781908 25.637245925654643 25.681193920527377 25.72514191540011 25.791063907709212 25.835011902581943 25.900933894891047 25.988829884636512 26.054751876945616 26.120673869254716 26.186595861563816 26.274491851309286 26.36238784105475 26.472257828236586 26.58212781541842 26.73594579747299 26.88976377952756 27.04358176158213 27.219373741073063 27.417139718000367 27.614905694927668 27.81267167185497 28.010437648782275 28.230177623145945 28.449917597509614 28.69163156930965 28.955319538546053 29.240981505218826 29.570591466764327 29.9221754257462 30.251785387291704 30.647317341146312 31.130745284746382 31.59219923091009 32.09760117194653 32.62497711041934 33.130379051455776 33.61380699505585 34.075260941219554 34.55868888481963 35.06409082585607 35.59146676432888 36.16279069767442 36.690166636147225 37.195568577183664 37.67899652078374 38.18439846182018 38.68980040285662 39.19520234389306 39.656656290056766 40.118110236220474 40.579564182384175 41.04101812854789 41.50247207471159 42.0298480131844 42.44735396447537 42.88683391320271 43.326313861930046 43.721845815784654 44.139351767075624 44.5568577183666 44.99633766709394 45.43581761582128 45.89727156198498 46.358725508148694 46.842153451748764 47.325581395348834 47.85295733382164 48.40230726973082 48.97363120307636 49.56692913385827 50.204175059512906 50.84142098516755 51.52261490569492 52.18183482878594 52.841054751876946 53.588170664713424 54.335286577549894 54.97253250320454 55.71964841604102 56.488738326313864 57.27980223402307 58.04889214429592 58.77403405969603 59.63101995971434 60.509979857169014 61.38893975462369 62.31184764695111 63.23475553927852 64.1796374290423 65.12451931880608 66.06940120856986 67.05823109320637 68.06903497527925 69.07983885735213 70.09064273942502 71.07947262406154 72.11225050357078 73.1010803882073 74.0239882805347 74.92492217542575 75.75993407800769 76.57297198315328 77.38600988829884 78.2210217908808 79.01208569859 79.78117560886285 80.50631752426295 81.18751144479035 81.86870536531771 82.52792528840871 83.16517121406336 83.802417139718 84.46163706280902 85.09888298846366 85.71415491668193 86.35140084233657 86.90075077824574 87.40615271928218 87.93352865775499 88.43893059879144 88.9223585423915 89.40578648599158 89.82329243728255 90.24079838857352 90.5923823475554 90.90001831166454 91.16370628090094 91.36147225782824 91.4493682475737 91.47134224501008 91.47134224501008 91.42739425013734 91.27357626808276 90.98791430141 90.5923823475554 90.10895440395532 89.62552646035525 88.90038454495513 88.37300860648233 87.62589269364585 86.87877678080937 86.32942684490021 85.2087529756455 84.61545504486358 84.02215711408166 83.18714521149973 82.30818531404505 81.40725141915401 80.55026551913569 79.91301959348105 78.8802417139718 77.89141182933528 77.1442959164988 76.17744002929867 75.12268815235305 74.33162424464385 73.16700238051638 72.35396447537082 71.2332906061161 70.06866874198866 69.32155282915217 68.22285295733383 67.43178904962461 66.26716718549716 64.79490935726056 64.06976744186046 63.388573521333086 62.68540560336935 61.69657571873283 60.68577183665995 59.63101995971434 58.51034609045962 57.45559421351401 56.664530305804796 55.69767441860465 54.90661051089544 54.11554660318623 53.236586705731554 52.66526277238601 51.85222486724043 51.03918696209485 50.48983702618568 49.3471891594946 48.88573521333089 48.18256729536715 47.4134773850943 46.886101446621495 46.117011536348656 45.0842336568394 44.51290972349386 43.67789782091192 43.106573887566384 42.44735396447537 41.63431605932979 40.79930415674785 39.986266251602274 39.239150338765796 38.71177440029299 37.94268449002014 37.393334554110965 36.822010620765425 36.20673869254715 35.83318073612892 35.30580479765611 34.7784288591833 34.44881889763779 33.877494964292254 33.569859000183115 33.284197033510345 32.84471708478301 32.55905511811024 32.1195751693829 31.72404321552829 31.328511261673686 30.954953305255447 30.691265336019043 30.471525361655374 30.119941402673504 29.9880974180553 29.76835744369163 29.61453946163706 29.48269547701886 29.306903497527927 29.175059512909723 28.999267533418788 28.75755356161875 28.581761582127815 28.31807361289141 28.09833363852774 27.790697674418606 27.483061710309467 27.197399743636698 27.02160776414576 26.80186778978209 26.691997802600255 26.626075810291155 26.626075810291155 26.648049807727524 26.67002380516389 26.691997802600255 26.691997802600255 26.67002380516389 26.648049807727524 26.60410181285479 26.58212781541842 26.560153817982055 26.538179820545686 26.538179820545686 26.538179820545686 26.538179820545686 26.51620582310932 26.51620582310932 26.494231825672955 26.494231825672955 26.494231825672955 26.472257828236586 26.45028383080022 26.42830983336385 26.42830983336385 26.406335835927486 26.38436183849112 26.36238784105475 26.318439846182017 26.318439846182017 26.274491851309286 26.252517853872916 26.23054385643655 26.208569859000182 26.208569859000182 26.164621864127447 26.120673869254716 26.07672587438198 26.032777879509247 25.966855887200147 25.922907892327412 25.856985900018312 25.813037905145578 25.72514191540011 25.681193920527377 25.637245925654643 25.593297930781908 25.593297930781908 25.593297930781908 25.571323933345543 25.571323933345543 25.571323933345543 25.549349935909174 25.527375938472808 25.50540194103644 25.483427943600073 25.461453946163708 25.43947994872734 25.43947994872734 25.43947994872734 25.417505951290973 25.417505951290973 25.395531953854604 25.395531953854604 25.395531953854604 25.37355795641824 25.37355795641824 25.37355795641824 25.37355795641824 25.37355795641824 25.37355795641824 25.37355795641824 25.37355795641824 25.37355795641824 25.37355795641824 25.37355795641824 25.37355795641824 25.37355795641824 25.37355795641824 25.37355795641824 25.37355795641824 25.37355795641824 25.37355795641824 25.37355795641824 25.37355795641824 25.37355795641824 25.37355795641824 25.37355795641824 25.37355795641824 25.37355795641824 25.37355795641824 25.37355795641824 25.37355795641824 25.37355795641824 25.37355795641824 25.37355795641824 25.37355795641824 25.37355795641824 25.37355795641824 25.37355795641824 25.37355795641824 25.37355795641824 25.37355795641824 25.37355795641824 25.395531953854604 25.37355795641824 25.395531953854604 25.395531953854604 25.37355795641824 25.37355795641824 25.395531953854604 25.37355795641824 25.395531953854604 25.395531953854604 25.395531953854604 25.395531953854604 25.395531953854604 25.395531953854604 25.395531953854604 25.395531953854604 25.395531953854604 25.395531953854604 25.395531953854604 25.395531953854604 25.395531953854604 25.395531953854604 25.395531953854604 25.395531953854604 25.395531953854604 25.395531953854604 25.395531953854604 25.395531953854604 25.395531953854604 25.395531953854604 25.395531953854604 25.395531953854604 25.395531953854604 25.395531953854604 25.417505951290973 25.417505951290973 25.395531953854604 25.417505951290973 25.417505951290973 25.417505951290973 25.417505951290973 25.417505951290973 25.417505951290973 25.417505951290973 25.417505951290973 25.417505951290973 25.417505951290973 25.417505951290973 25.417505951290973 25.417505951290973 25.417505951290973 25.417505951290973 25.417505951290973 25.417505951290973 25.417505951290973 25.417505951290973 25.417505951290973 25.417505951290973 25.417505951290973 25.417505951290973 25.417505951290973 25.417505951290973 25.417505951290973 25.417505951290973 25.417505951290973 25.417505951290973 25.417505951290973 25.417505951290973 25.417505951290973 25.417505951290973 25.417505951290973 25.417505951290973 25.417505951290973 25.417505951290973 25.417505951290973 25.417505951290973 25.417505951290973 25.417505951290973 25.417505951290973 25.417505951290973 25.417505951290973 25.417505951290973 25.417505951290973 25.417505951290973 25.417505951290973 25.395531953854604 25.395531953854604 25.395531953854604 25.395531953854604 25.395531953854604 25.395531953854604 25.417505951290973 25.395531953854604 25.395531953854604 25.417505951290973 25.395531953854604 25.395531953854604 25.395531953854604 25.395531953854604 25.395531953854604 25.37355795641824 25.37355795641824 25.37355795641824 25.37355795641824 25.37355795641824 25.37355795641824 25.37355795641824 25.37355795641824 25.37355795641824 25.37355795641824 25.37355795641824 25.35158395898187 25.37355795641824 25.37355795641824 25.35158395898187 25.37355795641824 25.35158395898187 25.35158395898187 25.37355795641824 25.35158395898187 25.37355795641824 25.37355795641824 25.37355795641824 25.37355795641824 25.37355795641824 25.37355795641824 25.395531953854604 25.395531953854604 25.395531953854604 25.37355795641824 25.37355795641824 25.395531953854604 25.37355795641824 25.395531953854604 25.37355795641824 25.37355795641824 25.395531953854604 25.395531953854604 25.395531953854604 25.395531953854604 25.37355795641824 25.395531953854604 25.395531953854604 25.395531953854604 25.395531953854604 25.395531953854604 25.395531953854604 25.395531953854604 25.395531953854604 25.395531953854604 25.395531953854604 25.395531953854604 25.395531953854604 25.395531953854604 25.395531953854604 25.395531953854604 25.395531953854604 25.395531953854604 25.395531953854604 25.395531953854604 25.395531953854604 25.417505951290973 25.417505951290973 25.43947994872734 25.43947994872734 25.43947994872734 25.43947994872734 25.483427943600073 25.571323933345543 25.65921992309101 25.835011902581943 25.988829884636512 26.14264786669108 26.406335835927486 26.58212781541842 27.02160776414576 27.395165720564 27.636879692364037 28.05438564365501 28.40596960263688 28.69163156930965 29.043215528291523 29.438747482146127 29.878227430873466 30.339681377037174 30.647317341146312 31.108771287310017 31.65812122321919 32.07562717451016 32.734847097601175 33.240249038637614 33.98736495147409 34.7784288591833 35.34975279252884 36.558322651529025 37.2395165720564 37.96465848745651 39.26112433620216 39.964292254165905 40.62351217725691 41.91997802600257 42.57919794909357 43.699871818348285 44.073429774766524 45.43581761582128 46.44662149789416 47.127815418421534 48.16059329793078 49.2153451748764 49.91851309284014 50.84142098516755 51.45669291338582 52.423548800585976 53.302508698040654 53.98370261856803 55.28016846731368 55.983336385277426 56.598608313495696 57.87310016480498 58.62021607764146 59.191540010987 60.114447903314414 61.14722578282366 62.24592565464201 63.300677531587624 64.00384544955136 65.12451931880608 65.89360922907892 67.08020509064274 68.35469694195203 69.21168284197034 70.44222669840688 71.82658853689802 73.16700238051638 74.08991027284381 74.85900018311665 76.13349203442593 77.29811389855337 78.04522981138985 79.12195568577184 80.46236952939023 81.12158945248123 82.06647134224502 82.72569126533602 83.27504120124519 84.0661051089544 84.90111701153634 85.97784288591834 86.50521882439114 87.03259476286395 87.80168467313679 88.52682658853689 88.90038454495513 89.82329243728255 90.37264237319172 91.36147225782824 91.62516022706464 92.63596410913752 93.36110602453763 93.84453396813771 94.30598791430141 94.94323383995605 95.33876579381067 95.88811572971983 96.28364768357443 96.5693096502472 96.67917963742904 96.70115363486542 96.70115363486542 96.67917963742904 96.41549166819264 95.9100897271562 95.47060977842887 94.81138985533785 94.02032594762865 93.47097601171946 92.723860098883 91.97674418604652 91.42739425013734 90.57040835011902 89.91118842702802 89.07617652444607 87.80168467313679 87.09851675517305 86.32942684490021 85.27467496795458 84.50558505768174 83.36293719099066 82.48397729353599 80.96777147042667 79.2757736678264 78.8802417139718 77.62772386009888 76.41915400109869 75.5621681010804 74.22175425746201 72.8373924189709 71.91448452664348 70.59604468046146 69.58524079838858 68.55246291887933 67.29994506500641 66.48690715986083 65.34425929316976 64.5751693828969 63.52041750595129 62.50961362387841 61.80644570591467 60.444057864859914 59.740889946896175 59.0596960263688 57.74125618018678 57.08203625709577 56.049258377586526 55.06042849295001 54.35726057498627 53.258560703167916 52.841054751876946 51.41274491851309 50.314045046694744 49.63285112616737 48.62204724409449 47.56729536714887 46.908075444057864 46.09503753891229 45.56766160043948 44.820545687603 44.09540377220289 43.61197582860282 42.68906793627541 41.83208203625709 41.59036806445706 40.99707013367515 40.79930415674785 40.249954220838674 39.5687603003113 39.21717634132943 38.68980040285662 38.14045046694744 37.78886650796557 37.261490569492764 36.953854605383626 36.470426661783556 36.00897271561985 35.72331074894708 35.34975279252884 35.02014283098333 34.75645486174693 34.22907892327412 34.03131294634682 33.569859000183115 33.04248306171031 32.4491851309284 31.87786119758286 31.328511261673686 30.954953305255447 30.493499359091743 30.22981138985534 30.032045412928035 29.724409448818896 29.63651345907343 29.48269547701886 29.394799487273392 29.328877494964292 29.219007507782457 29.153085515473357 29.043215528291523 28.889397546236953 28.823475553927853 28.71360556674602 28.62570957700055 28.55978758469145 28.449917597509614 28.38399560520051 28.34004761032778 28.230177623145945 28.142281633400476 28.05438564365501 27.944515656473172 27.856619666727706 27.74674967954587 27.658853689800402 27.527009705182202 27.439113715436733 27.285295733382164 27.087529756454863 26.97765976927303 26.779893792345725 26.58212781541842 26.42830983336385 26.36238784105475 26.318439846182017 26.29646584874565 26.29646584874565 26.318439846182017 26.318439846182017 26.29646584874565 26.29646584874565 26.29646584874565 26.29646584874565 26.274491851309286 26.274491851309286 26.274491851309286 26.274491851309286 26.252517853872916 26.252517853872916 26.252517853872916 26.252517853872916 26.23054385643655 26.23054385643655 26.208569859000182 26.186595861563816 26.164621864127447 26.14264786669108 26.120673869254716 26.07672587438198 26.07672587438198 26.01080388207288 25.988829884636512 25.900933894891047 25.878959897454678 25.835011902581943 25.769089910272843 25.747115912836477 25.703167917963743 25.681193920527377 25.637245925654643 25.637245925654643 25.637245925654643 25.637245925654643 25.615271928218274 25.615271928218274 25.615271928218274 25.593297930781908 25.593297930781908 25.593297930781908 25.593297930781908 25.593297930781908 25.571323933345543 25.549349935909174 25.50540194103644 25.461453946163708 25.43947994872734 25.37355795641824 25.30763596410914 25.28566196667277 25.263687969236404 25.241713971800035 25.21973997436367 25.21973997436367 25.21973997436367 25.21973997436367 25.21973997436367 25.21973997436367 25.21973997436367 25.21973997436367 25.21973997436367 25.197765976927304 25.197765976927304 25.21973997436367 25.21973997436367 25.21973997436367 25.197765976927304 25.197765976927304 25.21973997436367 25.197765976927304 25.197765976927304 25.197765976927304 25.197765976927304 25.197765976927304 25.175791979490935 25.175791979490935 25.15381798205457 25.1318439846182 25.109869987181835 25.0659219923091 25.043947994872735 25.021973997436366 25.0 25.0 25.0 25.0 25.0 25.0 25.0 25.0 25.0 25.0 25.0 25.0 25.0 25.0 25.0 24.978026002563634 25.0 25.0 24.978026002563634 24.978026002563634 25.0 24.978026002563634 24.978026002563634 24.978026002563634 24.978026002563634 24.978026002563634 24.978026002563634 24.978026002563634 24.978026002563634 24.978026002563634 24.978026002563634 24.978026002563634 24.978026002563634 24.978026002563634 24.978026002563634 24.978026002563634 24.978026002563634 24.978026002563634 24.978026002563634 24.978026002563634 24.978026002563634 24.978026002563634 24.978026002563634 24.978026002563634 24.978026002563634 24.978026002563634 24.978026002563634 24.978026002563634 24.978026002563634 24.978026002563634 24.978026002563634 24.978026002563634 24.978026002563634 24.978026002563634 24.978026002563634 24.978026002563634 24.978026002563634 24.978026002563634 24.978026002563634 24.978026002563634 24.978026002563634 24.978026002563634 24.978026002563634 24.978026002563634 24.978026002563634 24.978026002563634 24.978026002563634 24.978026002563634 24.978026002563634 24.978026002563634 24.978026002563634 24.978026002563634 24.978026002563634 24.978026002563634 24.978026002563634 24.978026002563634 24.978026002563634 24.978026002563634 24.978026002563634 24.978026002563634 24.978026002563634 24.978026002563634 24.978026002563634 24.978026002563634 24.978026002563634 24.978026002563634 24.978026002563634 24.978026002563634 24.978026002563634 24.978026002563634 24.978026002563634 24.978026002563634 24.978026002563634 24.978026002563634 24.978026002563634 24.978026002563634 24.978026002563634 24.978026002563634 24.978026002563634 24.978026002563634 24.978026002563634 24.978026002563634 24.978026002563634 24.978026002563634 24.978026002563634 24.978026002563634 24.978026002563634 24.978026002563634 24.978026002563634 24.978026002563634 24.978026002563634 24.978026002563634 24.978026002563634 24.978026002563634 24.978026002563634 24.978026002563634 24.978026002563634 24.978026002563634 24.978026002563634 24.978026002563634 24.978026002563634 24.978026002563634 24.978026002563634 24.978026002563634 24.978026002563634 24.978026002563634 24.978026002563634 24.978026002563634 24.978026002563634 24.978026002563634 24.978026002563634 24.978026002563634 24.978026002563634 24.978026002563634 24.978026002563634 24.978026002563634 24.978026002563634 24.978026002563634 24.978026002563634 25.0 24.978026002563634 25.0 24.978026002563634 24.978026002563634 24.978026002563634 24.978026002563634 25.0 24.978026002563634 25.0 25.0 25.0 25.0 25.0 25.0 25.0 25.0 25.0 25.0 25.0 25.0 24.978026002563634 25.0 25.0 25.0 25.0 25.0 25.0 25.0 25.0 25.0 25.0 25.0 25.0 25.0 25.0 25.0 25.0 25.0 25.0 25.0 25.0 25.0 25.0 25.0 25.021973997436366 25.021973997436366 25.021973997436366 25.021973997436366 25.021973997436366 25.021973997436366 25.021973997436366 25.021973997436366 25.021973997436366 25.021973997436366 25.021973997436366 25.021973997436366 25.021973997436366 25.021973997436366 25.021973997436366 25.021973997436366 25.021973997436366 25.021973997436366 25.021973997436366 25.021973997436366 25.043947994872735 25.043947994872735 25.0659219923091 25.0659219923091 25.08789598974547 25.109869987181835 25.1318439846182 25.15381798205457 25.28566196667277 25.329609961545504 25.483427943600073 25.72514191540011 25.966855887200147 26.538179820545686 26.867789782091194 27.439113715436733 28.03241164621864 28.27412561801868 28.75755356161875 29.328877494964292 29.570591466764327 30.032045412928035 30.669291338582678 31.174693279619117 31.987731184764694 32.53708112067387 33.32814502838308 34.05328694378319 34.53671488738326 35.19593481047427 35.83318073612892 36.338582677165356 36.931880607947264 37.59110053103827 38.03058047976561 38.66782640542025 39.107306354147596 39.964292254165905 40.42574620032961 40.84325215162058 41.67826405420253 42.13971800036623 42.57919794909357 43.502105841420985 43.98553378502106 44.64475370811206 45.28199963376671 45.78740157480315 46.424647500457795 46.886101446621495 47.63321735945797 48.42428126716719 48.95165720563999 49.742721113349205 50.533785021058414 51.39077092107672 51.96209485442226 52.53341878776781 53.412378685222485 54.269364585240794 54.88463651345907 56.115180369895626 56.752426295550265 57.65336019044131 58.57626808276872 59.21351400842337 59.806811939205275 60.94945980589635 61.56473173411463 62.46566562900568 63.10291155466032 64.09174143929684 65.05859732649698 66.09137520600623 66.94836110602454 67.73942501373375 68.37667093938839 69.2995788317158 69.91485075993407 71.14539461637062 72.20014649331624 72.94726240615272 73.65043032411646 74.37557223951657 75.07874015748033 76.46310199597144 76.9465299395715 77.64969785753524 78.52865775498992 79.09998168833548 79.69327961911739 80.44039553195387 81.31935542940855 82.08844533968139 82.65976927302691 83.49478117560886 84.3297930781908 85.16480498077274 85.9998168833547 86.57114081670024 87.14246475004578 87.99945065006409 88.57077458340964 89.36183849111885 90.4605383629372 90.98791430141 91.75700421168284 92.24043215528292 92.74583409631936 93.40505401941037 93.84453396813771 94.67954587071965 95.22889580662883 95.55850576817433 95.99798571690167 96.45943966306537 96.54733565281084 96.74510162973814 96.83299761948362 96.87694561435634 96.85497161691998 96.78904962461088 96.5033876579381 96.15180369895623 95.6464017579198 95.00915583226515 94.54770188610145 93.80058597326497 92.9875480681194 92.13056216810108 91.27357626808276 90.7901483244827 90.08698040651895 88.8564365500824 88.15326863211865 87.36220472440945 86.50521882439114 85.9338948910456 85.12085698590002 84.54953305255447 83.69254715253618 82.83556125251786 82.26423731917231 81.47317341146311 80.66013550631753 80.11078557040835 79.23182567295368 78.52865775498992 77.73759384728072 76.77073796008057 76.0895440395532 74.77110419337117 73.78227430873466 73.34279436000733 72.00238051638894 71.2992125984252 70.63999267533418 69.34352682658854 68.64035890862479 67.65152902398827 66.59677714704267 65.8496612342062 64.70701336751512 63.915949459805894 62.773301593114816 61.7185497161692 61.01538179820545 59.894707928950744 58.75206006225966 57.257828236586704 56.51071232375023 56.049258377586526 54.99450650064091 53.80791063907709 53.03882072880425 51.56656290056766 50.511811023622045 49.808643105658305 48.92968320820363 48.35835927485809 47.83098333638527 46.79820545687603 46.314777513275956 45.63358359274858 45.19410364402124 44.5568577183666 43.98553378502106 43.633949826039185 43.260391869620946 42.62314594396631 42.24958798754807 41.74418604651163 41.41457608496612 40.90917414392968 40.227980223402305 39.876396264420436 39.524812305438566 38.86559238234756 38.57993041567478 37.8328145028383 37.45925654642007 37.08569859000183 36.602270646401756 36.272660684856255 35.89910272843802 35.28383080021974 34.93224684123787 34.44881889763779 34.09723493865592 33.569859000183115 33.108405054019414 32.778795092473906 32.29536714887384 31.833913202710125 31.52627723860099 31.130745284746382 30.889031312946347 30.603369346273574 30.339681377037174 30.097967405237135 29.878227430873466 29.76835744369163 29.658487456509796 29.438747482146127 29.394799487273392 29.175059512909723 29.021241530855153 28.889397546236953 28.71360556674602 28.603735579564184 28.427943600073245 28.25215162058231 28.142281633400476 27.922541659036806 27.834645669291337 27.724775682109502 27.592931697491302 27.439113715436733 27.351217725691264 27.241347738509432 27.153451748763963 26.999633766709394 26.911737776963925 26.845815784654825 26.691997802600255 26.648049807727524 26.538179820545686 26.472257828236586 26.45028383080022 26.42830983336385 26.45028383080022 26.45028383080022 26.42830983336385 26.42830983336385 26.406335835927486 26.406335835927486 26.406335835927486 26.406335835927486 26.38436183849112 26.38436183849112 26.36238784105475 26.36238784105475 26.340413843618386 26.340413843618386 26.318439846182017 26.318439846182017 26.274491851309286 26.274491851309286 26.252517853872916 26.208569859000182 26.186595861563816 26.14264786669108 26.07672587438198 26.032777879509247 25.988829884636512 25.944881889763778 25.900933894891047 25.856985900018312 25.813037905145578 25.769089910272843 25.747115912836477 25.72514191540011 25.72514191540011 25.72514191540011 25.72514191540011 25.72514191540011 25.72514191540011 25.72514191540011 25.703167917963743 25.703167917963743 25.703167917963743 25.703167917963743 25.681193920527377 25.681193920527377 25.65921992309101 25.593297930781908 25.571323933345543 25.527375938472808 25.483427943600073 25.43947994872734 25.417505951290973 25.37355795641824 25.37355795641824 25.329609961545504 25.329609961545504 25.30763596410914 25.30763596410914 25.30763596410914 25.30763596410914 25.30763596410914 25.329609961545504 25.30763596410914 25.30763596410914 25.329609961545504 25.30763596410914 25.30763596410914 25.30763596410914 25.30763596410914 25.30763596410914 25.30763596410914 25.30763596410914 25.30763596410914 25.30763596410914 25.30763596410914 25.30763596410914 25.30763596410914 25.329609961545504 25.30763596410914 25.30763596410914 25.30763596410914 25.30763596410914 25.329609961545504 25.329609961545504 25.30763596410914 25.329609961545504 25.30763596410914 25.329609961545504 25.30763596410914 25.329609961545504 25.329609961545504 25.329609961545504 25.329609961545504 25.329609961545504 25.329609961545504 25.329609961545504 25.329609961545504 25.329609961545504 25.329609961545504 25.329609961545504 25.329609961545504 25.329609961545504 25.329609961545504 25.329609961545504 25.329609961545504 25.329609961545504 25.329609961545504 25.329609961545504 25.329609961545504 25.35158395898187 25.329609961545504 25.329609961545504 25.35158395898187 25.329609961545504 25.35158395898187 25.35158395898187 25.35158395898187 25.329609961545504 25.35158395898187 25.35158395898187 25.35158395898187 25.35158395898187 25.329609961545504 25.35158395898187 25.35158395898187 25.35158395898187 25.35158395898187 25.35158395898187 25.35158395898187 25.35158395898187 25.35158395898187 25.35158395898187 25.35158395898187 25.35158395898187 25.37355795641824 25.37355795641824 25.35158395898187 25.37355795641824 25.37355795641824 25.37355795641824 25.37355795641824 25.37355795641824 25.37355795641824 25.37355795641824 25.37355795641824 25.37355795641824 25.37355795641824 25.37355795641824 25.37355795641824 25.37355795641824 25.37355795641824 25.37355795641824 25.37355795641824 25.37355795641824 25.37355795641824 25.37355795641824 25.37355795641824 25.37355795641824 25.37355795641824 25.37355795641824 25.37355795641824 25.37355795641824 25.37355795641824 25.37355795641824 25.35158395898187 25.35158395898187 25.37355795641824 25.37355795641824 25.37355795641824 25.35158395898187 25.37355795641824 25.37355795641824 25.35158395898187 25.35158395898187 25.35158395898187 25.35158395898187 25.35158395898187 25.37355795641824 25.37355795641824 25.35158395898187 25.37355795641824 25.37355795641824 25.35158395898187 25.35158395898187 25.35158395898187 25.35158395898187 25.37355795641824 25.37355795641824 25.37355795641824 25.37355795641824 25.37355795641824 25.37355795641824 25.37355795641824 25.37355795641824 25.35158395898187 25.35158395898187 25.37355795641824 25.37355795641824 25.37355795641824 25.37355795641824 25.37355795641824 25.37355795641824 25.35158395898187 25.35158395898187 25.37355795641824 25.37355795641824 25.37355795641824 25.35158395898187 25.37355795641824 25.37355795641824 25.35158395898187 25.35158395898187 25.37355795641824 25.35158395898187 25.37355795641824 25.35158395898187 25.35158395898187 25.35158395898187 25.37355795641824 25.37355795641824 25.35158395898187 25.37355795641824 25.37355795641824 25.37355795641824 25.37355795641824 25.37355795641824 25.37355795641824 25.37355795641824 25.35158395898187 25.37355795641824 25.35158395898187 25.37355795641824 25.37355795641824 25.37355795641824 25.37355795641824 25.35158395898187 25.37355795641824 25.37355795641824 25.37355795641824 25.37355795641824 25.37355795641824 25.37355795641824 25.37355795641824 25.37355795641824 25.37355795641824 25.37355795641824 25.37355795641824 25.37355795641824 25.37355795641824 25.37355795641824 25.37355795641824 25.37355795641824 25.37355795641824 25.395531953854604 25.395531953854604 25.395531953854604 25.395531953854604 25.395531953854604 25.395531953854604 25.395531953854604 25.417505951290973 25.43947994872734 25.461453946163708 25.549349935909174 25.615271928218274 25.703167917963743 25.878959897454678 25.988829884636512 26.120673869254716 26.42830983336385 26.60410181285479 26.88976377952756 27.065555759018494 27.241347738509432 27.592931697491302 27.81267167185497 28.05438564365501 28.362021607764145 28.603735579564184 28.933345541109688 29.175059512909723 29.570591466764327 30.054019410364404 30.405603369346274 31.020875297564547 31.65812122321919 32.14154916681926 32.866691082219376 33.569859000183115 34.075260941219554 34.80040285661967 35.28383080021974 36.250686687419886 36.646218641274494 37.3054385643655 37.96465848745651 38.40413843618385 38.86559238234756 39.788500274674966 40.33785021058414 41.019044131111514 41.54642006958433 42.35945797472991 43.150521882439115 43.74381981322102 44.5568577183666 45.30397363120308 45.74345357993042 46.314777513275956 46.688335469694195 47.47939937740341 48.00677531587621 48.55612525178539 49.237319172312766 50.006409082585606 50.533785021058414 51.63248489287676 52.22578282365867 53.104742721113354 53.98370261856803 54.5989745467863 55.25819446987731 56.466764328877495 57.125984251968504 57.93902215711408 58.55429408533236 59.47720197765977 60.378135872550814 61.27906976744186 61.9163156930965 62.88317158029665 63.542391503387655 64.55319538546054 65.25636330342428 66.66269913935176 67.71745101629739 68.42061893426111 69.21168284197034 70.15656473173412 70.85973264969786 72.1561984984435 72.77147042666178 73.67240432155283 74.55136421900751 75.16663614722579 76.04559604468047 76.92455594213514 77.51785387291704 78.2869437831899 78.81431972166271 79.58340963193555 80.26460355246292 80.72605749862663 81.67093938839041 82.17634132942685 82.63779527559055 83.18714521149973 83.64859915766343 84.30781908075444 85.14283098333638 85.64823292437282 86.24153085515474 86.50521882439114 87.12049075260941 87.77971067570043 88.4609045962278 89.0542025270097 89.64750045779161 89.97711041933712 90.37264237319172 90.50448635780992 90.7901483244827 90.90001831166454 90.9219923091009 90.94396630653726 90.9219923091009 90.90001831166454 90.63633034242812 90.43856436550082 90.21882439113715 89.88921442959166 89.62552646035525 89.22999450650065 88.83446255264604 88.35103460904597 87.84563266800953 87.49404870902765 87.12049075260941 86.3953488372093 85.97784288591834 85.36257095770006 84.70335103460906 84.24189708844534 83.53872917048159 83.05530122688153 82.35213330891779 81.71488738326315 81.2754074345358 80.61618751144479 79.95696758835379 79.47353964475371 78.70444973448086 78.17707379600806 77.40798388573522 76.39718000366233 76.11151803698957 75.01281816517121 74.19978026002565 73.87017029848013 72.77147042666178 72.20014649331624 71.60684856253434 70.46420069584326 69.87090276506135 68.9699688701703 68.02508698040651 67.38784105475187 66.5088811572972 65.5859732649698 64.99267533418788 64.09174143929684 63.432521516205824 62.46566562900568 61.82841970335103 60.33418787767808 59.740889946896175 59.1256180186779 58.46639809558689 57.65336019044131 57.060062259659404 55.917414392968325 55.30214246475005 54.35726057498627 53.434352682658854 52.841054751876946 52.2038088262223 51.12708295184032 50.55575901849478 49.720747115912836 49.06152719282183 48.18256729536715 47.259659403039734 46.292803515839594 45.67753158762132 44.8864676799121 44.38106573887566 43.655923823475554 43.216443874748215 42.38143197216627 41.81010803882073 41.43655008240249 41.084966123420614 40.62351217725691 40.27192821827504 39.6346822926204 39.32704632851126 38.86559238234756 38.38216443874748 38.07452847463834 37.61307452847464 37.1735945797473 36.865958615638164 36.426478666910825 36.118842702801686 35.76725874381981 35.41567478483794 35.19593481047427 34.73448086431057 34.49276689251053 34.25105292071049 33.89946896172862 33.635780992492215 33.284197033510345 32.932613074528476 32.60300311298297 32.27339315143747 32.07562717451016 31.855887200146494 31.43838124885552 31.24061527192822 30.911005310382713 30.58139534883721 30.317707379600805 30.032045412928035 29.790331441127996 29.48269547701886 29.19703351034609 29.021241530855153 28.77952755905512 28.55978758469145 28.449917597509614 28.25215162058231 28.12030763596411 27.944515656473172 27.768723676982237 27.636879692364037 27.439113715436733 27.219373741073063 27.087529756454863 26.80186778978209 26.713971800036624 26.538179820545686 26.472257828236586 26.472257828236586 26.472257828236586 26.472257828236586 26.472257828236586 26.472257828236586 26.472257828236586 26.45028383080022 26.42830983336385 26.42830983336385 26.406335835927486 26.406335835927486 26.406335835927486 26.406335835927486 26.38436183849112 26.38436183849112 26.38436183849112 26.36238784105475 26.340413843618386 26.340413843618386 26.318439846182017 26.29646584874565 26.29646584874565 26.274491851309286 26.23054385643655 26.23054385643655 26.186595861563816 26.14264786669108 26.120673869254716 26.098699871818347 26.098699871818347 26.07672587438198 26.07672587438198 26.07672587438198 26.07672587438198 26.07672587438198 26.07672587438198 26.07672587438198 26.07672587438198 26.054751876945616 26.054751876945616 26.07672587438198 26.054751876945616 26.054751876945616 26.054751876945616 26.07672587438198 26.054751876945616 26.07672587438198 26.054751876945616 26.054751876945616 26.054751876945616 26.054751876945616 26.054751876945616 26.032777879509247 26.054751876945616 26.032777879509247 26.054751876945616 26.054751876945616 26.054751876945616 26.032777879509247 26.054751876945616 26.054751876945616 26.032777879509247 26.054751876945616 26.054751876945616 26.032777879509247 26.054751876945616 26.032777879509247 26.032777879509247 26.032777879509247 26.032777879509247 26.032777879509247 26.032777879509247 26.032777879509247 26.054751876945616 26.032777879509247 26.032777879509247 26.032777879509247 26.054751876945616 26.054751876945616 26.032777879509247 26.054751876945616 26.032777879509247 26.032777879509247 26.032777879509247 26.032777879509247 26.032777879509247 26.054751876945616 26.054751876945616 26.054751876945616 26.054751876945616 26.032777879509247 26.054751876945616 26.032777879509247 26.032777879509247 26.032777879509247 26.032777879509247 26.054751876945616 26.054751876945616 26.054751876945616 26.032777879509247 26.054751876945616 26.032777879509247 26.032777879509247 26.032777879509247 26.032777879509247 26.032777879509247 26.054751876945616 26.032777879509247 26.032777879509247 26.032777879509247 26.032777879509247 26.032777879509247 26.032777879509247 26.032777879509247 26.032777879509247 26.032777879509247 26.032777879509247 26.032777879509247 26.032777879509247 26.032777879509247 26.032777879509247 26.032777879509247 26.032777879509247 26.032777879509247 26.032777879509247 26.032777879509247 26.032777879509247 26.032777879509247 26.054751876945616 26.032777879509247 26.054751876945616 26.054751876945616 26.032777879509247 26.054751876945616 26.054751876945616 26.054751876945616 26.054751876945616 26.054751876945616 26.054751876945616 26.054751876945616 26.054751876945616 26.054751876945616 26.054751876945616 26.054751876945616 26.054751876945616 26.054751876945616 26.054751876945616 26.054751876945616 26.054751876945616 26.054751876945616 26.054751876945616 26.054751876945616 26.054751876945616 26.054751876945616 26.054751876945616 26.054751876945616 26.054751876945616 26.054751876945616 26.054751876945616 26.054751876945616 26.054751876945616 26.054751876945616 26.054751876945616 26.054751876945616 26.054751876945616 26.054751876945616 26.054751876945616 26.054751876945616 26.054751876945616 26.054751876945616 26.054751876945616 26.054751876945616 26.054751876945616 26.054751876945616 26.054751876945616 26.054751876945616 26.054751876945616 26.054751876945616 26.054751876945616 26.054751876945616 26.054751876945616 26.054751876945616 26.054751876945616 26.054751876945616 26.054751876945616 26.054751876945616 26.054751876945616 26.054751876945616 26.054751876945616 26.054751876945616 26.054751876945616 26.054751876945616 26.054751876945616 26.054751876945616 26.054751876945616 26.054751876945616 26.054751876945616 26.054751876945616 26.054751876945616 26.054751876945616 26.07672587438198 26.054751876945616 26.054751876945616 26.054751876945616 26.054751876945616 26.07672587438198 26.07672587438198 26.07672587438198 26.07672587438198 26.07672587438198 26.07672587438198 26.07672587438198 26.07672587438198 26.07672587438198 26.098699871818347 26.098699871818347 26.098699871818347 26.098699871818347 26.098699871818347 26.098699871818347 26.098699871818347 26.098699871818347 26.098699871818347 26.098699871818347 26.098699871818347 26.098699871818347 26.120673869254716 26.120673869254716 26.120673869254716 26.120673869254716 26.120673869254716 26.120673869254716 26.164621864127447 26.164621864127447 26.252517853872916 26.318439846182017 26.38436183849112 26.51620582310932 26.67002380516389 26.933711774400294 27.087529756454863 27.263321735945798 27.417139718000367 27.614905694927668 27.790697674418606 28.09833363852774 28.34004761032778 28.53781358725508 28.823475553927853 29.109137520600623 29.306903497527927 29.70243545138253 29.966123420618935 30.383629371909905 30.86705731550998 31.24061527192822 31.87786119758286 32.33931514374657 33.086431056583045 33.83354696941952 34.33894891045596 35.06409082585607 35.74528474638345 36.184764695110786 37.019776597692726 37.393334554110965 37.74491851309284 38.25032045412928 38.57993041567478 39.04138436183849 39.656656290056766 39.986266251602274 40.447720197765975 40.77733015931148 41.10694012085699 41.81010803882073 42.18366599523897 42.82091192089361 43.502105841420985 43.98553378502106 44.71067570042116 45.21607764145761 46.00714154916682 46.886101446621495 47.36952939022157 48.22651529023988 48.79783922358543 49.63285112616737 50.46786302874931 51.32484892876762 51.8741988646768 52.70921076725874 53.236586705731554 54.29133858267717 54.84068851858634 55.65372642373192 56.818348287859365 57.27980223402307 57.91704815967771 58.94982603918696 59.63101995971434 60.53195385460538 61.16919978026002 62.13605566746017 63.080937557223955 63.718183482878594 64.66306537264236 65.5859732649698 66.22321919062443 67.14612708295184 67.80534700604285 68.99194286760667 69.58524079838858 70.53012268815235 71.27723860098882 72.06830250869804 72.72752243178905 73.98004028566197 74.61728621131661 75.51822010620765 76.19941402673503 77.05639992675334 77.9573338216444 79.16590368064458 79.78117560886285 80.41842153451748 81.09961545504487 82.00054934993591 82.90148324482695 83.6046511627907 84.50558505768174 85.7361289141183 86.02179088079106 86.90075077824574 87.49404870902765 88.6586705731551 89.51565647317341 90.17487639626442 90.74620032960996 91.51529023988282 92.02069218091924 92.81175608862846 93.40505401941037 93.97637795275591 94.45980589635599 94.74546786302875 94.98718183482879 95.09705182201061 95.14099981688335 95.14099981688335 95.14099981688335 94.98718183482879 94.50375389122871 93.7786119758286 93.0534700604285 92.67991210401026 91.93279619117378 91.07581029115548 90.4605383629372 89.20802050906427 88.28511261673685 87.58194469877311 86.68101080388207 86.2635048525911 85.4065189525728 84.50558505768174 83.56070316791798 82.59384728071782 81.56106940120857 80.85790148324483 79.86907159860831 79.16590368064458 78.0891778062626 77.03442592931697 76.24336202160777 75.27650613440761 74.22175425746201 73.4306903497528 71.84856253433438 71.0355246291888 70.24446072147958 68.9699688701703 68.13495696758835 66.92638710858817 65.36623329060612 64.55319538546054 63.432521516205824 62.707379600805716 62.0481596777147 60.81761582127815 60.180369895623514 59.301409998168836 58.46639809558689 57.91704815967771 57.08203625709577 56.51071232375023 55.67570042116829 54.86266251602271 54.24739058780443 53.500274674967955 52.75315876213148 52.24775682109504 51.52261490569492 50.86339498260392 50.42391503387658 49.786669108221936 49.3471891594946 48.53415125434902 48.13861930049441 47.54532136971251 46.952023438930595 46.556491485075995 46.182933528657756 45.30397363120308 45.0842336568394 44.53488372093023 44.18329976194836 43.633949826039185 43.106573887566384 42.733015931148145 42.27156198498443 41.91997802600257 41.65629005676616 41.32668009522065 41.084966123420614 40.62351217725691 40.35982420802051 40.140084233656836 39.7665262772386 39.4369163156931 39.239150338765796 38.90954037722029 38.75572239516572 38.51400842336568 38.29426844900202 38.11847646951108 37.92071049258378 37.5691265336019 37.52517853872917 37.261490569492764 37.129646584874564 36.887932613074526 36.646218641274494 36.38253067203809 36.20673869254715 35.94305072331075 35.72331074894708 35.43764878227431 35.23988280534701 34.86632484892877 34.60263687969236 34.44881889763779 34.207104925837754 34.05328694378319 33.89946896172862 33.701702984801315 33.591832997619484 33.372093023255815 33.152353048892145 32.998535066837576 32.75682109503754 32.49313312580114 32.3173411463102 32.07562717451016 31.921809192455594 31.702069218091925 31.50430324116462 31.394433253982786 31.15271928218275 31.042849295000916 30.932979307819082 30.779161325764512 30.669291338582678 30.537447353964474 30.339681377037174 30.273759384728073 30.119941402673504 30.032045412928035 29.9221754257462 29.790331441127996 29.63651345907343 29.48269547701886 29.306903497527927 29.19703351034609 29.043215528291523 28.955319538546053 28.823475553927853 28.71360556674602 28.62570957700055 28.47189159494598 28.31807361289141 28.208203625709576 27.988463651345906 27.856619666727706 27.724775682109502 27.505035707745833 27.351217725691264 27.10950375389123 26.867789782091194 26.58212781541842 26.38436183849112 26.340413843618386 26.29646584874565 26.29646584874565 26.29646584874565 26.29646584874565 26.29646584874565 26.29646584874565 26.29646584874565 26.274491851309286 26.274491851309286 26.252517853872916 26.274491851309286 26.252517853872916 26.252517853872916 26.252517853872916 26.252517853872916 26.23054385643655 26.23054385643655 26.208569859000182 26.208569859000182 26.186595861563816 26.164621864127447 26.14264786669108 26.120673869254716 26.098699871818347 26.07672587438198 26.032777879509247 26.01080388207288 25.988829884636512 25.944881889763778 25.922907892327412 25.878959897454678 25.856985900018312 25.813037905145578 25.769089910272843 25.747115912836477 25.747115912836477 25.747115912836477 25.72514191540011 25.72514191540011 25.747115912836477 25.72514191540011 25.72514191540011 25.72514191540011 25.72514191540011 25.72514191540011 25.72514191540011 25.72514191540011 25.72514191540011 25.72514191540011 25.72514191540011 25.72514191540011 25.747115912836477 25.72514191540011 25.72514191540011 25.72514191540011 25.72514191540011 25.72514191540011 25.72514191540011 25.72514191540011 25.72514191540011 25.72514191540011 25.72514191540011 25.72514191540011 25.72514191540011 25.72514191540011 25.703167917963743 25.703167917963743 25.703167917963743 25.681193920527377 25.703167917963743 25.681193920527377 25.681193920527377 25.681193920527377 25.681193920527377 25.681193920527377 25.681193920527377 25.681193920527377 25.681193920527377 25.681193920527377 25.681193920527377 25.681193920527377 25.681193920527377 25.681193920527377 25.681193920527377 25.681193920527377 25.681193920527377 25.681193920527377 25.681193920527377 25.681193920527377 25.681193920527377 25.681193920527377 25.681193920527377 25.681193920527377 25.681193920527377 25.681193920527377 25.681193920527377 25.681193920527377 25.681193920527377 25.681193920527377 25.681193920527377 25.681193920527377 25.681193920527377 25.681193920527377 25.681193920527377 25.681193920527377 25.681193920527377 25.681193920527377 25.681193920527377 25.681193920527377 25.681193920527377 25.681193920527377 25.681193920527377 25.681193920527377 25.703167917963743 25.681193920527377 25.681193920527377 25.681193920527377 25.681193920527377 25.703167917963743 25.681193920527377 25.703167917963743 25.703167917963743 25.703167917963743 25.703167917963743 25.703167917963743 25.703167917963743 25.681193920527377 25.703167917963743 25.703167917963743 25.703167917963743 25.703167917963743 25.703167917963743 25.703167917963743 25.703167917963743 25.703167917963743 25.703167917963743 25.703167917963743 25.703167917963743 25.703167917963743 25.703167917963743 25.703167917963743 25.703167917963743 25.703167917963743 25.703167917963743 25.703167917963743 25.703167917963743 25.703167917963743 25.703167917963743 25.703167917963743 25.703167917963743 25.703167917963743 25.703167917963743 25.703167917963743 25.72514191540011 25.703167917963743 25.703167917963743 25.703167917963743 25.703167917963743 25.703167917963743 25.72514191540011 25.72514191540011 25.703167917963743 25.72514191540011 25.72514191540011 25.72514191540011 25.703167917963743 25.72514191540011 25.703167917963743 25.72514191540011 25.703167917963743 25.72514191540011 25.72514191540011 25.72514191540011 25.72514191540011 25.72514191540011 25.72514191540011 25.72514191540011 25.703167917963743 25.72514191540011 25.703167917963743 25.72514191540011 25.72514191540011 25.72514191540011 25.72514191540011 25.72514191540011 25.72514191540011 25.72514191540011 25.72514191540011 25.703167917963743 25.72514191540011 25.703167917963743 25.72514191540011 25.703167917963743 25.703167917963743 25.703167917963743 25.72514191540011 25.72514191540011 25.72514191540011 25.72514191540011 25.72514191540011 25.72514191540011 25.703167917963743 25.72514191540011 25.72514191540011 25.72514191540011 25.72514191540011 25.72514191540011 25.72514191540011 25.72514191540011 25.72514191540011 25.72514191540011 25.72514191540011 25.72514191540011 25.72514191540011 25.72514191540011 25.72514191540011 25.72514191540011 25.72514191540011 25.72514191540011 25.72514191540011 25.72514191540011 25.72514191540011 25.72514191540011 25.72514191540011 25.72514191540011 25.72514191540011 25.72514191540011 25.72514191540011 25.72514191540011 25.72514191540011 25.72514191540011 25.747115912836477 25.747115912836477 25.747115912836477 25.747115912836477 25.747115912836477 25.747115912836477 25.747115912836477 25.769089910272843 25.769089910272843 25.747115912836477 25.769089910272843 25.769089910272843 25.747115912836477 25.769089910272843 25.769089910272843 25.769089910272843 25.813037905145578 25.813037905145578 25.835011902581943 25.878959897454678 25.900933894891047 25.944881889763778 26.032777879509247 26.07672587438198 26.14264786669108 26.208569859000182 26.252517853872916 26.340413843618386 26.45028383080022 26.494231825672955 26.648049807727524 26.757919794909355 26.95568577183666 27.17542574620033 27.351217725691264 27.702801684673137 27.90056766160044 28.05438564365501 28.362021607764145 28.603735579564184 28.97729353598242 29.438747482146127 29.8562534334371 30.29573338216444 30.58139534883721 30.889031312946347 31.52627723860099 31.89983519501923 32.36128914118294 32.712873100164806 33.196301043764876 33.701702984801315 34.075260941219554 34.62461087712873 35.15198681560154 35.54751876945615 36.03094671305622 36.404504669474456 36.953854605383626 37.74491851309284 38.18439846182018 38.64585240798389 39.239150338765796 39.7006042849295 40.79930415674785 41.28273210034792 41.76616004394799 42.44735396447537 42.95275590551181 43.48013184398462 44.51290972349386 45.06225965940304 45.919245559421356 46.57846548251236 47.56729536714887 48.49020325947629 49.12744918513093 50.072331074894706 50.92931697491302 51.58853689800403 52.37960080571324 52.95092473905878 53.851858633949824 54.68687053653177 55.30214246475005 56.51071232375023 57.191906244277604 57.85112616736861 58.83995605200513 59.41127998535067 60.224317890496245 61.10327778795092 61.6526277238601 62.50961362387841 63.498443508514924 64.20161142647866 65.23438930598792 65.93755722395166 66.99230910089727 68.04706097784288 68.75022889580663 69.8269547701886 70.50814869071598 71.4310565830434 72.39791247024354 73.05713239333456 74.28767624977111 75.18861014466215 75.8258560703168 76.5509979857169 77.12232191906244 78.02325581395348 79.2757736678264 79.91301959348105 80.79197949093573 81.71488738326315 82.33015931148142 83.23109320637246 83.82439113715438 84.72532503204542 85.58231093206373 86.15363486540927 87.07654275773669 87.91155466031863 88.83446255264604 89.66947445522798 90.26277238600989 90.87804431422816 91.5812122321919 92.08661417322836 93.1193920527376 93.80058597326497 94.26203991942867 94.83336385277421 95.25086980406519 95.62442776048343 96.1737776963926 96.59128364768357 96.83299761948362 97.05273759384728 97.16260758102912 97.16260758102912 97.16260758102912 97.16260758102912 97.0307635964109 96.8989196117927 96.5693096502472 96.2396996887017 95.9760117194653 95.31679179637429 94.94323383995605 94.54770188610145 93.71268998351951 93.47097601171946 92.81175608862846 91.86687419886468 91.36147225782824 90.68027833730086 90.17487639626442 89.71342245010072 88.87841054751877 88.41695660135505 87.80168467313679 87.34023072697309 86.6590368064457 85.97784288591834 85.4724409448819 84.72532503204542 83.97820911920894 83.42885918329976 82.63779527559055 82.02252334737227 81.29738143197216 80.44039553195387 79.5394616370628 78.8802417139718 78.00128181651712 77.38600988829884 76.19941402673503 75.58414209851676 74.70518220106207 73.78227430873466 73.07910639077092 72.39791247024354 71.14539461637062 70.46420069584326 69.51931880607947 68.86009888298847 67.82732100347921 66.86046511627907 66.22321919062443 65.30031129829702 64.35542940853324 63.388573521333086 62.707379600805716 62.02618568027834 60.86156381615089 59.916681926387106 59.27943600073247 58.31258011353232 57.67533418787768 57.016114264786665 55.74162241347739 55.10437648782275 54.15949459805896 53.214612708295185 52.62131477751328 51.43471891594946 50.86339498260392 50.248123054385644 49.369163156930966 48.77586522614906 47.87493133125801 47.017945431239696 46.117011536348656 45.58963559787585 44.79857169016664 44.22724775682109 43.370261856802784 42.776963926020876 41.81010803882073 41.15088811572972 40.667460172129644 39.986266251602274 39.744552279802235 39.08533235671123 38.29426844900202 37.89873649514741 37.3713605566746 36.80003662332906 36.360556674601725 35.74528474638345 35.17396081303791 34.51474088994689 33.74565097967405 33.262223036073976 32.53708112067387 31.87786119758286 31.24061527192822 30.669291338582678 30.44955136421901 29.9880974180553 29.504669474455227 29.131111518036988 28.71360556674602 28.16425563083684 27.90056766160044 27.548983702618568 27.307269730818533 27.131477751327594 26.845815784654825 26.626075810291155 26.51620582310932 26.494231825672955 26.494231825672955 26.51620582310932 26.51620582310932 26.494231825672955 26.472257828236586 26.472257828236586 26.472257828236586 26.472257828236586 26.45028383080022 26.42830983336385 26.406335835927486 26.406335835927486 26.38436183849112 26.38436183849112 26.36238784105475 26.318439846182017 26.29646584874565 26.252517853872916 26.23054385643655 26.208569859000182 26.120673869254716 26.120673869254716 26.054751876945616 25.988829884636512 25.944881889763778 25.878959897454678 25.813037905145578 25.769089910272843 25.703167917963743 25.681193920527377 25.637245925654643 25.637245925654643 25.615271928218274 25.615271928218274 25.615271928218274 25.615271928218274 25.615271928218274 25.615271928218274 25.615271928218274 25.615271928218274 25.615271928218274 25.615271928218274 25.615271928218274 25.593297930781908 25.593297930781908 25.593297930781908 25.593297930781908 25.593297930781908 25.571323933345543 25.593297930781908 25.571323933345543 25.571323933345543 25.571323933345543 25.571323933345543 25.571323933345543 25.571323933345543 25.571323933345543 25.571323933345543 25.571323933345543 25.571323933345543 25.571323933345543 25.571323933345543 25.571323933345543 25.571323933345543 25.571323933345543 25.549349935909174 25.571323933345543 25.571323933345543 25.571323933345543 25.549349935909174 25.571323933345543 25.571323933345543 25.571323933345543 25.571323933345543 25.571323933345543 25.571323933345543 25.571323933345543 25.571323933345543 25.571323933345543 25.571323933345543 25.571323933345543 25.571323933345543 25.571323933345543 25.571323933345543 25.571323933345543 25.571323933345543 25.571323933345543 25.571323933345543 25.571323933345543 25.571323933345543 25.571323933345543 25.571323933345543 25.571323933345543 25.571323933345543 25.571323933345543 25.571323933345543 25.571323933345543 25.571323933345543 25.571323933345543 25.571323933345543 25.571323933345543 25.571323933345543 25.571323933345543 25.571323933345543 25.549349935909174 25.571323933345543 25.549349935909174 25.571323933345543 25.549349935909174 25.571323933345543 25.549349935909174 25.571323933345543 25.571323933345543 25.571323933345543 25.571323933345543 25.571323933345543 25.571323933345543 25.571323933345543 25.571323933345543 25.571323933345543 25.571323933345543 25.571323933345543 25.571323933345543 25.571323933345543 25.571323933345543 25.571323933345543 25.571323933345543 25.571323933345543 25.593297930781908 25.571323933345543 25.571323933345543 25.571323933345543 25.571323933345543 25.571323933345543 25.571323933345543 25.571323933345543 25.571323933345543 25.571323933345543 25.571323933345543 25.571323933345543 25.571323933345543 25.571323933345543 25.571323933345543 25.571323933345543 25.571323933345543 25.571323933345543 25.571323933345543 25.571323933345543 25.571323933345543 25.571323933345543 25.571323933345543 25.571323933345543 25.571323933345543 25.571323933345543 25.571323933345543 25.571323933345543 25.571323933345543 25.593297930781908 25.571323933345543 25.571323933345543 25.571323933345543 25.571323933345543 25.571323933345543 25.571323933345543 25.571323933345543 25.571323933345543 25.571323933345543 25.571323933345543 25.571323933345543 25.571323933345543 25.571323933345543 25.571323933345543 25.571323933345543 25.571323933345543 25.571323933345543 25.571323933345543 25.593297930781908 25.571323933345543 25.571323933345543 25.571323933345543 25.571323933345543 25.571323933345543 25.571323933345543 25.571323933345543 25.571323933345543 25.571323933345543 25.571323933345543 25.571323933345543 25.571323933345543 25.571323933345543 25.571323933345543 25.571323933345543 25.593297930781908 25.571323933345543 25.571323933345543 25.593297930781908 25.571323933345543 25.571323933345543 25.571323933345543 25.571323933345543 25.571323933345543 25.571323933345543 25.571323933345543 25.571323933345543 25.593297930781908 25.571323933345543 25.571323933345543 25.571323933345543 25.571323933345543 25.571323933345543 25.571323933345543 25.571323933345543 25.571323933345543 25.571323933345543 25.571323933345543 25.571323933345543 25.593297930781908 25.571323933345543 25.571323933345543 25.593297930781908 25.571323933345543 25.571323933345543 25.571323933345543 25.593297930781908 25.571323933345543 25.571323933345543 25.593297930781908 25.571323933345543 25.593297930781908 25.593297930781908 25.593297930781908 25.571323933345543 25.571323933345543 25.593297930781908 25.571323933345543 25.593297930781908 25.593297930781908 25.593297930781908 25.593297930781908 25.593297930781908 25.593297930781908 25.593297930781908 25.593297930781908 25.571323933345543 25.593297930781908 25.593297930781908 25.593297930781908 25.571323933345543 25.593297930781908 25.593297930781908 25.593297930781908 25.593297930781908 25.571323933345543 25.593297930781908 25.593297930781908 25.593297930781908 25.593297930781908 25.593297930781908 25.593297930781908 25.615271928218274 25.615271928218274 25.615271928218274 25.615271928218274 25.637245925654643 25.637245925654643 25.681193920527377 25.769089910272843 25.856985900018312 25.944881889763778 26.07672587438198 26.208569859000182 26.38436183849112 26.80186778978209 27.04358176158213 27.417139718000367 27.68082768723677 28.076359641091376 28.53781358725508 29.043215528291523 29.394799487273392 29.944149423182566 30.317707379600805 30.801135323200878 31.130745284746382 31.855887200146494 32.33931514374657 32.712873100164806 33.108405054019414 33.635780992492215 34.05328694378319 34.9102728438015 35.34975279252884 36.03094671305622 36.756088628456325 37.327412561801864 37.87676249771104 38.79967039003846 39.370994323384 40.206006225965936 40.75535616187511 41.50247207471159 42.27156198498443 42.798937923457245 43.590001831166454 44.2931697491302 44.79857169016664 45.47976561069402 45.96319355429409 46.622413477385095 47.50137337483977 47.96282732100348 48.62204724409449 49.08350119025819 49.50100714154917 50.160227064640175 50.577733015931145 51.36879692364036 52.006042849295 52.51144479033144 53.14869071598608 53.851858633949824 54.35726057498627 55.14832448269547 55.65372642373192 56.356894341695664 57.104010254532135 57.58743819813221 58.33455411096869 59.08167002380517 59.60904596227797 60.40010986998718 60.94945980589635 61.76249771104193 62.53158762131478 63.366599523896724 64.15766343160593 64.48727339315144 65.30031129829702 66.48690715986083 67.08020509064274 68.00311298297015 68.90404687786119 69.60721479582494 70.46420069584326 71.07947262406154 71.95843252151622 72.88134041384362 73.51858633949826 74.41952023438931 75.62809009338949 76.0895440395532 76.8146859549533 77.40798388573522 78.26496978575352 79.1439296832082 79.71525361655375 80.77000549349935 81.58304339864495 82.44002929866325 82.72569126533602 83.53872917048159 84.0661051089544 85.12085698590002 85.62625892693646 86.19758286028201 86.96667277055485 87.55997070133675 88.30708661417323 88.7905145577733 89.51565647317341 90.28474638344626 90.83409631935542 91.5812122321919 92.50412012451932 92.94360007324666 93.55887200146493 93.7786119758286 94.24006592199231 94.63559787584691 94.96520783739241 95.20692180919247 95.36073979124703 95.40468778611975 95.42666178355613 95.42666178355613 95.38271378868339 95.07507782457425 94.85533785021059 94.43783189891961 93.99835195019227 93.69071598608313 93.1853140450467 92.63596410913752 92.17451016297382 91.47134224501008 90.7242263321736 90.24079838857352 89.71342245010072 88.96630653726424 87.93352865775499 87.38417872184581 86.85680278337301 86.04376487822742 85.42849295000916 84.59348104742722 83.75846914484526 82.9454312396997 82.15436733199049 81.58304339864495 80.72605749862663 79.86907159860831 79.29774766526278 78.44076176524446 77.84746383446256 76.9465299395715 76.04559604468047 75.43032411646219 74.52939022157113 73.60648232924373 72.9692364035891 72.00238051638894 71.34316059329794 70.33235671122506 69.32155282915217 68.24482695477019 67.51968503937007 66.55282915216993 65.78373924189708 64.48727339315144 64.04779344442409 62.81724958798755 61.8503937007874 61.25709577000549 60.422083867423545 59.63101995971434 58.73008606482329 58.13678813404138 57.30177623145944 56.752426295550265 55.983336385277426 55.43398644936825 54.62094854422267 53.80791063907709 53.280534700604285 52.46749679545871 51.91814685954954 50.81944698773118 50.336019044131106 49.808643105658305 48.81981322102179 48.33638527742171 47.83098333638527 46.93004944149423 46.468595495330526 45.78740157480315 45.17212964658488 44.7546236952939 44.16132576451199 43.721845815784654 43.304339864493684 42.82091192089361 42.51327595678447 42.0298480131844 41.54642006958433 41.084966123420614 40.77733015931148 40.42574620032961 39.920344259293174 39.48086431056583 39.19520234389306 38.68980040285662 38.31624244643838 38.05255447720198 37.65702252334737 37.4372825489837 37.15162058231093 36.646218641274494 36.316608679728986 35.87712873100165 35.45962277971068 35.17396081303791 34.73448086431057 34.31697491301959 34.05328694378319 33.701702984801315 33.48196301043765 33.196301043764876 32.88866507965574 32.60300311298297 32.3173411463102 32.14154916681926 31.96575718732833 31.702069218091925 31.50430324116462 31.15271928218275 30.889031312946347 30.625343343709943 30.44955136421901 30.273759384728073 30.07599340780077 29.812305438564366 29.526643471891596 29.262955502655192 28.999267533418788 28.84544955136422 28.603735579564184 28.427943600073245 28.208203625709576 27.944515656473172 27.768723676982237 27.527009705182202 27.263321735945798 27.087529756454863 26.757919794909355 26.58212781541842 26.494231825672955 26.42830983336385 26.406335835927486 26.406335835927486 26.406335835927486 26.406335835927486 26.406335835927486 26.406335835927486 26.38436183849112 26.36238784105475 26.340413843618386 26.318439846182017 26.318439846182017 26.29646584874565 26.274491851309286 26.274491851309286 26.252517853872916 26.208569859000182 26.186595861563816 26.14264786669108 26.07672587438198 26.054751876945616 26.01080388207288 25.922907892327412 25.856985900018312 25.769089910272843 25.72514191540011 25.637245925654643 25.593297930781908 25.549349935909174 25.483427943600073 25.461453946163708 25.395531953854604 25.329609961545504 25.30763596410914 25.28566196667277 25.263687969236404 25.241713971800035 25.241713971800035 25.241713971800035 25.241713971800035 25.241713971800035 25.241713971800035 25.241713971800035 25.241713971800035 25.241713971800035 25.241713971800035 25.21973997436367 25.241713971800035 25.241713971800035 25.21973997436367 25.21973997436367 25.241713971800035 25.21973997436367 25.21973997436367 25.21973997436367 25.21973997436367 25.21973997436367 25.21973997436367 25.21973997436367 25.21973997436367 25.21973997436367 25.21973997436367 25.21973997436367 25.21973997436367 25.21973997436367 25.21973997436367 25.21973997436367 25.21973997436367 25.21973997436367 25.21973997436367 25.197765976927304 25.197765976927304 25.21973997436367 25.197765976927304 25.175791979490935 25.175791979490935 25.175791979490935 25.175791979490935 25.197765976927304 25.175791979490935 25.175791979490935 25.175791979490935 25.175791979490935 25.175791979490935 25.175791979490935 25.175791979490935 25.175791979490935 25.175791979490935 25.175791979490935 25.175791979490935 25.175791979490935 25.175791979490935 25.175791979490935 25.175791979490935 25.175791979490935 25.175791979490935 25.175791979490935 25.175791979490935 25.175791979490935 25.175791979490935 25.175791979490935 25.175791979490935 25.175791979490935 25.175791979490935 25.175791979490935 25.175791979490935 25.175791979490935 25.175791979490935 25.175791979490935 25.175791979490935 25.175791979490935 25.175791979490935 25.175791979490935 25.175791979490935 25.175791979490935 25.175791979490935 25.175791979490935 25.175791979490935 25.175791979490935 25.175791979490935 25.175791979490935 25.175791979490935 25.175791979490935 25.175791979490935 25.175791979490935 25.175791979490935 25.175791979490935 25.175791979490935 25.175791979490935 25.175791979490935 25.175791979490935 25.175791979490935 25.175791979490935 25.175791979490935 25.175791979490935 25.175791979490935 25.175791979490935 25.175791979490935 25.197765976927304 25.175791979490935 25.175791979490935 25.175791979490935 25.197765976927304 25.197765976927304 25.197765976927304 25.175791979490935 25.197765976927304 25.175791979490935 25.197765976927304 25.197765976927304 25.197765976927304 25.197765976927304 25.197765976927304 25.197765976927304 25.197765976927304 25.197765976927304 25.197765976927304 25.197765976927304 25.197765976927304 25.197765976927304 25.197765976927304 25.197765976927304 25.197765976927304 25.197765976927304 25.197765976927304 25.197765976927304 25.197765976927304 25.197765976927304 25.197765976927304 25.197765976927304 25.197765976927304 25.197765976927304 25.175791979490935 25.197765976927304 25.197765976927304 25.175791979490935 25.175791979490935 25.175791979490935 25.197765976927304 25.175791979490935 25.175791979490935 25.197765976927304 25.175791979490935 25.175791979490935 25.175791979490935 25.175791979490935 25.175791979490935 25.175791979490935 25.175791979490935 25.175791979490935 25.175791979490935 25.175791979490935 25.175791979490935 25.175791979490935 25.175791979490935 25.197765976927304 25.197765976927304 25.197765976927304 25.175791979490935 25.175791979490935 25.175791979490935 25.197765976927304 25.197765976927304 25.197765976927304 25.197765976927304 25.197765976927304 25.197765976927304 25.197765976927304 25.175791979490935 25.197765976927304 25.197765976927304 25.197765976927304 25.197765976927304 25.197765976927304 25.197765976927304 25.197765976927304 25.197765976927304 25.197765976927304 25.197765976927304 25.197765976927304 25.197765976927304 25.197765976927304 25.197765976927304 25.197765976927304 25.197765976927304 25.197765976927304 25.197765976927304 25.197765976927304 25.197765976927304 25.197765976927304 25.197765976927304 25.197765976927304 25.197765976927304 25.197765976927304 25.197765976927304 25.197765976927304 25.197765976927304 25.197765976927304 25.197765976927304 25.197765976927304 25.197765976927304 25.197765976927304 25.21973997436367 25.197765976927304 25.197765976927304 25.21973997436367 25.21973997436367 25.241713971800035 25.263687969236404 25.263687969236404 25.263687969236404 25.28566196667277 25.30763596410914 25.329609961545504 25.43947994872734 25.50540194103644 25.703167917963743 25.944881889763778 26.098699871818347 26.36238784105475 26.648049807727524 26.88976377952756 27.263321735945798 27.505035707745833 27.90056766160044 28.427943600073245 28.71360556674602 28.97729353598242 29.394799487273392 29.680461453946165 30.097967405237135 30.383629371909905 30.932979307819082 31.37245925654642 31.65812122321919 31.987731184764694 32.646951107855706 32.91063907709211 33.591832997619484 33.98736495147409 34.58066288225599 35.19593481047427 35.65738875663798 36.250686687419886 36.822010620765425 37.2395165720564 37.81084050540194 38.18439846182018 38.68980040285662 39.28309833363853 39.7006042849295 40.535616187511444 40.97509613623878 41.45852407983885 42.40340596960264 42.996703900384546 43.502105841420985 44.38106573887566 45.0842336568394 45.54568760300312 46.02911554660319 46.490569492766895 47.127815418421534 47.83098333638527 48.55612525178539 49.237319172312766 49.742721113349205 50.46786302874931 50.99523896722212 51.72038088262223 52.55539278520418 53.104742721113354 53.895806628822555 54.75279252884087 55.32411646218641 56.181102362204726 56.818348287859365 57.63138619300494 58.75206006225966 59.41127998535067 60.026551913568944 60.81761582127815 61.69657571873283 62.55356161875115 63.16883354696942 63.784105475187694 64.92675334187878 65.56399926753342 66.5088811572972 67.45376304706097 68.09100897271563 69.07983885735213 69.80498077275224 70.68394067020692 71.67277055484342 72.33199047793445 73.27687236769822 74.24372825489837 74.88097418055301 75.80388207288043 76.44112799853508 77.38600988829884 78.30891778062626 78.94616370628091 80.24262955502655 81.0776414576085 81.45119941402675 82.54989928584509 83.14319721662699 83.71452114997254 84.83519501922726 85.38454495513642 86.24153085515474 87.01062076542757 87.49404870902765 88.15326863211865 88.68064457059147 89.33986449368247 90.08698040651895 90.57040835011902 91.27357626808276 91.95477018861015 92.5260941219557 93.03149606299212 93.2512360373558 93.55887200146493 93.86650796557407 94.02032594762865 94.26203991942867 94.32796191173779 94.34993590917415 94.34993590917415 94.34993590917415 94.30598791430141 94.06427394250137 93.82255997070133 93.383080021974 93.00952206555576 92.37227613990112 91.62516022706464 90.87804431422816 90.35066837575536 89.66947445522798 89.16407251419155 88.41695660135505 87.93352865775499 86.96667277055485 86.2635048525911 85.8020509064274 85.29664896539094 84.3957150704999 83.8683391320271 83.18714521149973 82.70371726789965 81.97857535249955 81.20948544222671 80.70408350119027 80.13275956784472 79.23182567295368 78.70444973448086 77.91338582677164 77.12232191906244 76.57297198315328 75.78190807544406 75.23255813953489 74.15583226515291 73.60648232924373 73.05713239333456 72.22212049075262 71.65079655740706 70.79381065738875 69.65116279069767 69.05786485991577 68.20087895989745 67.62955502655191 67.01428309833364 65.87163523164256 65.49807727522432 64.4433253982787 63.630287493133125 63.080937557223955 62.24592565464201 61.47683574436916 60.663797839223584 60.158395898187145 59.652993957150706 58.55429408533236 58.07086614173228 57.52151620582311 56.686504303241165 56.049258377586526 55.19227247756821 54.42318256729537 53.851858633949824 52.88500274674968 52.31367881340414 51.63248489287676 50.90734297747665 50.599707013367514 49.89653909540377 48.86376121589453 48.35835927485809 47.63321735945797 46.93004944149423 46.424647500457795 45.69950558505768 45.23805163889398 44.60080571323933 43.941585790148324 43.45815784654825 42.75498992858451 41.83208203625709 41.37062809009339 40.953122138802414 40.513642190075075 39.854422266984066 39.26112433620216 38.88756637978392 38.25032045412928 37.7668925105292 37.48123054385644 37.063724592565464 36.778062625892694 36.536348654092656 36.052920710492586 35.76725874381981 35.32777879509247 34.88829884636513 34.62461087712873 34.09723493865592 33.767624977110415 33.438015015564915 33.064457059146676 32.800769089910276 32.4491851309284 32.0536531770738 31.636147225782825 31.262589269364586 30.998901300128182 30.779161325764512 30.44955136421901 30.20783739241897 29.790331441127996 29.504669474455227 29.350851492400658 29.109137520600623 28.955319538546053 28.823475553927853 28.55978758469145 28.40596960263688 28.208203625709576 28.076359641091376 27.856619666727706 27.636879692364037 27.461087712873102 27.17542574620033 26.845815784654825 26.626075810291155 26.494231825672955 26.42830983336385 26.340413843618386 26.274491851309286 26.23054385643655 26.208569859000182 26.208569859000182 26.208569859000182 26.208569859000182 26.208569859000182 26.186595861563816 26.186595861563816 26.186595861563816 26.164621864127447 26.120673869254716 26.098699871818347 26.054751876945616 26.032777879509247 25.988829884636512 25.922907892327412 25.878959897454678 25.813037905145578 25.747115912836477 25.681193920527377 25.615271928218274 25.571323933345543 25.527375938472808 25.461453946163708 25.417505951290973 25.37355795641824 25.37355795641824 25.37355795641824 25.37355795641824 25.37355795641824 25.37355795641824 25.37355795641824 25.37355795641824 25.37355795641824 25.35158395898187 25.35158395898187 25.37355795641824 25.35158395898187 25.35158395898187 25.37355795641824 25.35158395898187 25.35158395898187 25.35158395898187 25.35158395898187 25.35158395898187 25.35158395898187 25.35158395898187 25.35158395898187 25.35158395898187 25.35158395898187 25.35158395898187 25.35158395898187 25.35158395898187 25.35158395898187 25.35158395898187 25.35158395898187 25.35158395898187 25.37355795641824 25.35158395898187 25.35158395898187 25.35158395898187 25.37355795641824 25.35158395898187 25.35158395898187 25.37355795641824 25.37355795641824 25.37355795641824 25.37355795641824 25.35158395898187 25.37355795641824 25.37355795641824 25.37355795641824 25.37355795641824 25.37355795641824 25.37355795641824 25.37355795641824 25.37355795641824 25.37355795641824 25.37355795641824 25.37355795641824 25.37355795641824 25.37355795641824 25.37355795641824 25.37355795641824 25.37355795641824 25.395531953854604 25.395531953854604 25.395531953854604 25.395531953854604 25.395531953854604 25.395531953854604 25.417505951290973 25.395531953854604 25.417505951290973 25.395531953854604 25.417505951290973 25.417505951290973 25.417505951290973 25.417505951290973 25.417505951290973 25.417505951290973 25.417505951290973 25.417505951290973 25.417505951290973 25.43947994872734 25.43947994872734 25.417505951290973 25.43947994872734 25.417505951290973 25.43947994872734 25.43947994872734 25.417505951290973 25.43947994872734 25.43947994872734 25.43947994872734 25.43947994872734 25.43947994872734 25.43947994872734 25.43947994872734 25.43947994872734 25.43947994872734 25.43947994872734 25.43947994872734 25.43947994872734 25.417505951290973 25.43947994872734 25.43947994872734 25.43947994872734 25.417505951290973 25.417505951290973 25.417505951290973 25.43947994872734 25.43947994872734 25.43947994872734 25.43947994872734 25.43947994872734 25.43947994872734 25.43947994872734 25.43947994872734 25.43947994872734 25.43947994872734 25.43947994872734 25.43947994872734 25.43947994872734 25.43947994872734 25.43947994872734 25.43947994872734 25.43947994872734 25.43947994872734 25.43947994872734 25.43947994872734 25.43947994872734 25.43947994872734 25.461453946163708 25.43947994872734 25.461453946163708 25.43947994872734 25.461453946163708 25.461453946163708 25.461453946163708 25.461453946163708 25.461453946163708 25.461453946163708 25.461453946163708 25.461453946163708 25.461453946163708 25.461453946163708 25.461453946163708 25.461453946163708 25.461453946163708 25.461453946163708 25.461453946163708 25.483427943600073 25.461453946163708 25.461453946163708 25.461453946163708 25.461453946163708 25.461453946163708 25.461453946163708 25.461453946163708 25.461453946163708 25.461453946163708 25.461453946163708 25.461453946163708 25.461453946163708 25.461453946163708 25.461453946163708 25.461453946163708 25.461453946163708 25.461453946163708 25.461453946163708 25.461453946163708 25.461453946163708 25.461453946163708 25.461453946163708 25.461453946163708 25.461453946163708 25.461453946163708 25.461453946163708 25.461453946163708 25.461453946163708 25.461453946163708 25.461453946163708 25.461453946163708 25.461453946163708 25.461453946163708 25.461453946163708 25.461453946163708 25.461453946163708 25.461453946163708 25.461453946163708 25.43947994872734 25.461453946163708 25.461453946163708 25.461453946163708 25.43947994872734 25.43947994872734 25.461453946163708 25.461453946163708 25.43947994872734 25.43947994872734 25.43947994872734 25.43947994872734 25.43947994872734 25.461453946163708 25.43947994872734 25.461453946163708 25.461453946163708 25.461453946163708 25.461453946163708 25.461453946163708 25.461453946163708 25.461453946163708 25.461453946163708 25.461453946163708 25.461453946163708 25.483427943600073 25.483427943600073 25.483427943600073 25.50540194103644 25.527375938472808 25.615271928218274 25.637245925654643 25.703167917963743 25.747115912836477 25.813037905145578 25.922907892327412 26.01080388207288 26.14264786669108 26.252517853872916 26.472257828236586 26.58212781541842 26.691997802600255 26.911737776963925 27.087529756454863 27.219373741073063 27.505035707745833 27.658853689800402 27.90056766160044 28.12030763596411 28.296099615455045 28.49386559238235 28.823475553927853 28.999267533418788 29.306903497527927 29.526643471891596 29.878227430873466 30.251785387291704 30.691265336019043 30.932979307819082 31.394433253982786 31.702069218091925 32.20747115912837 32.55905511811024 33.152353048892145 33.569859000183115 33.855520966855885 34.16315693096502 34.62461087712873 34.99816883354697 35.72331074894708 36.07489470792895 36.602270646401756 37.08569859000183 37.4372825489837 38.11847646951108 38.53598242080205 38.88756637978392 39.34902032594763 39.744552279802235 40.35982420802051 41.04101812854789 41.70023805163889 42.38143197216627 42.62314594396631 43.238417872184584 43.80974180553012 44.205273759384724 44.99633766709394 45.56766160043948 45.985167551730456 46.66636147225783 46.952023438930595 48.02874931331258 48.88573521333089 49.52298113898553 50.42391503387658 51.28090093389489 51.83025086980406 52.64328877494964 53.192638710858816 53.93975462369529 54.73081853140451 55.30214246475005 56.02728438015016 56.818348287859365 57.41164621864127 58.46639809558689 59.03772202893243 59.916681926387106 60.53195385460538 61.21314777513276 62.07013367515107 63.256729536714886 63.850027467496794 64.72898736495148 65.34425929316976 65.93755722395166 67.1681010803882 67.78337300860647 68.7062809009339 69.58524079838858 70.20051272660686 71.14539461637062 71.7606665445889 72.63962644204358 73.562534334371 74.17780626258927 75.05676616004395 75.93572605749863 76.5509979857169 77.34206189342612 78.2210217908808 78.7483977293536 79.5394616370628 80.06683757553562 81.05566746017213 81.84673136788135 82.35213330891779 83.12122321919063 83.62662516022706 84.1320271012635 85.18677897820913 85.62625892693646 86.57114081670024 86.96667277055485 87.51602270646401 88.26313861930049 88.74656656290057 89.44973448086431 90.13092840139169 90.5923823475554 91.1856802783373 91.60318622962828 92.37227613990112 92.89965207837392 93.0534700604285 93.5149240065922 93.9104559604468 94.30598791430141 94.61362387841055 94.78941585790149 94.94323383995605 95.03112982970153 95.05310382713789 95.05310382713789 95.05310382713789 95.00915583226515 94.83336385277421 94.65757187328327 94.34993590917415 93.97637795275591 93.55887200146493 93.22926203991943 92.7897820911921 92.43819813221022 91.82292620399194 91.4493682475737 90.5923823475554 89.97711041933712 89.55960446804615 88.94433253982787 88.52682658853689 88.08734663980957 87.20838674235489 86.70298480131844 86.02179088079106 85.31862296282733 84.85716901666362 84.15400109869987 83.25306720380883 82.70371726789965 82.19831532686322 81.67093938839041 81.05566746017213 80.28657754989928 79.75920161142648 78.72642373191724 78.2210217908808 77.71561984984436 76.96850393700788 76.44112799853508 75.71598608313496 74.74913019593481 74.15583226515291 73.47463834462553 73.01318439846182 72.39791247024354 71.38710858817066 70.85973264969786 70.15656473173412 69.431422816334 68.94799487273393 68.22285295733383 67.73942501373375 67.03625709577 66.28914118293352 65.78373924189708 65.08057132393334 64.28950741622413 63.80607947262406 63.058963559787585 62.487639626442046 61.80644570591467 61.01538179820545 60.422083867423545 59.301409998168836 58.73008606482329 57.76323017762314 56.884270280168465 56.20307635964109 55.52188243911371 54.203442592931694 53.478300677531585 52.44552279802234 51.45669291338582 50.75352499542208 49.83061710309467 49.237319172312766 48.38033327229445 47.54532136971251 47.039919428676065 46.358725508148694 45.45779161325764 45.0183116645303 44.51290972349386 43.98553378502106 43.392235854239146 42.776963926020876 42.35945797472991 41.63431605932979 41.15088811572972 40.86522614905695 40.513642190075075 40.27192821827504 39.876396264420436 39.458890313129466 39.12928035158396 38.64585240798389 38.16242446438381 37.8328145028383 37.195568577183664 37.041750595129095 36.624244643838125 36.22871268998352 35.94305072331075 35.63541475920161 35.39370078740157 34.86632484892877 34.40487090276506 34.09723493865592 33.81157297198315 33.39406702069218 32.95458707196484 32.581029115546606 32.29536714887384 31.89983519501923 31.52627723860099 31.262589269364586 30.911005310382713 30.537447353964474 30.317707379600805 29.966123420618935 29.76835744369163 29.504669474455227 29.131111518036988 28.933345541109688 28.71360556674602 28.449917597509614 28.230177623145945 27.922541659036806 27.702801684673137 27.263321735945798 26.999633766709394 26.82384178721846 26.67002380516389 26.60410181285479 26.560153817982055 26.560153817982055 26.560153817982055 26.560153817982055 26.538179820545686 26.51620582310932 26.494231825672955 26.494231825672955 26.494231825672955 26.472257828236586 26.45028383080022 26.42830983336385 26.406335835927486 26.38436183849112 26.340413843618386 26.29646584874565 26.252517853872916 26.186595861563816 26.120673869254716 26.032777879509247 25.922907892327412 25.878959897454678 25.813037905145578 25.747115912836477 25.703167917963743 25.615271928218274 25.549349935909174 25.483427943600073 25.43947994872734 25.395531953854604 25.37355795641824 25.35158395898187 25.35158395898187 25.35158395898187 25.35158395898187 25.35158395898187 25.35158395898187 25.35158395898187 25.35158395898187 25.35158395898187 25.35158395898187 25.35158395898187 25.35158395898187 25.35158395898187 25.35158395898187 25.35158395898187 25.35158395898187 25.35158395898187 25.329609961545504 25.329609961545504 25.329609961545504 25.329609961545504 25.329609961545504 25.329609961545504 25.329609961545504 25.329609961545504 25.329609961545504 25.329609961545504 25.329609961545504 25.329609961545504 25.329609961545504 25.329609961545504 25.329609961545504 25.329609961545504 25.329609961545504 25.329609961545504 25.30763596410914 25.30763596410914 25.28566196667277 25.28566196667277 25.263687969236404 25.263687969236404 25.241713971800035 25.21973997436367 25.21973997436367 25.21973997436367 25.21973997436367 25.21973997436367 25.21973997436367 25.197765976927304 25.197765976927304 25.197765976927304 25.197765976927304 25.197765976927304 25.197765976927304 25.197765976927304 25.197765976927304 25.197765976927304 25.197765976927304 25.197765976927304 25.197765976927304 25.197765976927304 25.197765976927304 25.197765976927304 25.197765976927304 25.197765976927304 25.197765976927304 25.197765976927304 25.197765976927304 25.197765976927304 25.197765976927304 25.197765976927304 25.197765976927304 25.197765976927304 25.197765976927304 25.197765976927304 25.197765976927304 25.197765976927304 25.197765976927304 25.197765976927304 25.21973997436367 25.197765976927304 25.197765976927304 25.197765976927304 25.197765976927304 25.197765976927304 25.197765976927304 25.197765976927304 25.197765976927304 25.197765976927304 25.197765976927304 25.21973997436367 25.197765976927304 25.197765976927304 25.197765976927304 25.197765976927304 25.197765976927304 25.197765976927304 25.197765976927304 25.21973997436367 25.197765976927304 25.197765976927304 25.21973997436367 25.21973997436367 25.197765976927304 25.21973997436367 25.21973997436367 25.21973997436367 25.21973997436367 25.197765976927304 25.21973997436367 25.197765976927304 25.21973997436367 25.21973997436367 25.21973997436367 25.21973997436367 25.21973997436367 25.21973997436367 25.21973997436367 25.197765976927304 25.21973997436367 25.21973997436367 25.21973997436367 25.21973997436367 25.21973997436367 25.21973997436367 25.21973997436367 25.21973997436367 25.21973997436367 25.21973997436367 25.197765976927304 25.21973997436367 25.21973997436367 25.21973997436367 25.21973997436367 25.21973997436367 25.21973997436367 25.21973997436367 25.21973997436367 25.21973997436367 25.21973997436367 25.21973997436367 25.21973997436367 25.21973997436367 25.21973997436367 25.21973997436367 25.21973997436367 25.21973997436367 25.21973997436367 25.21973997436367 25.21973997436367 25.21973997436367 25.21973997436367 25.21973997436367 25.21973997436367 25.21973997436367 25.21973997436367 25.21973997436367 25.21973997436367 25.21973997436367 25.21973997436367 25.21973997436367 25.21973997436367 25.21973997436367 25.21973997436367 25.21973997436367 25.21973997436367 25.21973997436367 25.21973997436367 25.21973997436367 25.21973997436367 25.21973997436367 25.21973997436367 25.21973997436367 25.21973997436367 25.21973997436367 25.21973997436367 25.21973997436367 25.21973997436367 25.21973997436367 25.21973997436367 25.21973997436367 25.21973997436367 25.21973997436367 25.241713971800035 25.241713971800035 25.241713971800035 25.241713971800035 25.241713971800035 25.241713971800035 25.241713971800035 25.241713971800035 25.241713971800035 25.241713971800035 25.241713971800035 25.241713971800035 25.241713971800035 25.241713971800035 25.241713971800035 25.263687969236404 25.263687969236404 25.263687969236404 25.263687969236404 25.263687969236404 25.263687969236404 25.28566196667277 25.28566196667277 25.28566196667277 25.30763596410914 25.35158395898187 25.37355795641824 25.417505951290973 25.615271928218274 25.72514191540011 25.900933894891047 26.14264786669108 26.340413843618386 26.779893792345725 27.04358176158213 27.307269730818533 27.87859366416407 28.16425563083684 28.449917597509614 29.065189525727888 29.372825489837027 29.834279436000735 30.163889397546235 30.383629371909905 30.647317341146312 30.932979307819082 31.196667277055482 31.636147225782825 31.96575718732833 32.53708112067387 33.306171030946714 33.74565097967405 34.141182933528654 34.60263687969236 34.95422083867423 35.45962277971068 35.83318073612892 36.58029664896539 37.1735945797473 37.61307452847464 38.05255447720198 38.49203442592932 39.107306354147596 40.030214246475005 40.535616187511444 41.17286211316609 41.81010803882073 42.2276139901117 42.95275590551181 43.194469877311846 43.699871818348285 44.31514374656656 44.66672770554844 45.21607764145761 45.985167551730456 46.402673503021425 46.995971433803334 47.259659403039734 47.83098333638527 48.51217725691265 48.99560520051273 49.962461087712875 50.73155099798572 51.25892693645852 52.006042849295 52.53341878776781 53.346456692913385 54.137520600622594 54.77476652627723 55.54385643655009 56.422816334004764 56.950192272477565 57.82915216993224 58.70811206738693 59.301409998168836 60.26826588536898 60.90551181102362 61.80644570591467 62.79527559055118 63.454495513642186 64.70701336751512 65.36623329060612 65.9815052188244 66.9044131111518 67.51968503937007 68.46456692913387 69.71708478300678 70.33235671122506 71.2332906061161 72.46383446255265 73.07910639077092 73.6284563266801 74.26570225233473 75.03479216260759 75.8258560703168 76.39718000366233 77.25416590368064 77.80351583958982 78.63852774217176 79.49551364219008 80.63816150888115 80.87987548068119 81.38527742171763 82.19831532686322 82.9454312396997 83.71452114997254 84.21992309100898 84.92309100897272 85.4065189525728 86.28547885002747 86.74693279619117 87.40615271928218 88.02142464750045 88.41695660135505 88.94433253982787 89.38381248855521 89.71342245010072 90.26277238600989 90.70225233473722 91.3175242629555 91.95477018861015 92.37227613990112 92.94360007324666 93.47097601171946 93.82255997070133 94.26203991942867 94.54770188610145 95.07507782457425 95.31679179637429 95.55850576817433 95.80021973997437 95.95403772202894 96.01995971433803 96.01995971433803 96.01995971433803 95.9760117194653 95.778245742538 95.53653177073797 95.09705182201061 94.61362387841055 94.30598791430141 93.75663797839223 93.33913202710126 92.70188610144663 91.75700421168284 91.22962827321004 90.61435634499176 89.84526643471892 89.31789049624611 88.52682658853689 87.71378868339133 86.96667277055485 86.17560886284564 85.64823292437282 84.92309100897272 84.41768906793627 83.89031312946346 82.83556125251786 82.26423731917231 81.45119941402675 80.68210950375389 80.13275956784472 79.25379967039004 78.70444973448086 77.89141182933528 77.0783739241897 76.50704999084417 75.6940120856986 74.79307819080753 74.17780626258927 72.92528840871636 72.26606848562534 71.60684856253434 70.81578465482514 70.20051272660686 69.34352682658854 68.17890496246109 67.58560703167919 66.72862113166087 66.39901117011536 65.56399926753342 64.4433253982787 63.87200146493316 62.993041567478485 62.09210767258744 61.47683574436916 60.55392785204175 59.60904596227797 58.9937740340597 58.00494414942318 57.323750228895804 56.356894341695664 55.36806445705915 54.68687053653177 53.412378685222485 52.797106757004215 52.2038088262223 51.43471891594946 50.84142098516755 49.89653909540377 49.12744918513093 48.33638527742171 47.523347372276135 46.908075444057864 46.358725508148694 45.54568760300312 45.0842336568394 44.3590917414393 43.633949826039185 43.106573887566384 42.33748397729354 41.83208203625709 41.10694012085699 40.27192821827504 39.744552279802235 38.71177440029299 38.03058047976561 37.7668925105292 37.1076725874382 36.668192638710856 36.07489470792895 35.54751876945615 35.19593481047427 34.51474088994689 34.141182933528654 33.591832997619484 33.086431056583045 32.778795092473906 32.49313312580114 31.855887200146494 31.548251236037355 31.15271928218275 30.86705731550998 30.58139534883721 30.20783739241897 30.07599340780077 29.944149423182566 29.790331441127996 29.70243545138253 29.63651345907343 29.570591466764327 29.394799487273392 29.19703351034609 29.021241530855153 28.801501556491484 28.515839589818714 28.25215162058231 27.68082768723677 27.373191723127633 26.867789782091194 26.648049807727524 26.538179820545686 26.406335835927486 26.340413843618386 26.274491851309286 26.23054385643655 26.208569859000182 26.186595861563816 26.186595861563816 26.186595861563816 26.186595861563816 26.186595861563816 26.186595861563816 26.164621864127447 26.186595861563816 26.164621864127447 26.14264786669108 26.14264786669108 26.120673869254716 26.120673869254716 26.098699871818347 26.098699871818347 26.07672587438198 26.054751876945616 26.032777879509247 26.01080388207288 25.966855887200147 25.900933894891047 25.856985900018312 25.791063907709212 25.72514191540011 25.65921992309101 25.549349935909174 25.527375938472808 25.43947994872734 25.417505951290973 25.395531953854604 25.37355795641824 25.35158395898187 25.329609961545504 25.35158395898187 25.35158395898187 25.329609961545504 25.329609961545504 25.329609961545504 25.30763596410914 25.30763596410914 25.30763596410914 25.30763596410914 25.30763596410914 25.30763596410914 25.30763596410914 25.30763596410914 25.30763596410914 25.30763596410914 25.30763596410914 25.28566196667277 25.30763596410914 25.30763596410914 25.28566196667277 25.30763596410914 25.30763596410914 25.28566196667277 25.28566196667277 25.30763596410914 25.28566196667277 25.28566196667277 25.28566196667277 25.28566196667277 25.28566196667277 25.30763596410914 25.30763596410914 25.28566196667277 25.28566196667277 25.28566196667277 25.28566196667277 25.28566196667277 25.28566196667277 25.30763596410914 25.28566196667277 25.28566196667277 25.28566196667277 25.28566196667277 25.28566196667277 25.28566196667277 25.28566196667277 25.28566196667277 25.28566196667277 25.28566196667277 25.28566196667277 25.28566196667277 25.28566196667277 25.28566196667277 25.263687969236404 25.263687969236404 25.263687969236404 25.241713971800035 25.263687969236404 25.263687969236404 25.263687969236404 25.263687969236404 25.241713971800035 25.263687969236404 25.241713971800035 25.241713971800035 25.241713971800035 25.241713971800035 25.241713971800035 25.263687969236404 25.263687969236404 25.241713971800035 25.263687969236404 25.241713971800035 25.263687969236404 25.263687969236404 25.263687969236404 25.263687969236404 25.263687969236404 25.241713971800035 25.263687969236404 25.263687969236404 25.263687969236404 25.241713971800035 25.263687969236404 25.263687969236404 25.241713971800035 25.241713971800035 25.263687969236404 25.241713971800035 25.241713971800035 25.241713971800035 25.263687969236404 25.263687969236404 25.263687969236404 25.241713971800035 25.241713971800035 25.263687969236404 25.241713971800035 25.241713971800035 25.241713971800035 25.241713971800035 25.241713971800035 25.241713971800035 25.241713971800035 25.241713971800035 25.241713971800035 25.241713971800035 25.241713971800035 25.241713971800035 25.241713971800035 25.241713971800035 25.241713971800035 25.241713971800035 25.241713971800035 25.241713971800035 25.241713971800035 25.241713971800035 25.241713971800035 25.241713971800035 25.241713971800035 25.241713971800035 25.241713971800035 25.241713971800035 25.241713971800035 25.241713971800035 25.241713971800035 25.241713971800035 25.263687969236404 25.241713971800035 25.241713971800035 25.241713971800035 25.241713971800035 25.241713971800035 25.241713971800035 25.241713971800035 25.241713971800035 25.241713971800035 25.241713971800035 25.241713971800035 25.241713971800035 25.241713971800035 25.241713971800035 25.241713971800035 25.241713971800035 25.241713971800035 25.241713971800035 25.241713971800035 25.241713971800035 25.241713971800035 25.241713971800035 25.241713971800035 25.241713971800035 25.241713971800035 25.241713971800035 25.241713971800035 25.263687969236404 25.263687969236404 25.263687969236404 25.241713971800035 25.263687969236404 25.263687969236404 25.263687969236404 25.263687969236404 25.263687969236404 25.263687969236404 25.263687969236404 25.263687969236404 25.263687969236404 25.263687969236404 25.263687969236404 25.263687969236404 25.28566196667277 25.28566196667277 25.28566196667277 25.28566196667277 25.263687969236404 25.263687969236404 25.263687969236404 25.263687969236404 25.263687969236404 25.28566196667277 25.263687969236404 25.263687969236404 25.263687969236404 25.263687969236404 25.263687969236404 25.263687969236404 25.263687969236404 25.263687969236404 25.263687969236404 25.263687969236404 25.263687969236404 25.263687969236404 25.263687969236404 25.263687969236404 25.263687969236404 25.263687969236404 25.263687969236404 25.263687969236404 25.263687969236404 25.263687969236404 25.263687969236404 25.263687969236404 25.263687969236404 25.263687969236404 25.263687969236404 25.263687969236404 25.263687969236404 25.263687969236404 25.263687969236404 25.263687969236404 25.263687969236404 25.263687969236404 25.263687969236404 25.263687969236404 25.263687969236404 25.263687969236404 25.263687969236404 25.263687969236404 25.263687969236404 25.28566196667277 25.28566196667277 25.28566196667277 25.28566196667277 25.30763596410914 25.30763596410914 25.30763596410914 25.329609961545504 25.35158395898187 25.37355795641824 25.43947994872734 25.527375938472808 25.637245925654643 25.944881889763778 26.186595861563816 26.58212781541842 27.065555759018494 27.439113715436733 28.03241164621864 28.47189159494598 29.131111518036988 29.76835744369163 30.185863394982604 30.757187328328143 31.43838124885552 31.636147225782825 32.1195751693829 32.47115912836477 32.97656106940121 33.54788500274675 34.207104925837754 34.86632484892877 35.50357077458341 35.96502472074712 36.865958615638164 37.28346456692913 37.74491851309284 38.55795641823842 39.08533235671123 39.8324482695477 40.601538179820544 41.12891411829335 42.20563999267533 42.733015931148145 43.326313861930046 44.073429774766524 44.64475370811206 45.50173960813038 46.776231459439664 47.457425379967034 48.46822926203992 49.2812671671855 50.006409082585606 50.88536898004028 51.91814685954954 52.906976744186046 53.851858633949824 54.51107855704083 55.41201245193188 56.00531038271379 56.57663431605933 57.67533418787768 58.37850210584142 59.14759201611427 60.026551913568944 60.641823841787215 61.56473173411463 63.146859549533055 63.784105475187694 64.4433253982787 65.10254532136972 65.76176524446072 66.55282915216993 67.23402307269731 68.53048892144295 69.2336568394067 69.8928767624977 70.72788866507966 71.3651345907343 72.33199047793445 73.29884636513458 74.22175425746201 75.16663614722579 75.78190807544406 76.37520600622597 77.45193188060796 77.9573338216444 78.70444973448086 79.2757736678264 79.93499359091741 80.68210950375389 81.16553744735396 81.95660135506317 82.63779527559055 83.12122321919063 84.04413111151804 84.41768906793627 84.96703900384546 85.8679728987365 86.32942684490021 86.81285478850029 87.45010071415491 88.17524262955503 88.90038454495513 89.36183849111885 90.04303241164622 90.74620032960996 91.22962827321004 91.69108221937374 92.37227613990112 92.723860098883 93.22926203991943 93.71268998351951 94.02032594762865 94.37190990661051 94.61362387841055 94.89928584508333 95.09705182201061 95.18494781175609 95.25086980406519 95.25086980406519 95.25086980406519 95.18494781175609 94.98718183482879 94.72349386559239 94.50375389122871 94.24006592199231 93.75663797839223 93.49295000915583 93.09741805530123 92.6579381065739 92.3942501373375 91.95477018861015 91.55923823475554 91.27357626808276 90.87804431422816 90.57040835011902 90.13092840139169 89.51565647317341 89.18604651162791 88.8564365500824 88.52682658853689 88.02142464750045 87.53799670390038 87.18641274491851 86.46127082951841 85.91192089360922 85.51638893975462 84.92309100897272 84.65940303973632 84.08807910639078 83.36293719099066 82.79161325764511 82.17634132942685 81.56106940120857 81.12158945248123 80.50631752426295 80.02288958066288 79.38564365500824 78.6824757370445 78.17707379600806 77.47390587804432 76.7487639626442 75.97967405237137 75.21058414209853 74.66123420618933 74.11188427028017 73.27687236769822 72.70554843435269 71.56290056766161 70.68394067020692 70.09064273942502 69.18970884453397 68.59641091375207 67.40981505218824 66.97033510346091 66.2451931880608 65.32228529573338 64.39937740340596 63.74015748031496 62.927119575169385 62.35579564182384 61.49880974180553 60.61984984435085 60.026551913568944 58.94982603918696 58.42245010071415 57.87310016480498 56.796374290423 56.26899835195019 55.74162241347739 54.95055850576817 54.31331258011353 53.588170664713424 52.48947079289508 51.91814685954954 51.083134956967584 50.48983702618568 49.369163156930966 48.84178721845816 48.29243728254899 47.457425379967034 46.93004944149423 46.16095953122139 45.50173960813038 45.06225965940304 44.38106573887566 43.721845815784654 43.282365867057315 42.667093938839045 42.2276139901117 41.65629005676616 41.10694012085699 40.579564182384175 40.184032228529574 39.678630287493135 39.107306354147596 38.60190441311115 38.29426844900202 37.81084050540194 37.3054385643655 36.953854605383626 36.558322651529025 35.87712873100165 35.48159677714705 34.95422083867423 34.58066288225599 34.03131294634682 33.48196301043765 33.086431056583045 32.53708112067387 31.987731184764694 31.636147225782825 31.130745284746382 30.669291338582678 30.20783739241897 29.812305438564366 29.658487456509796 29.19703351034609 28.955319538546053 28.735579564182384 28.31807361289141 28.09833363852774 27.74674967954587 27.351217725691264 27.087529756454863 26.713971800036624 26.60410181285479 26.51620582310932 26.45028383080022 26.42830983336385 26.406335835927486 26.406335835927486 26.406335835927486 26.406335835927486 26.38436183849112 26.38436183849112 26.38436183849112 26.38436183849112 26.36238784105475 26.340413843618386 26.340413843618386 26.340413843618386 26.318439846182017 26.29646584874565 26.274491851309286 26.252517853872916 26.23054385643655 26.186595861563816 26.164621864127447 26.098699871818347 26.054751876945616 26.01080388207288 25.944881889763778 25.878959897454678 25.791063907709212 25.703167917963743 25.615271928218274 25.549349935909174 25.50540194103644 25.461453946163708 25.417505951290973 25.395531953854604 25.395531953854604 25.395531953854604 25.395531953854604 25.395531953854604 25.395531953854604 25.395531953854604 25.395531953854604 25.395531953854604 25.395531953854604 25.395531953854604 25.395531953854604 25.395531953854604 25.395531953854604 25.395531953854604 25.395531953854604 25.395531953854604 25.417505951290973 25.395531953854604 25.395531953854604 25.395531953854604 25.395531953854604 25.395531953854604 25.395531953854604 25.395531953854604 25.395531953854604 25.395531953854604 25.395531953854604 25.395531953854604 25.395531953854604 25.395531953854604 25.395531953854604 25.395531953854604 25.395531953854604 25.395531953854604 25.37355795641824 25.37355795641824 25.37355795641824 25.37355795641824 25.395531953854604 25.395531953854604 25.37355795641824 25.395531953854604 25.395531953854604 25.37355795641824 25.37355795641824 25.395531953854604 25.37355795641824 25.37355795641824 25.37355795641824 25.395531953854604 25.37355795641824 25.395531953854604 25.37355795641824 25.395531953854604 25.395531953854604 25.395531953854604 25.37355795641824 25.395531953854604 25.395531953854604 25.395531953854604 25.395531953854604 25.395531953854604 25.395531953854604 25.395531953854604 25.395531953854604 25.395531953854604 25.37355795641824 25.395531953854604 25.395531953854604 25.395531953854604 25.395531953854604 25.37355795641824 25.395531953854604 25.395531953854604 25.395531953854604 25.395531953854604 25.37355795641824 25.37355795641824 25.395531953854604 25.395531953854604 25.395531953854604 25.395531953854604 25.395531953854604 25.37355795641824 25.395531953854604 25.395531953854604 25.395531953854604 25.395531953854604 25.37355795641824 25.37355795641824 25.395531953854604 25.37355795641824 25.395531953854604 25.37355795641824 25.37355795641824 25.395531953854604 25.37355795641824 25.37355795641824 25.37355795641824 25.37355795641824 25.37355795641824 25.37355795641824 25.395531953854604 25.395531953854604 25.395531953854604 25.37355795641824 25.37355795641824 25.37355795641824 25.37355795641824 25.37355795641824 25.37355795641824 25.37355795641824 25.37355795641824 25.395531953854604 25.37355795641824 25.37355795641824 25.37355795641824 25.37355795641824 25.37355795641824 25.37355795641824 25.37355795641824 25.37355795641824 25.37355795641824 25.37355795641824 25.37355795641824 25.37355795641824 25.37355795641824 25.37355795641824 25.37355795641824 25.37355795641824 25.37355795641824 25.37355795641824 25.37355795641824 25.37355795641824 25.37355795641824 25.37355795641824 25.37355795641824 25.37355795641824 25.37355795641824 25.37355795641824 25.37355795641824 25.37355795641824 25.37355795641824 25.37355795641824 25.37355795641824 25.37355795641824 25.37355795641824 25.37355795641824 25.37355795641824 25.37355795641824 25.37355795641824 25.37355795641824 25.37355795641824 25.37355795641824 25.37355795641824 25.37355795641824 25.37355795641824 25.37355795641824 25.37355795641824 25.37355795641824 25.37355795641824 25.37355795641824 25.37355795641824 25.37355795641824 25.37355795641824 25.37355795641824 25.37355795641824 25.37355795641824 25.37355795641824 25.37355795641824 25.37355795641824 25.37355795641824 25.37355795641824 25.37355795641824 25.37355795641824 25.37355795641824 25.37355795641824 25.37355795641824 25.37355795641824 25.37355795641824 25.37355795641824 25.37355795641824 25.37355795641824 25.37355795641824 25.37355795641824 25.37355795641824 25.37355795641824 25.37355795641824 25.37355795641824 25.37355795641824 25.395531953854604 25.395531953854604 25.37355795641824 25.37355795641824 25.37355795641824 25.37355795641824 25.395531953854604 25.395531953854604 25.395531953854604 25.395531953854604 25.395531953854604 25.395531953854604 25.395531953854604 25.395531953854604 25.395531953854604 25.395531953854604 25.395531953854604 25.395531953854604 25.417505951290973 25.417505951290973 25.417505951290973 25.417505951290973 25.43947994872734 25.461453946163708 25.50540194103644 25.571323933345543 25.637245925654643 25.703167917963743 25.791063907709212 25.922907892327412 26.07672587438198 26.29646584874565 26.45028383080022 26.80186778978209 26.933711774400294 27.197399743636698 27.505035707745833 27.834645669291337 28.12030763596411 28.53781358725508 28.75755356161875 29.109137520600623 29.262955502655192 29.70243545138253 30.097967405237135 30.383629371909905 30.801135323200878 31.24061527192822 31.74601721296466 32.1195751693829 32.53708112067387 33.196301043764876 33.83354696941952 34.25105292071049 34.7784288591833 35.56949276689251 35.921076725874386 36.404504669474456 36.843984618201794 37.52517853872917 38.25032045412928 38.97546236952939 39.7006042849295 40.403772202893244 40.93114814136605 41.56839406702069 42.00787401574803 42.64511994140267 43.48013184398462 43.699871818348285 44.2931697491302 44.90844167734847 45.32594762863944 46.20490752609412 46.424647500457795 47.10584142098517 47.83098333638527 48.38033327229445 49.12744918513093 50.182201062076544 50.75352499542208 51.50064090825856 52.02801684673137 52.53341878776781 53.302508698040654 54.04962461087713 54.79674052371361 55.54385643655009 56.07123237502289 57.14795824940487 57.45559421351401 58.11481413660502 59.10364402124153 59.652993957150706 60.46603186229628 60.99340780076909 61.80644570591467 62.86119758286028 63.410547518769455 63.93792345724226 64.75096136238784 65.36623329060612 66.13532320087896 66.68467313678813 67.73942501373375 68.50851492400659 69.05786485991577 69.6291887932613 70.39827870353415 70.9696026368797 72.11225050357078 72.70554843435269 73.562534334371 74.41952023438931 74.96887017029849 75.54019410364401 76.57297198315328 77.12232191906244 77.91338582677164 78.46273576268084 79.23182567295368 80.00091558322652 80.50631752426295 81.31935542940855 82.00054934993591 82.48397729353599 83.16517121406336 83.62662516022706 84.24189708844534 85.03296099615454 85.4065189525728 85.91192089360922 86.19758286028201 86.61508881157297 87.18641274491851 87.53799670390038 88.02142464750045 88.48287859366417 88.7905145577733 89.20802050906427 89.58157846548252 89.86724043215528 90.21882439113715 90.48251236037356 90.8560703167918 91.22962827321004 91.4493682475737 91.80095220655558 92.10858817066472 92.30635414759202 92.67991210401026 92.83373008606483 93.03149606299212 93.1193920527376 93.20728804248306 93.22926203991943 93.2512360373558 93.22926203991943 93.0534700604285 92.8557040835012 92.48214612708296 92.06464017579198 91.5812122321919 91.22962827321004 90.8560703167918 90.43856436550082 89.95513642190075 89.64750045779161 89.16407251419155 88.37300860648233 87.95550265519137 87.42812671671855 87.07654275773669 86.46127082951841 85.78007690899102 85.29664896539094 84.46163706280902 83.53872917048159 83.01135323200879 82.26423731917231 81.75883537813587 81.23145943966307 80.30855154733565 79.86907159860831 79.23182567295368 78.5506317524263 78.0891778062626 77.10034792162608 76.59494598058964 76.11151803698957 75.38637612158945 74.88097418055301 74.15583226515291 73.21095037538913 72.72752243178905 71.95843252151622 71.4310565830434 70.9036806445706 70.13459073429775 69.60721479582494 68.55246291887933 67.73942501373375 67.19007507782457 66.377037172679 65.80571323933346 64.9047793444424 64.00384544955136 63.388573521333086 62.50961362387841 61.60867972898736 60.97143380333272 60.070499908441676 59.21351400842337 58.66416407251419 57.91704815967771 57.389672221204904 56.64255630836843 56.15912836476836 55.32411646218641 54.73081853140451 54.29133858267717 53.87383263138619 53.324482695477016 52.775132759567846 52.423548800585976 51.96209485442226 51.4786669108222 50.97326496978575 50.665629005676614 50.29207104925838 49.676799121040105 49.3471891594946 48.88573521333089 48.55612525178539 48.07269730818531 47.58926936458524 47.215711408167 46.73228346456693 46.27082951840322 45.919245559421356 45.39186962094854 44.8864676799121 44.5568577183666 43.91961179271196 43.590001831166454 43.238417872184584 42.82091192089361 42.38143197216627 41.98590001831167 41.72221204907526 41.37062809009339 41.04101812854789 40.82127815418421 40.49166819263871 40.162058231093205 39.942318256729536 39.590734297747666 39.370994323384 38.99743636696576 38.66782640542025 38.44808643105658 38.18439846182018 37.89873649514741 37.72294451565647 37.4372825489837 37.15162058231093 36.909906610510895 36.690166636147225 36.536348654092656 36.250686687419886 36.07489470792895 35.87712873100165 35.45962277971068 35.21790880791064 34.88829884636513 34.53671488738326 34.31697491301959 33.98736495147409 33.767624977110415 33.416041018128546 33.108405054019414 32.91063907709211 32.60300311298297 32.185497161692 31.987731184764694 31.68009522065556 31.59219923091009 31.30653726423732 31.020875297564547 30.823109320637247 30.42757736678264 30.097967405237135 29.878227430873466 29.54861746932796 29.438747482146127 29.153085515473357 28.823475553927853 28.669657571873284 28.47189159494598 28.208203625709576 28.12030763596411 27.90056766160044 27.68082768723677 27.483061710309467 27.197399743636698 27.04358176158213 26.73594579747299 26.648049807727524 26.58212781541842 26.538179820545686 26.51620582310932 26.51620582310932 26.538179820545686 26.538179820545686 26.538179820545686 26.51620582310932 26.494231825672955 26.472257828236586 26.472257828236586 26.45028383080022 26.42830983336385 26.42830983336385 26.42830983336385 26.42830983336385 26.406335835927486 26.38436183849112 26.38436183849112 26.340413843618386 26.318439846182017 26.29646584874565 26.23054385643655 26.164621864127447 26.120673869254716 26.032777879509247 25.966855887200147 25.900933894891047 25.835011902581943 25.769089910272843 25.703167917963743 25.65921992309101 25.615271928218274 25.593297930781908 25.593297930781908 25.593297930781908 25.593297930781908 25.593297930781908 25.571323933345543 25.571323933345543 25.571323933345543 25.571323933345543 25.549349935909174 25.549349935909174 25.549349935909174 25.549349935909174 25.549349935909174 25.527375938472808 25.527375938472808 25.527375938472808 25.527375938472808 25.527375938472808 25.50540194103644 25.50540194103644 25.50540194103644 25.50540194103644 25.527375938472808 25.50540194103644 25.527375938472808 25.50540194103644 25.527375938472808 25.527375938472808 25.527375938472808 25.527375938472808 25.527375938472808 25.527375938472808 25.527375938472808 25.527375938472808 25.527375938472808 25.527375938472808 25.527375938472808 25.549349935909174 25.527375938472808 25.527375938472808 25.549349935909174 25.527375938472808 25.549349935909174 25.549349935909174 25.549349935909174 25.527375938472808 25.549349935909174 25.549349935909174 25.549349935909174 25.549349935909174 25.527375938472808 25.527375938472808 25.549349935909174 25.527375938472808 25.527375938472808 25.549349935909174 25.549349935909174 25.549349935909174 25.527375938472808 25.549349935909174 25.549349935909174 25.549349935909174 25.527375938472808 25.527375938472808 25.549349935909174 25.549349935909174 25.549349935909174 25.549349935909174 25.549349935909174 25.549349935909174 25.549349935909174 25.527375938472808 25.549349935909174 25.549349935909174 25.549349935909174 25.549349935909174 25.549349935909174 25.549349935909174 25.549349935909174 25.527375938472808 25.549349935909174 25.527375938472808 25.527375938472808 25.527375938472808 25.527375938472808 25.527375938472808 25.527375938472808 25.527375938472808 25.527375938472808 25.527375938472808 25.527375938472808 25.527375938472808 25.527375938472808 25.527375938472808 25.527375938472808 25.527375938472808 25.527375938472808 25.549349935909174 25.527375938472808 25.527375938472808 25.527375938472808 25.527375938472808 25.527375938472808 25.527375938472808 25.527375938472808 25.527375938472808 25.527375938472808 25.527375938472808 25.549349935909174 25.527375938472808 25.527375938472808 25.527375938472808 25.527375938472808 25.527375938472808 25.527375938472808 25.527375938472808 25.527375938472808 25.527375938472808 25.527375938472808 25.527375938472808 25.527375938472808 25.527375938472808 25.527375938472808 25.527375938472808 25.527375938472808 25.527375938472808 25.527375938472808 25.527375938472808 25.527375938472808 25.527375938472808 25.527375938472808 25.527375938472808 25.527375938472808 25.527375938472808 25.527375938472808 25.50540194103644 25.50540194103644 25.50540194103644 25.50540194103644 25.50540194103644 25.50540194103644 25.50540194103644 25.50540194103644 25.50540194103644 25.50540194103644 25.483427943600073 25.483427943600073 25.50540194103644 25.483427943600073 25.50540194103644 25.483427943600073 25.483427943600073 25.483427943600073 25.483427943600073 25.483427943600073 25.483427943600073 25.483427943600073 25.483427943600073 25.483427943600073 25.483427943600073 25.483427943600073 25.483427943600073 25.483427943600073 25.483427943600073 25.483427943600073 25.483427943600073 25.483427943600073 25.483427943600073 25.483427943600073 25.483427943600073 25.483427943600073 25.483427943600073 25.483427943600073 25.483427943600073 25.483427943600073 25.483427943600073 25.483427943600073 25.483427943600073 25.483427943600073 25.483427943600073 25.483427943600073 25.483427943600073 25.483427943600073 25.50540194103644 25.483427943600073 25.483427943600073 25.483427943600073 25.483427943600073 25.483427943600073 25.483427943600073 25.483427943600073 25.483427943600073 25.483427943600073 25.483427943600073 25.483427943600073 25.483427943600073 25.483427943600073 25.483427943600073 25.483427943600073 25.483427943600073 25.483427943600073 25.483427943600073 25.483427943600073 25.483427943600073 25.483427943600073 25.483427943600073 25.483427943600073 25.483427943600073 25.483427943600073 25.483427943600073 25.483427943600073 25.483427943600073 25.483427943600073 25.483427943600073 25.483427943600073 25.483427943600073 