29.0 29.0 29.0 29.0 29.0 29.0 29.0 29.0 29.0 29.0 29.0 29.0 29.0 29.0 29.0 29.0 29.0 29.0 29.0 29.0 29.0 29.0 29.0 29.0 29.0 29.0 29.0 29.0 29.0 29.0 29.0 29.0 29.0 29.0 29.0 29.0 29.0 29.0 29.0 29.0 29.0 29.0 29.0 29.0 29.0 29.0 29.0 29.0 29.0 29.0 29.0 29.0 29.0 29.0 29.0 29.0 29.0 29.0 29.0 29.0 29.0 29.0 29.0 29.0 29.0 29.0 29.0 29.0 29.0 29.0 29.0 29.0 29.0 29.0 29.0 29.0 29.0 29.0 29.0 29.0 29.0 29.0 29.0 29.0 29.0 29.0 29.0 29.0 29.0 28.969236403589086 29.0 29.0 29.0 29.0 29.0 29.0 29.0 29.0 29.0 29.0 29.0 29.0 29.0 29.0 29.0 29.0 29.0 29.0 29.0 29.0 29.0 29.0 29.0 29.0 29.0 29.0 29.0 29.0 29.0 29.0 29.0 29.0 29.0 29.0 29.0 29.0 29.0 29.0 29.0 29.0 29.0 29.0 29.0 29.0 29.0 29.0 29.0 29.0 29.0 29.0 29.0 29.0 29.0 29.0 29.0 29.0 29.0 28.969236403589086 29.0 29.0 29.0 29.0 29.0 29.0 29.0 29.0 29.0 29.0 29.0 29.0 29.0 29.0 29.0 29.0 29.0 29.0 29.0 29.0 29.0 29.0 29.0 29.0 29.0 29.0 29.0 29.0 29.0 29.0 29.0 29.0 29.0 29.0 29.0 29.0 29.0 29.0 29.0 29.0 29.0 29.0 29.0 29.0 29.0 29.0 29.0 29.0 29.0 29.0 29.0 29.0 29.0 29.0 29.0 29.0 29.0 29.0 29.0 29.0 29.0 29.0 29.0 29.0 29.0 29.0 29.0 29.0 29.0 29.0 29.0 29.0 29.0 29.0 29.0 29.0 29.0 29.0 29.0 29.0 29.0 29.0 29.0 29.0 29.0 29.0 29.0 29.0 29.0 29.0 29.0 29.0 29.0 29.0 29.0 29.0 29.0 29.0 29.0 29.0 29.0 29.0 29.0 29.0 29.0 29.0 29.0 29.0 29.0 29.0 29.0 29.0 29.0 29.0 29.0 29.0 29.0 29.0 29.0 29.0 29.0 29.0 29.0 29.0 29.0 29.0 29.0 29.0 29.0 29.0 29.0 29.0 29.0 29.0 29.0 29.0 29.0 29.0 29.0 29.0 29.0 29.0 29.0 29.0 29.0 29.0 29.0 29.0 29.0 29.0 29.0 29.0 29.0 29.0 29.0 29.0 28.969236403589086 29.0 29.0 29.0 29.0 29.0 29.0 29.0 29.0 29.0 29.0 29.0 29.0 29.0 29.0 29.0 29.0 29.0 29.0 29.0 29.0 29.0 29.0 29.0 29.0 29.0 29.0 29.0 29.0 29.0 29.0 29.0 29.0 29.0 29.0 29.0 29.0 29.0 29.0 29.0 29.0 29.0 29.0 29.0 29.0 29.0 29.0 29.0 29.0 29.0 29.0 29.0 29.0 29.0 29.0 29.0 29.0 29.0 29.0 29.0 29.0 29.0 29.0 29.0 29.0 29.0 29.0 29.0 29.0 29.0 29.0 29.0 29.0 29.0 29.0 29.0 29.0 29.0 29.0 29.0 29.0 29.0 29.0 29.0 29.0 29.0 29.0 29.0 29.0 29.0 29.0 29.0 28.969236403589086 29.0 29.0 29.0 29.0 29.0 29.0 29.0 29.0 29.0 29.0 29.0 29.0 29.0 29.0 29.0 29.0 29.0 29.0 29.0 29.0 29.0 29.0 29.0 29.0 29.0 29.0 29.0 29.0 29.0 29.0 29.0 29.0 29.0 29.0 29.0 29.0 29.0 29.0 29.0 29.0 29.0 29.0 29.0 29.0 29.0 29.0 29.0 29.0 29.0 29.0 29.0 29.0 29.0 29.0 29.0 29.0 29.0 29.0 29.0 29.0 29.0 29.0 29.0 29.0 29.0 29.0 29.0 29.0 29.0 29.0 29.0 29.0 29.0 29.0 29.0 29.0 29.0 29.0 29.0 29.0 29.0 29.0 29.0 29.0 29.0 29.0 29.0 29.0 29.0 29.0 29.0 29.0 29.0 29.0 29.0 29.0 29.0 28.969236403589086 29.0 29.0 29.0 29.0 29.0 29.0 29.0 29.0 29.0 29.0 29.0 29.0 29.0 29.0 29.0 29.0 29.0 29.0 29.0 29.0 29.0 29.0 29.0 29.0 29.0 29.0 29.0 29.0 29.0 29.0 29.0 29.0 29.0 29.0 29.0 29.0 29.0 29.0 29.0 29.0 29.0 29.0 29.0 29.0 29.0 29.0 29.0 29.0 29.0 29.0 29.0 29.0 29.0 29.0 29.0 29.0 29.0 29.0 29.0 29.0 29.0 29.0 29.0 29.0 29.0 29.030763596410914 29.030763596410914 29.030763596410914 29.030763596410914 29.030763596410914 29.030763596410914 29.061527192821828 29.061527192821828 29.061527192821828 29.061527192821828 29.09229078923274 29.09229078923274 29.123054385643655 29.123054385643655 29.123054385643655 29.15381798205457 29.15381798205457 29.15381798205457 29.184581578465483 29.184581578465483 29.215345174876397 29.215345174876397 29.215345174876397 29.215345174876397 29.24610877128731 29.24610877128731 29.24610877128731 29.276872367698225 29.276872367698225 29.276872367698225 29.276872367698225 29.276872367698225 29.30763596410914 29.30763596410914 29.30763596410914 29.30763596410914 29.338399560520052 29.338399560520052 29.369163156930966 29.39992675334188 29.39992675334188 29.461453946163708 29.461453946163708 29.522981138985532 29.522981138985532 29.553744735396446 29.58450833180736 29.615271928218274 29.615271928218274 29.646035524629188 29.646035524629188 29.6767991210401 29.707562717451015 29.73832631386193 29.73832631386193 29.73832631386193 29.769089910272843 29.799853506683757 29.799853506683757 29.83061710309467 29.861380699505585 29.8921442959165 29.922907892327412 29.953671488738326 30.015198681560154 30.107489470792896 30.169016663614723 30.23054385643655 30.29207104925838 30.353598242080206 30.415125434902034 30.47665262772386 30.5689434169566 30.66123420618934 30.72276139901117 30.81505218824391 30.938106573887566 30.999633766709394 31.091924555942136 31.21497894158579 31.36879692364036 31.491851309284012 31.614905694927668 31.737960080571323 31.891778062625892 32.04559604468046 32.168650430324114 32.3532320087896 32.507049990844166 32.660867972898735 32.814685954953305 32.968503937007874 33.15308551547336 33.368430690349754 33.522248672404324 33.73759384728072 33.922175425746204 34.16828419703351 34.29133858267716 34.50668375755356 34.72202893242996 34.87584691448453 35.09119208936092 35.30653726423732 35.583409631935545 35.82951840322285 36.07562717451016 36.352499542208385 36.62937190990661 36.906244277604834 37.152353048892145 37.398461820179456 37.58304339864493 37.82915216993224 38.075260941219554 38.29060611609595 38.59824208020509 38.875114447903314 39.18275041201245 39.49038637612159 39.76725874381981 40.136421900750776 40.50558505768174 40.87474821461271 41.21314777513276 41.58231093206372 41.9822376854056 42.259110053103825 42.659036806445705 43.058963559787585 43.45889031312946 43.828053470060425 44.227980223402305 44.627906976744185 45.05859732649698 45.427760483427946 46.196850393700785 46.56601355063175 46.996703900384546 47.45815784654825 47.765793810657385 48.165720563999265 48.65793810657389 49.119392052737595 49.55008240249039 49.82695477018861 50.19611792711957 50.534517487639626 50.842153451748764 51.149789415857896 51.42666178355613 51.79582494048709 52.19575169382897 52.503387657938106 53.057132393334555 53.42629555026552 53.580113532320084 53.94927668925105 54.226149056949275 54.59531221388024 54.99523896722212 55.395165720563995 55.70280168467313 56.01043764878227 56.13349203442593 56.41036440212415 56.59494598058963 56.77952755905512 56.994872733931516 57.117927119575164 57.33327229445156 57.48709027650613 57.67167185497162 57.88701702984801 57.97930781908075 58.1023622047244 58.22541659036806 58.317707379600805 58.44076176524446 58.50228895806629 58.68687053653177 58.779161325764505 58.87145211499725 59.025270097051816 59.27137886833913 59.425196850393704 59.64054202527009 59.82512360373558 60.00970518220106 60.25581395348837 60.440395531953854 60.71726789965207 60.994140267350296 61.17872184581578 61.39406702069218 61.547885002746746 61.73246658121223 61.855520966855885 61.947811756088626 62.009338948910454 62.101629738143195 62.13239333455411 62.16315693096502 62.13239333455411 62.16315693096502 62.16315693096502 62.16315693096502 62.13239333455411 62.13239333455411 62.13239333455411 62.13239333455411 62.13239333455411 62.13239333455411 62.13239333455411 62.101629738143195 62.101629738143195 62.101629738143195 62.101629738143195 62.101629738143195 62.101629738143195 62.13239333455411 62.101629738143195 62.101629738143195 62.13239333455411 62.101629738143195 62.13239333455411 62.13239333455411 62.13239333455411 62.13239333455411 62.16315693096502 62.16315693096502 62.22468412378685 62.255447720197765 62.28621131660868 62.31697491301959 62.347738509430506 62.347738509430506 62.347738509430506 62.347738509430506 62.347738509430506 62.347738509430506 62.347738509430506 62.347738509430506 62.31697491301959 62.28621131660868 62.28621131660868 62.255447720197765 62.22468412378685 62.255447720197765 62.22468412378685 62.22468412378685 62.22468412378685 62.22468412378685 62.22468412378685 62.22468412378685 62.22468412378685 62.22468412378685 62.22468412378685 62.22468412378685 62.22468412378685 62.22468412378685 62.22468412378685 62.22468412378685 62.22468412378685 62.22468412378685 62.22468412378685 62.22468412378685 62.22468412378685 62.22468412378685 62.22468412378685 62.22468412378685 62.22468412378685 62.22468412378685 62.22468412378685 62.22468412378685 62.22468412378685 62.22468412378685 62.22468412378685 62.19392052737594 62.16315693096502 62.16315693096502 62.16315693096502 62.16315693096502 62.16315693096502 62.16315693096502 62.16315693096502 62.16315693096502 62.19392052737594 62.16315693096502 62.16315693096502 62.16315693096502 62.16315693096502 62.16315693096502 62.16315693096502 62.16315693096502 62.16315693096502 62.16315693096502 62.16315693096502 62.16315693096502 62.16315693096502 62.16315693096502 62.19392052737594 62.16315693096502 62.19392052737594 62.16315693096502 62.16315693096502 62.16315693096502 62.16315693096502 62.16315693096502 62.16315693096502 62.16315693096502 62.16315693096502 62.16315693096502 62.16315693096502 62.13239333455411 62.101629738143195 62.13239333455411 62.13239333455411 62.13239333455411 62.13239333455411 62.13239333455411 62.13239333455411 62.101629738143195 62.13239333455411 62.101629738143195 62.101629738143195 62.13239333455411 62.13239333455411 62.13239333455411 62.13239333455411 62.13239333455411 62.13239333455411 62.13239333455411 62.13239333455411 62.13239333455411 62.13239333455411 62.13239333455411 62.13239333455411 62.13239333455411 62.13239333455411 62.13239333455411 62.13239333455411 62.101629738143195 62.07086614173228 62.04010254532137 62.009338948910454 61.97857535249954 61.947811756088626 61.8862845632668 61.855520966855885 61.79399377403406 61.76323017762314 61.73246658121223 61.701702984801315 61.701702984801315 61.6709393883904 61.6709393883904 61.6709393883904 61.6709393883904 61.6709393883904 61.6709393883904 61.6709393883904 61.6709393883904 61.6709393883904 61.6709393883904 61.701702984801315 61.6709393883904 61.701702984801315 61.6709393883904 61.6709393883904 61.701702984801315 61.701702984801315 61.701702984801315 61.6709393883904 61.701702984801315 61.6709393883904 61.701702984801315 61.701702984801315 61.701702984801315 61.701702984801315 61.701702984801315 61.6709393883904 61.701702984801315 61.701702984801315 61.701702984801315 61.73246658121223 61.73246658121223 61.76323017762314 61.79399377403406 61.76323017762314 61.79399377403406 61.79399377403406 61.79399377403406 61.82475737044497 61.855520966855885 61.855520966855885 61.8862845632668 61.8862845632668 61.91704815967771 61.91704815967771 61.91704815967771 61.947811756088626 61.97857535249954 61.97857535249954 61.97857535249954 61.97857535249954 61.97857535249954 61.97857535249954 61.97857535249954 61.97857535249954 61.97857535249954 61.97857535249954 61.97857535249954 61.97857535249954 61.947811756088626 61.947811756088626 61.947811756088626 61.97857535249954 61.947811756088626 61.947811756088626 61.97857535249954 61.947811756088626 61.947811756088626 61.947811756088626 61.947811756088626 61.947811756088626 61.947811756088626 61.947811756088626 61.97857535249954 61.97857535249954 61.97857535249954 61.97857535249954 61.97857535249954 61.97857535249954 61.97857535249954 61.97857535249954 61.97857535249954 61.97857535249954 61.97857535249954 61.97857535249954 61.97857535249954 61.97857535249954 61.97857535249954 61.97857535249954 61.97857535249954 61.97857535249954 61.947811756088626 61.97857535249954 61.947811756088626 61.97857535249954 61.97857535249954 61.947811756088626 61.947811756088626 61.97857535249954 61.947811756088626 61.947811756088626 61.97857535249954 61.97857535249954 61.97857535249954 61.947811756088626 61.97857535249954 61.947811756088626 61.97857535249954 61.97857535249954 61.97857535249954 61.947811756088626 61.97857535249954 61.97857535249954 61.97857535249954 61.947811756088626 61.947811756088626 61.97857535249954 61.947811756088626 61.97857535249954 61.97857535249954 61.97857535249954 61.947811756088626 61.97857535249954 61.97857535249954 61.947811756088626 61.97857535249954 61.97857535249954 61.97857535249954 61.97857535249954 61.97857535249954 61.97857535249954 61.97857535249954 61.97857535249954 61.97857535249954 61.97857535249954 61.97857535249954 61.97857535249954 61.97857535249954 61.97857535249954 61.97857535249954 61.97857535249954 61.97857535249954 61.97857535249954 61.97857535249954 61.97857535249954 61.97857535249954 61.947811756088626 61.97857535249954 61.947811756088626 61.97857535249954 61.947811756088626 61.947811756088626 61.947811756088626 61.947811756088626 61.947811756088626 61.97857535249954 61.97857535249954 61.947811756088626 61.947811756088626 61.91704815967771 61.855520966855885 61.79399377403406 61.73246658121223 61.6709393883904 61.547885002746746 61.39406702069218 61.27101263504852 61.14795824940487 60.994140267350296 60.80955868888482 60.62497711041934 60.47115912836477 60.34810474272111 60.132759567844715 59.91741439296832 59.70206921809192 59.45596044680461 59.27137886833913 58.99450650064091 58.71763413294268 58.47152536165537 58.19465299395715 57.8562534334371 57.517853872917044 57.302508698040654 57.08716352316425 56.718000366233284 56.37960080571324 56.0719648416041 55.641274491851306 55.33363852774217 54.9644753708112 54.74913019593481 54.53378502105841 54.226149056949275 53.85698590001831 53.67240432155283 53.42629555026552 53.24171397180004 53.026368796923634 52.74949642922542 52.59567844717085 52.34956967588353 52.13422450100714 52.011170115363484 51.79582494048709 51.703534151254345 51.51895257278886 51.33437099432338 51.18055301226882 50.934444240981506 50.688335469694195 50.4729902948178 50.2576451199414 49.980772752243176 49.642373191723124 49.39626442043581 49.119392052737595 48.50412012451932 48.165720563999265 47.70426661783556 47.212049075260936 46.87364951474089 46.41219556857718 45.950741622413474 45.643105658304336 45.181651712140635 44.75096136238784 44.41256180186779 43.981871452114994 43.67423548800586 43.305072331074896 42.966672770554844 42.72056399926753 42.47445522798022 42.197582860282 42.013001281816514 41.7668925105292 41.705365317707376 41.42849295000916 41.243911371543675 41.090093389489105 40.843984618201794 40.72093023255814 40.536348654092656 40.35176707562717 40.22871268998352 40.044131111518034 39.85954953305256 39.7364951474089 39.55191356894342 39.39809558688884 39.24427760483428 39.0596960263688 38.875114447903314 38.721296465848745 38.59824208020509 38.475187694561434 38.29060611609595 38.13678813404138 37.82915216993224 37.61380699505585 37.459989013001284 37.21388024171397 36.96777147042666 36.87548068119392 36.66013550631752 36.3832631386193 36.1679179637429 35.9218091924556 35.76799121040103 35.583409631935545 35.39882805347006 35.27577366782641 35.12195568577184 35.06042849295001 34.937374107306354 34.8143197216627 34.69126533601904 34.56821095037539 34.44515656473173 34.41439296832082 34.35286577549899 34.29133858267716 34.19904779344442 34.137520600622594 34.10675700421168 34.04522981138985 34.01446621497894 34.01446621497894 33.95293902215711 33.922175425746204 33.89141182933528 33.860648232924376 33.79912104010255 33.76835744369163 33.67606665445889 33.614539461637065 33.522248672404324 33.460721479582496 33.368430690349754 33.27613990111701 33.214612708295185 33.12232191906244 33.060794726240616 32.93774034059696 32.84544955136422 32.75315876213148 32.63010437648782 32.47628639443325 32.32246841237868 32.19941402673503 32.1378868339132 32.04559604468046 31.95330525544772 31.891778062625892 31.830250869804065 31.768723676982237 31.70719648416041 31.614905694927668 31.522614905694926 31.36879692364036 31.307269730818533 31.245742537996705 31.12268815235305 31.030397363120308 30.96887017029848 30.845815784654825 30.753524995422083 30.630470609778428 30.5689434169566 30.507416224134772 30.445889031312948 30.353598242080206 30.322834645669293 30.199780260025637 30.13825306720381 30.015198681560154 29.953671488738326 29.922907892327412 29.861380699505585 29.83061710309467 29.799853506683757 29.769089910272843 29.769089910272843 29.73832631386193 29.707562717451015 29.707562717451015 29.6767991210401 29.6767991210401 29.6767991210401 29.646035524629188 29.646035524629188 29.615271928218274 29.615271928218274 29.615271928218274 29.58450833180736 29.553744735396446 29.553744735396446 29.522981138985532 29.49221754257462 29.49221754257462 29.461453946163708 29.461453946163708 29.430690349752794 29.461453946163708 29.430690349752794 29.430690349752794 29.430690349752794 29.430690349752794 29.430690349752794 29.430690349752794 29.430690349752794 29.430690349752794 29.39992675334188 29.39992675334188 29.39992675334188 29.39992675334188 29.39992675334188 29.369163156930966 29.369163156930966 29.369163156930966 29.369163156930966 29.369163156930966 29.338399560520052 29.338399560520052 29.338399560520052 29.338399560520052 29.338399560520052 29.338399560520052 29.30763596410914 29.338399560520052 29.338399560520052 29.338399560520052 29.338399560520052 29.30763596410914 29.338399560520052 29.30763596410914 29.30763596410914 29.30763596410914 29.30763596410914 29.30763596410914 29.30763596410914 29.30763596410914 29.30763596410914 29.30763596410914 29.30763596410914 29.30763596410914 29.30763596410914 29.30763596410914 29.30763596410914 29.30763596410914 29.30763596410914 29.276872367698225 29.276872367698225 29.276872367698225 29.276872367698225 29.30763596410914 29.276872367698225 29.276872367698225 29.276872367698225 29.276872367698225 29.276872367698225 29.276872367698225 29.276872367698225 29.276872367698225 29.276872367698225 29.276872367698225 29.276872367698225 29.276872367698225 29.276872367698225 29.276872367698225 29.276872367698225 29.276872367698225 29.276872367698225 29.276872367698225 29.276872367698225 29.276872367698225 29.276872367698225 29.276872367698225 29.24610877128731 29.276872367698225 29.276872367698225 29.24610877128731 29.276872367698225 29.24610877128731 29.24610877128731 29.24610877128731 29.24610877128731 29.276872367698225 29.24610877128731 29.276872367698225 29.24610877128731 29.24610877128731 29.24610877128731 29.24610877128731 29.276872367698225 29.24610877128731 29.24610877128731 29.24610877128731 29.24610877128731 29.24610877128731 29.24610877128731 29.24610877128731 29.24610877128731 29.24610877128731 29.24610877128731 29.24610877128731 29.24610877128731 29.24610877128731 29.24610877128731 29.24610877128731 29.24610877128731 29.24610877128731 29.24610877128731 29.24610877128731 29.24610877128731 29.24610877128731 29.24610877128731 29.24610877128731 29.24610877128731 29.24610877128731 29.24610877128731 29.24610877128731 29.24610877128731 29.24610877128731 29.24610877128731 29.24610877128731 29.24610877128731 29.24610877128731 29.24610877128731 29.24610877128731 29.24610877128731 29.24610877128731 29.24610877128731 29.24610877128731 29.24610877128731 29.24610877128731 29.24610877128731 29.24610877128731 29.24610877128731 29.24610877128731 29.24610877128731 29.24610877128731 29.215345174876397 29.24610877128731 29.24610877128731 29.24610877128731 29.24610877128731 29.215345174876397 29.24610877128731 29.24610877128731 29.24610877128731 29.24610877128731 29.24610877128731 29.24610877128731 29.24610877128731 29.24610877128731 29.215345174876397 29.215345174876397 29.24610877128731 29.215345174876397 29.24610877128731 29.215345174876397 29.24610877128731 29.24610877128731 29.24610877128731 29.24610877128731 29.24610877128731 29.215345174876397 29.24610877128731 29.215345174876397 29.24610877128731 29.215345174876397 29.215345174876397 29.215345174876397 29.215345174876397 29.24610877128731 29.24610877128731 29.215345174876397 29.24610877128731 29.24610877128731 29.24610877128731 29.215345174876397 29.215345174876397 29.215345174876397 29.215345174876397 29.24610877128731 29.215345174876397 29.215345174876397 29.24610877128731 29.215345174876397 29.215345174876397 29.24610877128731 29.215345174876397 29.215345174876397 29.215345174876397 29.215345174876397 29.215345174876397 29.215345174876397 29.215345174876397 29.215345174876397 29.215345174876397 29.24610877128731 29.215345174876397 29.24610877128731 29.215345174876397 29.215345174876397 29.215345174876397 29.215345174876397 29.215345174876397 29.215345174876397 29.215345174876397 29.215345174876397 29.215345174876397 29.215345174876397 29.24610877128731 29.215345174876397 29.215345174876397 29.215345174876397 29.215345174876397 29.215345174876397 29.215345174876397 29.215345174876397 29.215345174876397 29.215345174876397 29.215345174876397 29.215345174876397 29.215345174876397 29.215345174876397 29.215345174876397 29.215345174876397 29.215345174876397 29.215345174876397 29.215345174876397 29.215345174876397 29.215345174876397 29.215345174876397 29.24610877128731 29.215345174876397 29.215345174876397 29.215345174876397 29.215345174876397 29.215345174876397 29.215345174876397 29.215345174876397 29.215345174876397 29.215345174876397 29.215345174876397 29.215345174876397 29.215345174876397 29.215345174876397 29.215345174876397 29.215345174876397 29.215345174876397 29.215345174876397 29.215345174876397 29.215345174876397 29.215345174876397 29.215345174876397 29.215345174876397 29.215345174876397 29.215345174876397 29.215345174876397 29.215345174876397 29.215345174876397 29.215345174876397 29.215345174876397 29.215345174876397 29.215345174876397 29.215345174876397 29.215345174876397 29.215345174876397 29.215345174876397 29.215345174876397 29.215345174876397 29.24610877128731 29.215345174876397 29.215345174876397 29.215345174876397 29.215345174876397 29.215345174876397 29.215345174876397 29.215345174876397 29.215345174876397 29.215345174876397 29.215345174876397 29.215345174876397 29.215345174876397 29.215345174876397 29.215345174876397 29.215345174876397 29.215345174876397 29.215345174876397 29.215345174876397 29.215345174876397 29.215345174876397 29.215345174876397 29.215345174876397 29.215345174876397 29.184581578465483 29.215345174876397 29.215345174876397 29.184581578465483 29.184581578465483 29.215345174876397 29.215345174876397 29.215345174876397 29.215345174876397 29.184581578465483 29.215345174876397 29.215345174876397 29.215345174876397 29.215345174876397 29.184581578465483 29.184581578465483 29.215345174876397 29.184581578465483 29.215345174876397 29.184581578465483 29.184581578465483 29.184581578465483 29.184581578465483 29.215345174876397 29.215345174876397 29.184581578465483 29.215345174876397 29.215345174876397 29.215345174876397 29.184581578465483 29.184581578465483 29.184581578465483 29.184581578465483 29.215345174876397 29.184581578465483 29.184581578465483 29.184581578465483 29.184581578465483 29.184581578465483 29.184581578465483 29.215345174876397 29.215345174876397 29.184581578465483 29.215345174876397 29.215345174876397 29.184581578465483 29.184581578465483 29.184581578465483 29.215345174876397 29.184581578465483 29.215345174876397 29.184581578465483 29.184581578465483 29.184581578465483 29.215345174876397 29.184581578465483 29.184581578465483 29.184581578465483 29.184581578465483 29.215345174876397 29.184581578465483 29.184581578465483 29.215345174876397 29.184581578465483 29.215345174876397 29.184581578465483 29.184581578465483 29.215345174876397 29.184581578465483 29.184581578465483 29.184581578465483 29.184581578465483 29.184581578465483 29.215345174876397 29.215345174876397 29.184581578465483 29.215345174876397 29.184581578465483 29.184581578465483 29.184581578465483 29.184581578465483 29.184581578465483 29.215345174876397 29.184581578465483 29.184581578465483 29.184581578465483 29.184581578465483 29.184581578465483 29.184581578465483 29.184581578465483 29.184581578465483 29.215345174876397 29.184581578465483 29.184581578465483 29.184581578465483 29.184581578465483 29.184581578465483 29.184581578465483 29.184581578465483 29.184581578465483 29.184581578465483 29.184581578465483 29.184581578465483 29.184581578465483 29.184581578465483 29.184581578465483 29.184581578465483 29.184581578465483 29.184581578465483 29.184581578465483 29.184581578465483 29.184581578465483 29.184581578465483 29.184581578465483 29.184581578465483 29.184581578465483 29.184581578465483 29.184581578465483 29.184581578465483 29.184581578465483 29.184581578465483 29.184581578465483 29.184581578465483 29.215345174876397 29.184581578465483 29.215345174876397 29.184581578465483 29.184581578465483 29.184581578465483 29.184581578465483 29.184581578465483 29.184581578465483 29.184581578465483 29.184581578465483 29.184581578465483 29.184581578465483 29.184581578465483 29.215345174876397 29.184581578465483 29.184581578465483 29.184581578465483 29.184581578465483 29.184581578465483 29.184581578465483 29.184581578465483 29.184581578465483 29.184581578465483 29.184581578465483 29.184581578465483 29.184581578465483 29.184581578465483 29.184581578465483 29.184581578465483 29.184581578465483 29.184581578465483 29.184581578465483 29.184581578465483 29.184581578465483 29.184581578465483 29.184581578465483 29.184581578465483 29.184581578465483 29.215345174876397 29.184581578465483 29.184581578465483 29.184581578465483 29.184581578465483 29.184581578465483 29.184581578465483 29.184581578465483 29.184581578465483 29.184581578465483 29.184581578465483 29.184581578465483 29.184581578465483 29.184581578465483 29.184581578465483 29.184581578465483 29.184581578465483 29.184581578465483 29.184581578465483 29.184581578465483 29.184581578465483 29.184581578465483 29.184581578465483 29.184581578465483 29.184581578465483 29.184581578465483 29.184581578465483 29.184581578465483 29.184581578465483 29.184581578465483 29.184581578465483 29.184581578465483 29.184581578465483 29.184581578465483 29.184581578465483 29.184581578465483 29.184581578465483 29.184581578465483 29.184581578465483 29.184581578465483 29.184581578465483 29.184581578465483 29.184581578465483 29.184581578465483 29.184581578465483 29.184581578465483 29.184581578465483 29.184581578465483 29.184581578465483 29.184581578465483 29.184581578465483 29.184581578465483 29.184581578465483 29.184581578465483 29.184581578465483 29.184581578465483 29.184581578465483 29.184581578465483 29.184581578465483 29.184581578465483 29.184581578465483 29.184581578465483 29.15381798205457 29.184581578465483 29.184581578465483 29.184581578465483 29.184581578465483 29.184581578465483 29.184581578465483 29.184581578465483 29.184581578465483 29.15381798205457 29.15381798205457 29.15381798205457 29.15381798205457 29.15381798205457 29.15381798205457 29.15381798205457 29.15381798205457 29.15381798205457 29.15381798205457 29.15381798205457 29.15381798205457 29.15381798205457 29.15381798205457 29.15381798205457 29.15381798205457 29.15381798205457 29.15381798205457 29.15381798205457 29.15381798205457 29.15381798205457 29.15381798205457 29.15381798205457 29.15381798205457 29.15381798205457 29.15381798205457 29.123054385643655 29.15381798205457 29.123054385643655 29.123054385643655 29.123054385643655 29.123054385643655 29.15381798205457 29.123054385643655 29.123054385643655 29.123054385643655 29.123054385643655 29.15381798205457 29.15381798205457 29.123054385643655 29.123054385643655 29.123054385643655 29.15381798205457 29.15381798205457 29.123054385643655 29.123054385643655 29.123054385643655 29.123054385643655 29.123054385643655 29.123054385643655 29.123054385643655 29.123054385643655 29.123054385643655 29.123054385643655 29.123054385643655 29.123054385643655 29.123054385643655 29.123054385643655 29.123054385643655 29.123054385643655 29.123054385643655 29.123054385643655 29.123054385643655 29.123054385643655 29.123054385643655 29.123054385643655 29.123054385643655 29.123054385643655 29.123054385643655 29.123054385643655 29.123054385643655 29.123054385643655 29.123054385643655 29.123054385643655 29.123054385643655 29.123054385643655 29.123054385643655 29.123054385643655 29.123054385643655 29.123054385643655 29.123054385643655 29.123054385643655 29.123054385643655 29.123054385643655 29.123054385643655 29.123054385643655 29.123054385643655 29.123054385643655 29.123054385643655 29.123054385643655 29.123054385643655 29.123054385643655 29.123054385643655 29.123054385643655 29.123054385643655 29.123054385643655 29.123054385643655 29.123054385643655 29.123054385643655 29.123054385643655 29.123054385643655 29.123054385643655 29.123054385643655 29.123054385643655 29.123054385643655 29.123054385643655 29.09229078923274 29.123054385643655 29.09229078923274 29.123054385643655 29.123054385643655 29.123054385643655 29.123054385643655 29.123054385643655 29.123054385643655 29.123054385643655 29.123054385643655 29.123054385643655 29.123054385643655 29.123054385643655 29.123054385643655 29.123054385643655 29.123054385643655 29.123054385643655 29.123054385643655 29.123054385643655 29.123054385643655 29.123054385643655 29.123054385643655 29.123054385643655 29.123054385643655 29.123054385643655 29.09229078923274 29.123054385643655 29.123054385643655 29.123054385643655 29.123054385643655 29.123054385643655 29.123054385643655 29.123054385643655 29.123054385643655 29.123054385643655 29.123054385643655 29.123054385643655 29.123054385643655 29.123054385643655 29.123054385643655 29.123054385643655 29.123054385643655 29.123054385643655 29.123054385643655 29.123054385643655 29.123054385643655 29.123054385643655 29.123054385643655 29.123054385643655 29.123054385643655 29.123054385643655 29.123054385643655 29.123054385643655 29.123054385643655 29.123054385643655 29.123054385643655 29.123054385643655 29.123054385643655 29.123054385643655 29.123054385643655 29.09229078923274 29.123054385643655 29.123054385643655 29.123054385643655 29.123054385643655 29.123054385643655 29.123054385643655 29.123054385643655 29.09229078923274 29.123054385643655 29.123054385643655 29.123054385643655 29.123054385643655 29.123054385643655 29.123054385643655 29.123054385643655 29.123054385643655 29.123054385643655 29.123054385643655 29.123054385643655 29.123054385643655 29.123054385643655 29.123054385643655 29.123054385643655 29.123054385643655 29.123054385643655 29.123054385643655 29.123054385643655 29.123054385643655 29.123054385643655 29.123054385643655 29.123054385643655 29.123054385643655 29.123054385643655 29.123054385643655 29.123054385643655 29.123054385643655 29.123054385643655 29.123054385643655 29.123054385643655 29.123054385643655 29.123054385643655 29.123054385643655 29.123054385643655 29.123054385643655 29.123054385643655 29.123054385643655 29.123054385643655 29.123054385643655 29.123054385643655 29.123054385643655 29.123054385643655 29.123054385643655 29.123054385643655 29.123054385643655 29.123054385643655 29.123054385643655 29.123054385643655 29.123054385643655 29.123054385643655 29.123054385643655 29.123054385643655 29.123054385643655 29.123054385643655 29.123054385643655 29.09229078923274 29.123054385643655 29.123054385643655 29.123054385643655 29.123054385643655 29.123054385643655 29.123054385643655 29.123054385643655 29.123054385643655 29.123054385643655 29.123054385643655 29.123054385643655 29.123054385643655 29.123054385643655 29.123054385643655 29.123054385643655 29.123054385643655 29.123054385643655 29.123054385643655 29.123054385643655 29.123054385643655 29.123054385643655 29.123054385643655 29.123054385643655 29.123054385643655 29.15381798205457 29.15381798205457 29.15381798205457 29.15381798205457 29.15381798205457 29.184581578465483 29.184581578465483 29.215345174876397 29.184581578465483 29.215345174876397 29.215345174876397 29.215345174876397 29.24610877128731 29.24610877128731 29.24610877128731 29.24610877128731 29.24610877128731 29.30763596410914 29.30763596410914 29.338399560520052 29.338399560520052 29.338399560520052 29.369163156930966 29.39992675334188 29.39992675334188 29.39992675334188 29.430690349752794 29.430690349752794 29.430690349752794 29.430690349752794 29.461453946163708 29.461453946163708 29.461453946163708 29.49221754257462 29.49221754257462 29.49221754257462 29.522981138985532 29.522981138985532 29.553744735396446 29.58450833180736 29.58450833180736 29.58450833180736 29.615271928218274 29.615271928218274 29.615271928218274 29.646035524629188 29.6767991210401 29.6767991210401 29.707562717451015 29.73832631386193 29.769089910272843 29.799853506683757 29.861380699505585 29.8921442959165 29.953671488738326 30.015198681560154 30.07672587438198 30.107489470792896 30.169016663614723 30.23054385643655 30.29207104925838 30.38436183849112 30.415125434902034 30.507416224134772 30.5689434169566 30.66123420618934 30.81505218824391 30.907342977476652 30.938106573887566 31.030397363120308 31.091924555942136 31.21497894158579 31.245742537996705 31.338033327229446 31.399560520051274 31.430324116462188 31.55337850210584 31.584142098516754 31.676432887749495 31.737960080571323 31.830250869804065 31.922541659036806 32.04559604468046 32.107123237502286 32.19941402673503 32.29170481596777 32.414759201611425 32.53781358725508 32.660867972898735 32.814685954953305 32.99926753341879 33.12232191906244 33.2453763047061 33.368430690349754 33.55301226881524 33.67606665445889 33.829884636513455 33.983702618568024 34.137520600622594 34.29133858267716 34.475920161142646 34.629738143197216 34.87584691448453 35.12195568577184 35.30653726423732 35.55264603552463 35.86028199963376 36.044863578099246 36.352499542208385 36.444790331441126 36.752426295550265 37.02929866324849 37.2754074345358 37.521516205823104 37.921442959164985 38.10602453763047 38.321369712506865 38.567478483794176 39.028932429957884 39.367331990477936 39.644204358176154 40.01336751510712 40.413294268449 40.72093023255814 41.05932979307819 41.3054385643655 41.64383812488555 42.013001281816514 42.28987364951474 42.566746017212964 42.812854788500275 43.15125434902033 43.45889031312946 43.67423548800586 44.01263504852591 44.25874381981322 44.56637978392236 44.84325215162058 45.02783373008606 45.21241530855154 45.48928767624977 45.67386925471526 46.043032411646216 46.25837758652261 46.442959164988096 46.68906793627541 46.84288591832997 47.08899468961728 47.36586705731551 47.519685039370074 47.7965574070683 48.073429774766524 48.35030214246475 48.53488372093023 48.81175608862846 49.119392052737595 49.30397363120308 49.48855520966856 49.79619117377769 50.07306354147592 50.41146310199597 50.71909906610511 50.934444240981506 51.30360739791247 51.51895257278886 51.76506134407617 52.22651529023988 52.53415125434902 52.74949642922542 53.026368796923634 53.18018677897821 53.42629555026552 53.67240432155283 53.79545870719648 54.01080388207288 54.226149056949275 54.379967039003844 54.626075810291155 54.81065738875664 54.9644753708112 55.11829335286578 55.24134773850943 55.45669291338582 55.641274491851306 55.82585607031679 56.0719648416041 56.31807361289141 56.59494598058963 56.748763962644205 56.93334554110969 57.240981505218826 57.4255630836843 57.54861746932796 57.70243545138253 57.82548983702618 57.97930781908075 58.04083501190259 58.13312580113532 58.22541659036806 58.28694378318989 58.44076176524446 58.533052554477194 58.62534334370994 58.779161325764505 58.90221571140816 58.96374290422999 59.05603369346274 59.14832448269547 59.2098516755173 59.2098516755173 59.2098516755173 59.2098516755173 59.2098516755173 59.2098516755173 59.24061527192821 59.27137886833913 59.27137886833913 59.332906061160955 59.363669657571876 59.39443325398278 59.425196850393704 59.45596044680461 59.48672404321553 59.48672404321553 59.54825123603735 59.54825123603735 59.579014832448266 59.579014832448266 59.579014832448266 59.54825123603735 59.579014832448266 59.579014832448266 59.60977842885918 59.60977842885918 59.60977842885918 59.60977842885918 59.64054202527009 59.60977842885918 59.60977842885918 59.60977842885918 59.64054202527009 59.60977842885918 59.60977842885918 59.60977842885918 59.60977842885918 59.64054202527009 59.60977842885918 59.64054202527009 59.64054202527009 59.64054202527009 59.60977842885918 59.64054202527009 59.60977842885918 59.60977842885918 59.64054202527009 59.60977842885918 59.64054202527009 59.64054202527009 59.67130562168101 59.67130562168101 59.67130562168101 59.67130562168101 59.70206921809192 59.70206921809192 59.732832814502835 59.732832814502835 59.732832814502835 59.76359641091375 59.76359641091375 59.79436000732467 59.79436000732467 59.82512360373558 59.85588720014648 59.85588720014648 59.886650796557404 59.886650796557404 59.886650796557404 59.91741439296832 59.886650796557404 59.886650796557404 59.91741439296832 59.886650796557404 59.886650796557404 59.886650796557404 59.91741439296832 59.886650796557404 59.91741439296832 59.886650796557404 59.91741439296832 59.94817798937923 59.978941585790146 60.00970518220106 60.07123237502289 60.1019959714338 60.132759567844715 60.132759567844715 60.16352316425563 60.16352316425563 60.19428676066654 60.19428676066654 60.19428676066654 60.19428676066654 60.19428676066654 60.19428676066654 60.19428676066654 60.19428676066654 60.19428676066654 60.19428676066654 60.19428676066654 60.19428676066654 60.19428676066654 60.16352316425563 60.16352316425563 60.16352316425563 60.16352316425563 60.16352316425563 60.16352316425563 60.16352316425563 60.132759567844715 60.132759567844715 60.132759567844715 60.132759567844715 60.132759567844715 60.132759567844715 60.132759567844715 60.132759567844715 60.132759567844715 60.132759567844715 60.132759567844715 60.132759567844715 60.132759567844715 60.132759567844715 60.16352316425563 60.16352316425563 60.16352316425563 60.16352316425563 60.16352316425563 60.16352316425563 60.16352316425563 60.16352316425563 60.16352316425563 60.16352316425563 60.16352316425563 60.16352316425563 60.16352316425563 60.19428676066654 60.19428676066654 60.16352316425563 60.16352316425563 60.19428676066654 60.16352316425563 60.19428676066654 60.19428676066654 60.19428676066654 60.19428676066654 60.19428676066654 60.16352316425563 60.19428676066654 60.16352316425563 60.19428676066654 60.19428676066654 60.16352316425563 60.19428676066654 60.16352316425563 60.16352316425563 60.16352316425563 60.16352316425563 60.16352316425563 60.16352316425563 60.16352316425563 60.16352316425563 60.16352316425563 60.132759567844715 60.16352316425563 60.16352316425563 60.16352316425563 60.19428676066654 60.16352316425563 60.16352316425563 60.16352316425563 60.16352316425563 60.16352316425563 60.16352316425563 60.16352316425563 60.16352316425563 60.19428676066654 60.19428676066654 60.19428676066654 60.19428676066654 60.19428676066654 60.19428676066654 60.19428676066654 60.16352316425563 60.19428676066654 60.16352316425563 60.16352316425563 60.16352316425563 60.16352316425563 60.16352316425563 60.16352316425563 60.16352316425563 60.16352316425563 60.16352316425563 60.16352316425563 60.16352316425563 60.16352316425563 60.16352316425563 60.16352316425563 60.16352316425563 60.16352316425563 60.16352316425563 60.16352316425563 60.16352316425563 60.16352316425563 60.19428676066654 60.16352316425563 60.19428676066654 60.19428676066654 60.19428676066654 60.19428676066654 60.19428676066654 60.16352316425563 60.19428676066654 60.16352316425563 60.16352316425563 60.16352316425563 60.16352316425563 60.132759567844715 60.19428676066654 60.16352316425563 60.19428676066654 60.19428676066654 60.19428676066654 60.19428676066654 60.19428676066654 60.19428676066654 60.19428676066654 60.19428676066654 60.19428676066654 60.19428676066654 60.19428676066654 60.19428676066654 60.19428676066654 60.19428676066654 60.19428676066654 60.19428676066654 60.19428676066654 60.19428676066654 60.19428676066654 60.19428676066654 60.19428676066654 60.22505035707745 60.22505035707745 60.22505035707745 60.19428676066654 60.22505035707745 60.22505035707745 60.22505035707745 60.25581395348837 60.25581395348837 60.28657754989928 60.28657754989928 60.28657754989928 60.3173411463102 60.34810474272111 60.378868339132026 60.440395531953854 60.440395531953854 60.50192272477568 60.56344991759751 60.594213514008416 60.62497711041934 60.62497711041934 60.655740706830244 60.655740706830244 60.686504303241165 60.686504303241165 60.686504303241165 60.686504303241165 60.686504303241165 60.686504303241165 60.686504303241165 60.686504303241165 60.686504303241165 60.686504303241165 60.655740706830244 60.655740706830244 60.655740706830244 60.594213514008416 60.56344991759751 60.440395531953854 60.40963193554294 60.3173411463102 60.22505035707745 60.132759567844715 60.00970518220106 59.85588720014648 59.64054202527009 59.48672404321553 59.332906061160955 59.17908807910639 59.025270097051816 58.96374290422999 58.809924922175426 58.65610694012086 58.47152536165537 58.34847097601172 58.22541659036806 57.8562534334371 57.763962644204355 57.6409082585607 57.48709027650613 57.36403589086248 57.14869071598608 56.93334554110969 56.718000366233284 56.53341878776781 56.25654642006958 56.0719648416041 55.79509247390588 55.57974729902948 55.27211133492034 54.99523896722212 54.81065738875664 54.5030214246475 54.226149056949275 53.918513092840136 53.54934993590917 53.3955319538546 52.96484160410181 52.74949642922542 52.503387657938106 52.07269730818531 51.703534151254345 51.39589818714521 51.11902581944699 50.903680644570585 50.596044680461446 50.288408716352315 50.042299945065004 49.76542757736678 49.427028016846734 49.18091924555942 48.84251968503936 48.50412012451932 48.25801135323201 47.98113898553378 47.765793810657385 47.45815784654825 47.15052188243911 46.84288591832997 46.504486357809924 46.25837758652261 45.91997802600257 45.67386925471526 45.48928767624977 45.089360922907886 44.874015748031496 44.59714338033327 44.32027101263505 44.10492583775865 43.85881706647134 43.5511811023622 43.366599523896724 43.15125434902033 42.99743636696576 42.75132759567845 42.505218824391136 42.22834645669291 41.92071049258377 41.58231093206372 41.39772935359824 41.12085698590002 40.90551181102362 40.444057864859914 40.136421900750776 39.921076725874386 39.55191356894342 39.18275041201245 38.967405237136056 38.567478483794176 38.35213330891778 38.013733748397726 37.70609778428859 37.4907526094122 37.2754074345358 36.96777147042666 36.81395348837209 36.598608313495696 36.3832631386193 36.198681560153815 35.952572788866505 35.79875480681194 35.491118842702804 35.24501007141549 35.15271928218275 34.937374107306354 34.75279252884087 34.56821095037539 34.35286577549899 34.19904779344442 34.01446621497894 33.860648232924376 33.76835744369163 33.614539461637065 33.522248672404324 33.39919428676067 33.27613990111701 33.214612708295185 33.12232191906244 33.0300311298297 32.968503937007874 32.906976744186046 32.87621314777513 32.814685954953305 32.75315876213148 32.69163156930965 32.59934078007691 32.53781358725508 32.47628639443325 32.44552279802234 32.414759201611425 32.38399560520051 32.3532320087896 32.32246841237868 32.29170481596777 32.23017762314594 32.168650430324114 32.107123237502286 32.04559604468046 31.984068851858634 31.891778062625892 31.830250869804065 31.737960080571323 31.64566929133858 31.584142098516754 31.522614905694926 31.461087712873102 31.36879692364036 31.307269730818533 31.21497894158579 31.091924555942136 30.999633766709394 30.907342977476652 30.81505218824391 30.753524995422083 30.599707013367514 30.47665262772386 30.38436183849112 30.353598242080206 30.353598242080206 30.353598242080206 30.353598242080206 30.322834645669293 30.322834645669293 30.29207104925838 30.29207104925838 30.29207104925838 30.29207104925838 30.29207104925838 30.29207104925838 30.29207104925838 30.261307452847465 30.23054385643655 30.23054385643655 30.199780260025637 30.199780260025637 30.199780260025637 30.169016663614723 30.169016663614723 30.13825306720381 30.107489470792896 30.07672587438198 30.015198681560154 29.98443508514924 29.953671488738326 29.8921442959165 29.861380699505585 29.799853506683757 29.769089910272843 29.73832631386193 29.707562717451015 29.6767991210401 29.615271928218274 29.58450833180736 29.553744735396446 29.553744735396446 29.553744735396446 29.522981138985532 29.553744735396446 29.553744735396446 29.522981138985532 29.522981138985532 29.522981138985532 29.522981138985532 29.522981138985532 29.49221754257462 29.49221754257462 29.49221754257462 29.461453946163708 29.49221754257462 29.461453946163708 29.461453946163708 29.461453946163708 29.461453946163708 29.461453946163708 29.461453946163708 29.461453946163708 29.461453946163708 29.461453946163708 29.430690349752794 29.461453946163708 29.461453946163708 29.461453946163708 29.430690349752794 29.430690349752794 29.430690349752794 29.430690349752794 29.430690349752794 29.430690349752794 29.430690349752794 29.430690349752794 29.430690349752794 29.430690349752794 29.39992675334188 29.39992675334188 29.39992675334188 29.39992675334188 29.39992675334188 29.39992675334188 29.39992675334188 29.39992675334188 29.39992675334188 29.39992675334188 29.39992675334188 29.39992675334188 29.369163156930966 29.369163156930966 29.369163156930966 29.369163156930966 29.369163156930966 29.369163156930966 29.369163156930966 29.369163156930966 29.369163156930966 29.369163156930966 29.369163156930966 29.369163156930966 29.369163156930966 29.369163156930966 29.369163156930966 29.369163156930966 29.369163156930966 29.338399560520052 29.369163156930966 29.369163156930966 29.369163156930966 29.369163156930966 29.369163156930966 29.369163156930966 29.338399560520052 29.369163156930966 29.369163156930966 29.369163156930966 29.369163156930966 29.369163156930966 29.369163156930966 29.369163156930966 29.369163156930966 29.369163156930966 29.369163156930966 29.369163156930966 29.338399560520052 29.369163156930966 29.369163156930966 29.369163156930966 29.369163156930966 29.369163156930966 29.369163156930966 29.369163156930966 29.369163156930966 29.369163156930966 29.369163156930966 29.338399560520052 29.338399560520052 29.338399560520052 29.369163156930966 29.338399560520052 29.369163156930966 29.369163156930966 29.369163156930966 29.369163156930966 29.369163156930966 29.369163156930966 29.338399560520052 29.369163156930966 29.369163156930966 29.338399560520052 29.338399560520052 29.369163156930966 29.338399560520052 29.338399560520052 29.338399560520052 29.369163156930966 29.369163156930966 29.369163156930966 29.369163156930966 29.369163156930966 29.338399560520052 29.338399560520052 29.338399560520052 29.338399560520052 29.369163156930966 29.338399560520052 29.338399560520052 29.369163156930966 29.338399560520052 29.338399560520052 29.369163156930966 29.369163156930966 29.338399560520052 29.338399560520052 29.338399560520052 29.338399560520052 29.338399560520052 29.338399560520052 29.338399560520052 29.369163156930966 29.338399560520052 29.338399560520052 29.369163156930966 29.338399560520052 29.338399560520052 29.338399560520052 29.338399560520052 29.30763596410914 29.30763596410914 29.30763596410914 29.30763596410914 29.30763596410914 29.276872367698225 29.276872367698225 29.276872367698225 29.276872367698225 29.276872367698225 29.276872367698225 29.276872367698225 29.276872367698225 29.276872367698225 29.276872367698225 29.276872367698225 29.276872367698225 29.276872367698225 29.276872367698225 29.276872367698225 29.276872367698225 29.276872367698225 29.276872367698225 29.24610877128731 29.276872367698225 29.276872367698225 29.24610877128731 29.24610877128731 29.24610877128731 29.24610877128731 29.24610877128731 29.24610877128731 29.24610877128731 29.24610877128731 29.215345174876397 29.24610877128731 29.24610877128731 29.24610877128731 29.24610877128731 29.215345174876397 29.24610877128731 29.24610877128731 29.24610877128731 29.24610877128731 29.24610877128731 29.24610877128731 29.24610877128731 29.24610877128731 29.24610877128731 29.24610877128731 29.24610877128731 29.24610877128731 29.24610877128731 29.24610877128731 29.24610877128731 29.24610877128731 29.24610877128731 29.24610877128731 29.24610877128731 29.24610877128731 29.24610877128731 29.24610877128731 29.24610877128731 29.24610877128731 29.24610877128731 29.24610877128731 29.24610877128731 29.24610877128731 29.24610877128731 29.24610877128731 29.24610877128731 29.24610877128731 29.24610877128731 29.215345174876397 29.24610877128731 29.24610877128731 29.24610877128731 29.24610877128731 29.24610877128731 29.24610877128731 29.24610877128731 29.215345174876397 29.24610877128731 29.24610877128731 29.215345174876397 29.215345174876397 29.215345174876397 29.215345174876397 29.24610877128731 29.24610877128731 29.215345174876397 29.24610877128731 29.24610877128731 29.215345174876397 29.215345174876397 29.215345174876397 29.24610877128731 29.24610877128731 29.215345174876397 29.215345174876397 29.215345174876397 29.24610877128731 29.24610877128731 29.215345174876397 29.24610877128731 29.215345174876397 29.215345174876397 29.215345174876397 29.215345174876397 29.215345174876397 29.24610877128731 29.215345174876397 29.215345174876397 29.215345174876397 29.215345174876397 29.215345174876397 29.215345174876397 29.215345174876397 29.215345174876397 29.215345174876397 29.215345174876397 29.215345174876397 29.215345174876397 29.215345174876397 29.215345174876397 29.215345174876397 29.215345174876397 29.215345174876397 29.215345174876397 29.215345174876397 29.215345174876397 29.215345174876397 29.215345174876397 29.215345174876397 29.215345174876397 29.215345174876397 29.215345174876397 29.215345174876397 29.215345174876397 29.215345174876397 29.215345174876397 29.215345174876397 29.215345174876397 29.215345174876397 29.215345174876397 29.215345174876397 29.215345174876397 29.215345174876397 29.215345174876397 29.215345174876397 29.215345174876397 29.215345174876397 29.215345174876397 29.215345174876397 29.215345174876397 29.215345174876397 29.215345174876397 29.215345174876397 29.215345174876397 29.215345174876397 29.215345174876397 29.215345174876397 29.215345174876397 29.215345174876397 29.215345174876397 29.215345174876397 29.215345174876397 29.215345174876397 29.215345174876397 29.215345174876397 29.215345174876397 29.215345174876397 29.184581578465483 29.215345174876397 29.215345174876397 29.184581578465483 29.215345174876397 29.184581578465483 29.184581578465483 29.215345174876397 29.215345174876397 29.184581578465483 29.215345174876397 29.184581578465483 29.215345174876397 29.215345174876397 29.215345174876397 29.215345174876397 29.215345174876397 29.184581578465483 29.215345174876397 29.184581578465483 29.215345174876397 29.215345174876397 29.215345174876397 29.215345174876397 29.215345174876397 29.215345174876397 29.215345174876397 29.184581578465483 29.215345174876397 29.184581578465483 29.215345174876397 29.215345174876397 29.215345174876397 29.215345174876397 29.215345174876397 29.215345174876397 29.215345174876397 29.215345174876397 29.215345174876397 29.215345174876397 29.184581578465483 29.215345174876397 29.215345174876397 29.215345174876397 29.215345174876397 29.184581578465483 29.184581578465483 29.215345174876397 29.215345174876397 29.184581578465483 29.215345174876397 29.215345174876397 29.215345174876397 29.215345174876397 29.184581578465483 29.215345174876397 29.215345174876397 29.215345174876397 29.215345174876397 29.215345174876397 29.215345174876397 29.215345174876397 29.215345174876397 29.215345174876397 29.215345174876397 29.215345174876397 29.215345174876397 29.215345174876397 29.215345174876397 29.184581578465483 29.215345174876397 29.215345174876397 29.184581578465483 29.215345174876397 29.184581578465483 29.215345174876397 29.215345174876397 29.184581578465483 29.215345174876397 29.184581578465483 29.184581578465483 29.215345174876397 29.215345174876397 29.215345174876397 29.215345174876397 29.215345174876397 29.184581578465483 29.184581578465483 29.215345174876397 29.184581578465483 29.184581578465483 29.184581578465483 29.215345174876397 29.215345174876397 29.215345174876397 29.215345174876397 29.215345174876397 29.215345174876397 29.215345174876397 29.215345174876397 29.215345174876397 29.184581578465483 29.215345174876397 29.215345174876397 29.215345174876397 29.215345174876397 29.215345174876397 29.184581578465483 29.215345174876397 29.215345174876397 29.215345174876397 29.215345174876397 29.215345174876397 29.215345174876397 29.215345174876397 29.184581578465483 29.215345174876397 29.215345174876397 29.215345174876397 29.215345174876397 29.215345174876397 29.215345174876397 29.215345174876397 29.215345174876397 29.215345174876397 29.215345174876397 29.184581578465483 29.215345174876397 29.215345174876397 29.184581578465483 29.215345174876397 29.215345174876397 29.184581578465483 29.184581578465483 29.215345174876397 29.215345174876397 29.215345174876397 29.215345174876397 29.215345174876397 29.215345174876397 29.215345174876397 29.215345174876397 29.215345174876397 29.184581578465483 29.215345174876397 29.215345174876397 29.215345174876397 29.184581578465483 29.215345174876397 29.215345174876397 29.215345174876397 29.215345174876397 29.215345174876397 29.215345174876397 29.215345174876397 29.215345174876397 29.215345174876397 29.215345174876397 29.215345174876397 29.215345174876397 29.215345174876397 29.184581578465483 29.215345174876397 29.215345174876397 29.215345174876397 29.215345174876397 29.215345174876397 29.215345174876397 29.215345174876397 29.184581578465483 29.184581578465483 29.215345174876397 29.215345174876397 29.215345174876397 29.184581578465483 29.215345174876397 29.184581578465483 29.184581578465483 29.215345174876397 29.184581578465483 29.215345174876397 29.215345174876397 29.215345174876397 29.215345174876397 29.215345174876397 29.184581578465483 29.215345174876397 29.215345174876397 29.215345174876397 29.184581578465483 29.215345174876397 29.215345174876397 29.215345174876397 29.215345174876397 29.215345174876397 29.215345174876397 29.215345174876397 29.215345174876397 29.215345174876397 29.215345174876397 29.184581578465483 29.215345174876397 29.184581578465483 29.215345174876397 29.215345174876397 29.215345174876397 29.215345174876397 29.215345174876397 29.184581578465483 29.184581578465483 29.215345174876397 29.215345174876397 29.215345174876397 29.184581578465483 29.184581578465483 29.215345174876397 29.215345174876397 29.184581578465483 29.215345174876397 29.215345174876397 29.215345174876397 29.215345174876397 29.215345174876397 29.184581578465483 29.215345174876397 29.215345174876397 29.184581578465483 29.215345174876397 29.215345174876397 29.215345174876397 29.215345174876397 29.215345174876397 29.215345174876397 29.215345174876397 29.215345174876397 29.184581578465483 29.184581578465483 29.215345174876397 29.184581578465483 29.215345174876397 29.184581578465483 29.215345174876397 29.215345174876397 29.184581578465483 29.184581578465483 29.215345174876397 29.215345174876397 29.215345174876397 29.184581578465483 29.215345174876397 29.215345174876397 29.184581578465483 29.215345174876397 29.215345174876397 29.215345174876397 29.215345174876397 29.215345174876397 29.215345174876397 29.215345174876397 29.215345174876397 29.184581578465483 29.215345174876397 29.215345174876397 29.184581578465483 29.215345174876397 29.215345174876397 29.215345174876397 29.215345174876397 29.215345174876397 29.215345174876397 29.215345174876397 29.215345174876397 29.215345174876397 29.215345174876397 29.215345174876397 29.215345174876397 29.215345174876397 29.215345174876397 29.215345174876397 29.215345174876397 29.215345174876397 29.215345174876397 29.184581578465483 29.215345174876397 29.215345174876397 29.215345174876397 29.184581578465483 29.184581578465483 29.215345174876397 29.184581578465483 29.215345174876397 29.184581578465483 29.184581578465483 29.184581578465483 29.184581578465483 29.215345174876397 29.184581578465483 29.184581578465483 29.215345174876397 29.184581578465483 29.184581578465483 29.184581578465483 29.184581578465483 29.184581578465483 29.184581578465483 29.184581578465483 29.184581578465483 29.184581578465483 29.184581578465483 29.184581578465483 29.184581578465483 29.184581578465483 29.184581578465483 29.184581578465483 29.184581578465483 29.184581578465483 29.184581578465483 29.184581578465483 29.184581578465483 29.184581578465483 29.184581578465483 29.184581578465483 29.184581578465483 29.184581578465483 29.184581578465483 29.184581578465483 29.184581578465483 29.184581578465483 29.184581578465483 29.184581578465483 29.184581578465483 29.184581578465483 29.184581578465483 29.184581578465483 29.184581578465483 29.184581578465483 29.215345174876397 29.184581578465483 29.184581578465483 29.184581578465483 29.184581578465483 29.184581578465483 29.184581578465483 29.184581578465483 29.184581578465483 29.184581578465483 29.184581578465483 29.184581578465483 29.184581578465483 29.184581578465483 29.184581578465483 29.184581578465483 29.184581578465483 29.184581578465483 29.184581578465483 29.184581578465483 29.184581578465483 29.184581578465483 29.184581578465483 29.184581578465483 29.184581578465483 29.184581578465483 29.184581578465483 29.184581578465483 29.184581578465483 29.184581578465483 29.184581578465483 29.184581578465483 29.184581578465483 29.215345174876397 29.184581578465483 29.184581578465483 29.184581578465483 29.184581578465483 29.184581578465483 29.184581578465483 29.184581578465483 29.184581578465483 29.184581578465483 29.184581578465483 29.184581578465483 29.184581578465483 29.184581578465483 29.184581578465483 29.184581578465483 29.184581578465483 29.184581578465483 29.184581578465483 29.184581578465483 29.184581578465483 29.184581578465483 29.184581578465483 29.184581578465483 29.184581578465483 29.184581578465483 29.184581578465483 29.184581578465483 29.184581578465483 29.184581578465483 29.184581578465483 29.184581578465483 29.184581578465483 29.184581578465483 29.184581578465483 29.184581578465483 29.184581578465483 29.184581578465483 29.184581578465483 29.184581578465483 29.184581578465483 29.184581578465483 29.184581578465483 29.184581578465483 29.184581578465483 29.184581578465483 29.184581578465483 29.184581578465483 29.184581578465483 29.184581578465483 29.184581578465483 29.184581578465483 29.184581578465483 29.184581578465483 29.184581578465483 29.184581578465483 29.184581578465483 29.184581578465483 29.184581578465483 29.215345174876397 29.184581578465483 29.184581578465483 29.184581578465483 29.184581578465483 29.184581578465483 29.184581578465483 29.184581578465483 29.184581578465483 29.184581578465483 29.184581578465483 29.184581578465483 29.184581578465483 29.184581578465483 29.215345174876397 29.184581578465483 29.184581578465483 29.184581578465483 29.184581578465483 29.184581578465483 29.184581578465483 29.184581578465483 29.184581578465483 29.184581578465483 29.184581578465483 29.184581578465483 29.184581578465483 29.184581578465483 29.184581578465483 29.184581578465483 29.184581578465483 29.184581578465483 29.184581578465483 29.184581578465483 29.184581578465483 29.184581578465483 29.184581578465483 29.184581578465483 29.184581578465483 29.184581578465483 29.184581578465483 29.184581578465483 29.184581578465483 29.184581578465483 29.184581578465483 29.184581578465483 29.184581578465483 29.184581578465483 29.184581578465483 29.184581578465483 29.184581578465483 29.184581578465483 29.184581578465483 29.184581578465483 29.184581578465483 29.184581578465483 29.184581578465483 29.215345174876397 29.215345174876397 29.184581578465483 29.215345174876397 29.215345174876397 29.215345174876397 29.215345174876397 29.215345174876397 29.215345174876397 29.215345174876397 29.215345174876397 29.215345174876397 29.24610877128731 29.24610877128731 29.24610877128731 29.24610877128731 29.24610877128731 29.276872367698225 29.276872367698225 29.30763596410914 29.30763596410914 29.30763596410914 29.30763596410914 29.30763596410914 29.338399560520052 29.369163156930966 29.369163156930966 29.39992675334188 29.39992675334188 29.430690349752794 29.461453946163708 29.461453946163708 29.49221754257462 29.49221754257462 29.49221754257462 29.522981138985532 29.553744735396446 29.553744735396446 29.58450833180736 29.646035524629188 29.6767991210401 29.707562717451015 29.799853506683757 29.83061710309467 29.8921442959165 29.953671488738326 29.98443508514924 30.015198681560154 30.107489470792896 30.169016663614723 30.322834645669293 30.47665262772386 30.538179820545686 30.599707013367514 30.66123420618934 30.753524995422083 30.907342977476652 30.938106573887566 31.030397363120308 31.091924555942136 31.184215345174877 31.27650613440762 31.36879692364036 31.461087712873102 31.491851309284012 31.55337850210584 31.676432887749495 31.737960080571323 31.768723676982237 31.830250869804065 31.922541659036806 31.95330525544772 32.014832448269544 32.07635964109137 32.1378868339132 32.19941402673503 32.23017762314594 32.3532320087896 32.414759201611425 32.507049990844166 32.59934078007691 32.660867972898735 32.78392235854239 32.99926753341879 33.12232191906244 33.27613990111701 33.49148507599341 33.58377586522615 33.76835744369163 33.89141182933528 34.16828419703351 34.41439296832082 34.629738143197216 34.8143197216627 35.029664896539096 35.183482878593665 35.39882805347006 35.61417322834646 35.89104559604468 36.198681560153815 36.41402673503021 36.72166269913935 36.998535066837576 37.306171030946714 37.521516205823104 37.73686138069951 37.98297015198681 38.19831532686321 38.35213330891778 38.65976927302692 38.8443508514924 39.09045962277971 39.21351400842337 39.33656839406702 39.5211499725325 39.79802234023072 40.044131111518034 40.25947628639443 40.444057864859914 40.75169382896905 41.02856619666728 41.27467496795458 41.55154733565281 41.92071049258377 42.28987364951474 42.53598242080205 42.84361838491119 43.24354513825307 43.70499908441677 44.01263504852591 44.474088994689616 44.90477934444241 45.21241530855154 45.67386925471526 46.196850393700785 46.71983153268632 47.05823109320637 47.45815784654825 48.25801135323201 48.780992492217536 49.18091924555942 49.642373191723124 49.980772752243176 50.442226698406884 50.842153451748764 51.11902581944699 51.488188976377955 51.88811572971983 52.13422450100714 52.47262406152719 52.718732832814496 52.99560520051273 53.303241164621866 53.48782274308734 53.79545870719648 54.13385826771653 54.31843984618202 54.59531221388024 54.68760300311298 55.05676616004395 55.24134773850943 55.395165720563995 55.73356528108405 55.88738326313862 56.0719648416041 56.25654642006958 56.37960080571324 56.53341878776781 56.68723676982238 56.87181834828786 57.02563633034242 57.14869071598608 57.33327229445156 57.61014466214979 57.73319904779344 57.94854422266984 58.1023622047244 58.22541659036806 58.40999816883354 58.533052554477194 58.809924922175426 58.96374290422999 59.117560886284565 59.30214246475004 59.48672404321553 59.579014832448266 59.76359641091375 59.82512360373558 59.91741439296832 60.00970518220106 60.1019959714338 60.19428676066654 60.3173411463102 60.34810474272111 60.40963193554294 60.47115912836477 60.56344991759751 60.686504303241165 60.74803149606299 60.84032228529573 60.932613074528476 60.932613074528476 61.02490386376122 61.086431056583045 61.240249038637614 61.30177623145944 61.36330342428126 61.42483061710309 61.42483061710309 61.45559421351401 61.48635780992492 61.48635780992492 61.51712140633583 61.547885002746746 61.547885002746746 61.57864859915766 61.609412195568574 61.609412195568574 61.64017579197949 61.64017579197949 61.6709393883904 61.6709393883904 61.6709393883904 61.6709393883904 61.6709393883904 61.6709393883904 61.6709393883904 61.6709393883904 61.6709393883904 61.701702984801315 61.6709393883904 61.701702984801315 61.6709393883904 61.701702984801315 61.6709393883904 61.701702984801315 61.701702984801315 61.701702984801315 61.6709393883904 61.701702984801315 61.701702984801315 61.701702984801315 61.701702984801315 61.6709393883904 61.6709393883904 61.6709393883904 61.701702984801315 61.701702984801315 61.6709393883904 61.701702984801315 61.701702984801315 61.701702984801315 61.701702984801315 61.6709393883904 61.701702984801315 61.6709393883904 61.6709393883904 61.6709393883904 61.6709393883904 61.6709393883904 61.6709393883904 61.6709393883904 61.6709393883904 61.6709393883904 61.6709393883904 61.6709393883904 61.701702984801315 61.701702984801315 61.701702984801315 61.701702984801315 61.701702984801315 61.701702984801315 61.6709393883904 61.701702984801315 61.6709393883904 61.701702984801315 61.6709393883904 61.6709393883904 61.6709393883904 61.6709393883904 61.64017579197949 61.6709393883904 61.6709393883904 61.6709393883904 61.6709393883904 61.6709393883904 61.6709393883904 61.6709393883904 61.6709393883904 61.701702984801315 61.73246658121223 61.73246658121223 61.76323017762314 61.79399377403406 61.79399377403406 61.79399377403406 61.79399377403406 61.76323017762314 61.76323017762314 61.79399377403406 61.76323017762314 61.76323017762314 61.76323017762314 61.79399377403406 61.79399377403406 61.76323017762314 61.79399377403406 61.79399377403406 61.79399377403406 61.79399377403406 61.79399377403406 61.79399377403406 61.79399377403406 61.79399377403406 61.79399377403406 61.79399377403406 61.79399377403406 61.79399377403406 61.76323017762314 61.76323017762314 61.76323017762314 61.79399377403406 61.79399377403406 61.79399377403406 61.79399377403406 61.76323017762314 61.76323017762314 61.79399377403406 61.79399377403406 61.79399377403406 61.79399377403406 61.82475737044497 61.82475737044497 61.82475737044497 61.855520966855885 61.82475737044497 61.855520966855885 61.855520966855885 61.8862845632668 61.8862845632668 61.8862845632668 61.91704815967771 61.91704815967771 61.91704815967771 61.91704815967771 61.91704815967771 61.91704815967771 61.947811756088626 61.947811756088626 61.91704815967771 61.91704815967771 61.91704815967771 61.91704815967771 61.91704815967771 61.91704815967771 61.8862845632668 61.91704815967771 61.91704815967771 61.91704815967771 61.91704815967771 61.91704815967771 61.91704815967771 61.947811756088626 61.947811756088626 61.947811756088626 61.97857535249954 61.97857535249954 62.009338948910454 62.04010254532137 62.04010254532137 62.04010254532137 62.04010254532137 62.04010254532137 62.04010254532137 62.04010254532137 62.04010254532137 62.04010254532137 62.07086614173228 62.04010254532137 62.04010254532137 62.04010254532137 62.04010254532137 62.04010254532137 62.07086614173228 62.04010254532137 62.04010254532137 62.07086614173228 62.04010254532137 62.04010254532137 62.04010254532137 62.04010254532137 62.04010254532137 62.04010254532137 62.04010254532137 62.009338948910454 62.04010254532137 62.04010254532137 62.009338948910454 62.009338948910454 62.009338948910454 62.009338948910454 62.009338948910454 62.009338948910454 62.009338948910454 62.009338948910454 62.009338948910454 62.04010254532137 62.04010254532137 62.04010254532137 62.04010254532137 62.04010254532137 62.009338948910454 62.009338948910454 61.97857535249954 61.97857535249954 61.947811756088626 61.91704815967771 61.8862845632668 61.91704815967771 61.855520966855885 61.82475737044497 61.82475737044497 61.79399377403406 61.79399377403406 61.76323017762314 61.73246658121223 61.701702984801315 61.6709393883904 61.64017579197949 61.64017579197949 61.609412195568574 61.57864859915766 61.57864859915766 61.51712140633583 61.547885002746746 61.51712140633583 61.48635780992492 61.51712140633583 61.48635780992492 61.48635780992492 61.51712140633583 61.51712140633583 61.547885002746746 61.547885002746746 61.547885002746746 61.547885002746746 61.547885002746746 61.547885002746746 61.547885002746746 61.547885002746746 61.547885002746746 61.547885002746746 61.547885002746746 61.57864859915766 61.547885002746746 61.547885002746746 61.57864859915766 61.547885002746746 61.57864859915766 61.547885002746746 61.57864859915766 61.57864859915766 61.57864859915766 61.547885002746746 61.547885002746746 61.57864859915766 61.547885002746746 61.57864859915766 61.547885002746746 61.57864859915766 61.57864859915766 61.609412195568574 61.609412195568574 61.609412195568574 61.609412195568574 61.64017579197949 61.64017579197949 61.64017579197949 61.64017579197949 61.6709393883904 61.6709393883904 61.64017579197949 61.6709393883904 61.6709393883904 61.6709393883904 61.6709393883904 61.6709393883904 61.6709393883904 61.6709393883904 61.6709393883904 61.6709393883904 61.6709393883904 61.6709393883904 61.6709393883904 61.6709393883904 61.6709393883904 61.6709393883904 61.6709393883904 61.6709393883904 61.6709393883904 61.64017579197949 61.6709393883904 61.6709393883904 61.64017579197949 61.6709393883904 61.6709393883904 61.6709393883904 61.6709393883904 61.6709393883904 61.6709393883904 61.6709393883904 61.6709393883904 61.6709393883904 61.6709393883904 61.6709393883904 61.64017579197949 61.64017579197949 61.547885002746746 61.48635780992492 61.39406702069218 61.27101263504852 61.11719465299395 60.994140267350296 60.80955868888482 60.74803149606299 60.56344991759751 60.40963193554294 60.28657754989928 60.00970518220106 59.886650796557404 59.64054202527009 59.425196850393704 59.27137886833913 59.086797289873644 58.90221571140816 58.87145211499725 58.71763413294268 58.59457974729903 58.47152536165537 58.25618018677898 58.13312580113532 57.82548983702618 57.61014466214979 57.456326680095216 57.27174510162973 57.117927119575164 56.841054751876946 56.656473173411456 56.441127998535066 56.25654642006958 56.0719648416041 56.01043764878227 55.76432887749496 55.67203808826222 55.48745650979674 55.27211133492034 55.11829335286578 54.90294817798937 54.65683940670207 54.5030214246475 54.2876762497711 54.13385826771653 53.94927668925105 53.76469511078557 53.54934993590917 53.42629555026552 53.18018677897821 52.99560520051273 52.718732832814496 52.47262406152719 52.22651529023988 51.949642922541656 51.73429774766526 51.457425379967034 51.211316608679724 51.05749862662516 50.688335469694195 50.50375389122871 50.16535433070866 49.85771836659953 49.61160959531221 49.18091924555942 48.96557407068302 48.719465299395715 48.38106573887566 48.104193371177445 47.7965574070683 47.45815784654825 47.08899468961728 46.750595129097235 46.53524995422084 46.28914118293353 45.88921442959165 45.70463285112616 45.3354696941952 44.874015748031496 44.75096136238784 44.4433253982787 44.227980223402305 43.92034425929317 43.64347189159494 43.45889031312946 43.15125434902033 42.84361838491119 42.566746017212964 42.28987364951474 41.92071049258377 41.58231093206372 41.39772935359824 41.18238417872185 40.90551181102362 40.6286394433254 40.413294268449 40.01336751510712 39.79802234023072 39.49038637612159 39.24427760483428 38.99816883354697 38.75206006225966 38.35213330891778 38.167551730452296 37.859915766343164 37.64457059146676 37.33693462735763 37.02929866324849 36.78318989196118 36.506317524262954 36.22944515656473 36.01409998168833 35.76799121040103 35.61417322834646 35.30653726423732 35.15271928218275 34.99890130012818 34.783556125251785 34.537447353964474 34.383629371909905 34.01446621497894 33.860648232924376 33.64530305804798 33.522248672404324 33.42995788317158 33.30690349752793 33.18384911188427 33.12232191906244 33.0300311298297 32.968503937007874 32.87621314777513 32.814685954953305 32.75315876213148 32.69163156930965 32.63010437648782 32.568577183665994 32.507049990844166 32.44552279802234 32.38399560520051 32.29170481596777 32.260941219556855 32.19941402673503 32.168650430324114 32.07635964109137 32.014832448269544 31.95330525544772 31.891778062625892 31.79948727339315 31.737960080571323 31.676432887749495 31.614905694927668 31.522614905694926 31.399560520051274 31.307269730818533 31.21497894158579 31.091924555942136 31.06116095953122 30.938106573887566 30.845815784654825 30.72276139901117 30.599707013367514 30.538179820545686 30.415125434902034 30.38436183849112 30.353598242080206 30.29207104925838 30.29207104925838 30.29207104925838 30.29207104925838 30.29207104925838 30.29207104925838 30.29207104925838 30.29207104925838 30.261307452847465 30.261307452847465 30.23054385643655 30.199780260025637 30.13825306720381 30.045962277971068 29.98443508514924 29.953671488738326 29.922907892327412 29.8921442959165 29.83061710309467 29.73832631386193 29.707562717451015 29.615271928218274 29.58450833180736 29.553744735396446 29.49221754257462 29.49221754257462 29.49221754257462 29.49221754257462 29.49221754257462 29.461453946163708 29.49221754257462 29.49221754257462 29.461453946163708 29.49221754257462 29.461453946163708 29.461453946163708 29.461453946163708 29.461453946163708 29.430690349752794 29.430690349752794 29.430690349752794 29.430690349752794 29.430690349752794 29.430690349752794 29.430690349752794 29.39992675334188 29.430690349752794 29.430690349752794 29.430690349752794 29.430690349752794 29.430690349752794 29.39992675334188 29.39992675334188 29.39992675334188 29.430690349752794 29.39992675334188 29.39992675334188 29.39992675334188 29.369163156930966 29.369163156930966 29.369163156930966 29.369163156930966 29.369163156930966 29.338399560520052 29.338399560520052 29.338399560520052 29.338399560520052 29.338399560520052 29.338399560520052 29.338399560520052 29.338399560520052 29.338399560520052 29.338399560520052 29.30763596410914 29.30763596410914 29.30763596410914 29.30763596410914 29.30763596410914 29.30763596410914 29.30763596410914 29.30763596410914 29.276872367698225 29.30763596410914 29.30763596410914 29.30763596410914 29.30763596410914 29.30763596410914 29.30763596410914 29.276872367698225 29.30763596410914 29.276872367698225 29.276872367698225 29.276872367698225 29.30763596410914 29.276872367698225 29.276872367698225 29.276872367698225 29.276872367698225 29.276872367698225 29.276872367698225 29.30763596410914 29.276872367698225 29.276872367698225 29.276872367698225 29.276872367698225 29.276872367698225 29.276872367698225 29.276872367698225 29.276872367698225 29.276872367698225 29.276872367698225 29.276872367698225 29.276872367698225 29.276872367698225 29.276872367698225 29.276872367698225 29.276872367698225 29.276872367698225 29.276872367698225 29.276872367698225 29.276872367698225 29.276872367698225 29.276872367698225 29.276872367698225 29.276872367698225 29.276872367698225 29.276872367698225 29.276872367698225 29.276872367698225 29.276872367698225 29.276872367698225 29.276872367698225 29.276872367698225 29.276872367698225 29.276872367698225 29.24610877128731 29.276872367698225 29.276872367698225 29.24610877128731 29.276872367698225 29.276872367698225 29.276872367698225 29.276872367698225 29.276872367698225 29.276872367698225 29.276872367698225 29.276872367698225 29.24610877128731 29.24610877128731 29.24610877128731 29.24610877128731 29.276872367698225 29.24610877128731 29.24610877128731 29.24610877128731 29.24610877128731 29.24610877128731 29.276872367698225 29.276872367698225 29.276872367698225 29.276872367698225 29.24610877128731 29.276872367698225 29.276872367698225 29.276872367698225 29.276872367698225 29.276872367698225 29.24610877128731 29.24610877128731 29.276872367698225 29.276872367698225 29.276872367698225 29.276872367698225 29.276872367698225 29.276872367698225 29.276872367698225 29.276872367698225 29.276872367698225 29.276872367698225 29.276872367698225 29.276872367698225 29.276872367698225 29.276872367698225 29.276872367698225 29.276872367698225 29.276872367698225 29.276872367698225 29.276872367698225 29.276872367698225 29.276872367698225 29.24610877128731 29.276872367698225 29.276872367698225 29.24610877128731 29.24610877128731 29.276872367698225 29.276872367698225 29.24610877128731 29.276872367698225 29.276872367698225 29.24610877128731 29.276872367698225 29.276872367698225 29.24610877128731 29.276872367698225 29.276872367698225 29.276872367698225 29.276872367698225 29.276872367698225 29.276872367698225 29.24610877128731 29.24610877128731 29.24610877128731 29.24610877128731 29.24610877128731 29.24610877128731 29.24610877128731 29.24610877128731 29.24610877128731 29.24610877128731 29.24610877128731 29.24610877128731 29.24610877128731 29.24610877128731 29.24610877128731 29.24610877128731 29.24610877128731 29.24610877128731 29.24610877128731 29.24610877128731 29.24610877128731 29.24610877128731 29.24610877128731 29.24610877128731 29.24610877128731 29.24610877128731 29.24610877128731 29.24610877128731 29.24610877128731 29.24610877128731 29.24610877128731 29.24610877128731 29.24610877128731 29.24610877128731 29.24610877128731 29.24610877128731 29.24610877128731 29.24610877128731 29.24610877128731 29.24610877128731 29.24610877128731 29.24610877128731 29.24610877128731 29.24610877128731 29.24610877128731 29.24610877128731 29.24610877128731 29.24610877128731 29.24610877128731 29.24610877128731 29.215345174876397 29.215345174876397 29.215345174876397 29.215345174876397 29.215345174876397 29.24610877128731 29.215345174876397 29.215345174876397 29.215345174876397 29.215345174876397 29.215345174876397 29.215345174876397 29.215345174876397 29.215345174876397 29.215345174876397 29.215345174876397 29.215345174876397 29.215345174876397 29.215345174876397 29.215345174876397 29.215345174876397 29.24610877128731 29.215345174876397 29.215345174876397 29.215345174876397 29.215345174876397 29.215345174876397 29.215345174876397 29.215345174876397 29.215345174876397 29.215345174876397 29.215345174876397 29.215345174876397 29.215345174876397 29.215345174876397 29.215345174876397 29.215345174876397 29.215345174876397 29.215345174876397 29.215345174876397 29.215345174876397 29.215345174876397 29.215345174876397 29.215345174876397 29.215345174876397 29.215345174876397 29.215345174876397 29.215345174876397 29.215345174876397 29.215345174876397 29.215345174876397 29.215345174876397 29.215345174876397 29.215345174876397 29.215345174876397 29.215345174876397 29.184581578465483 29.215345174876397 29.215345174876397 29.215345174876397 29.215345174876397 29.184581578465483 29.215345174876397 29.215345174876397 29.215345174876397 29.215345174876397 29.215345174876397 29.215345174876397 29.215345174876397 29.215345174876397 29.184581578465483 29.215345174876397 29.184581578465483 29.215345174876397 29.184581578465483 29.184581578465483 29.215345174876397 29.215345174876397 29.184581578465483 29.215345174876397 29.184581578465483 29.184581578465483 29.184581578465483 29.184581578465483 29.184581578465483 29.215345174876397 29.184581578465483 29.184581578465483 29.184581578465483 29.184581578465483 29.184581578465483 29.184581578465483 29.184581578465483 29.184581578465483 29.184581578465483 29.184581578465483 29.184581578465483 29.184581578465483 29.184581578465483 29.184581578465483 29.184581578465483 29.184581578465483 29.184581578465483 29.184581578465483 29.184581578465483 29.184581578465483 29.184581578465483 29.184581578465483 29.184581578465483 29.184581578465483 29.184581578465483 29.184581578465483 29.184581578465483 29.184581578465483 29.184581578465483 29.184581578465483 29.15381798205457 29.184581578465483 29.184581578465483 29.184581578465483 29.184581578465483 29.184581578465483 29.184581578465483 29.184581578465483 29.184581578465483 29.184581578465483 29.184581578465483 29.184581578465483 29.184581578465483 29.184581578465483 29.184581578465483 29.184581578465483 29.184581578465483 29.184581578465483 29.184581578465483 29.184581578465483 29.184581578465483 29.184581578465483 29.184581578465483 29.184581578465483 29.184581578465483 29.184581578465483 29.184581578465483 29.184581578465483 29.184581578465483 29.184581578465483 29.184581578465483 29.184581578465483 29.184581578465483 29.184581578465483 29.184581578465483 29.184581578465483 29.184581578465483 29.184581578465483 29.184581578465483 29.184581578465483 29.184581578465483 29.15381798205457 29.184581578465483 29.184581578465483 29.184581578465483 29.184581578465483 29.15381798205457 29.15381798205457 29.15381798205457 29.184581578465483 29.15381798205457 29.15381798205457 29.15381798205457 29.15381798205457 29.15381798205457 29.15381798205457 29.184581578465483 29.184581578465483 29.15381798205457 29.184581578465483 29.15381798205457 29.15381798205457 29.15381798205457 29.15381798205457 29.15381798205457 29.184581578465483 29.15381798205457 29.15381798205457 29.15381798205457 29.15381798205457 29.15381798205457 29.15381798205457 29.15381798205457 29.15381798205457 29.15381798205457 29.15381798205457 29.184581578465483 29.15381798205457 29.15381798205457 29.15381798205457 29.15381798205457 29.15381798205457 29.184581578465483 29.15381798205457 29.15381798205457 29.15381798205457 29.15381798205457 29.15381798205457 29.15381798205457 29.15381798205457 29.15381798205457 29.15381798205457 29.15381798205457 29.15381798205457 29.15381798205457 29.15381798205457 29.15381798205457 29.15381798205457 29.15381798205457 29.15381798205457 29.15381798205457 29.15381798205457 29.15381798205457 29.15381798205457 29.15381798205457 29.15381798205457 29.15381798205457 29.15381798205457 29.15381798205457 29.15381798205457 29.15381798205457 29.15381798205457 29.15381798205457 29.15381798205457 29.15381798205457 29.15381798205457 29.15381798205457 29.15381798205457 29.15381798205457 29.15381798205457 29.15381798205457 29.15381798205457 29.15381798205457 29.15381798205457 29.15381798205457 29.15381798205457 29.15381798205457 29.15381798205457 29.15381798205457 29.15381798205457 29.15381798205457 29.15381798205457 29.15381798205457 29.15381798205457 29.15381798205457 29.15381798205457 29.15381798205457 29.15381798205457 29.15381798205457 29.15381798205457 29.15381798205457 29.15381798205457 29.15381798205457 29.15381798205457 29.15381798205457 29.15381798205457 29.15381798205457 29.15381798205457 29.15381798205457 29.15381798205457 29.15381798205457 29.15381798205457 29.15381798205457 29.15381798205457 29.15381798205457 29.15381798205457 29.15381798205457 29.15381798205457 29.15381798205457 29.15381798205457 29.123054385643655 29.123054385643655 29.15381798205457 29.15381798205457 29.15381798205457 29.15381798205457 29.15381798205457 29.123054385643655 29.15381798205457 29.123054385643655 29.123054385643655 29.15381798205457 29.15381798205457 29.15381798205457 29.15381798205457 29.123054385643655 29.123054385643655 29.15381798205457 29.15381798205457 29.15381798205457 29.123054385643655 29.15381798205457 29.15381798205457 29.15381798205457 29.15381798205457 29.15381798205457 29.15381798205457 29.15381798205457 29.15381798205457 29.15381798205457 29.123054385643655 29.123054385643655 29.123054385643655 29.15381798205457 29.15381798205457 29.15381798205457 29.15381798205457 29.15381798205457 29.15381798205457 29.15381798205457 29.15381798205457 29.15381798205457 29.15381798205457 29.15381798205457 29.15381798205457 29.15381798205457 29.15381798205457 29.15381798205457 29.123054385643655 29.15381798205457 29.123054385643655 29.15381798205457 29.15381798205457 29.15381798205457 29.123054385643655 29.15381798205457 29.15381798205457 29.15381798205457 29.15381798205457 29.123054385643655 29.15381798205457 29.15381798205457 29.123054385643655 29.123054385643655 29.123054385643655 29.15381798205457 29.123054385643655 29.15381798205457 29.15381798205457 29.15381798205457 29.123054385643655 29.123054385643655 29.123054385643655 29.15381798205457 29.15381798205457 29.123054385643655 29.123054385643655 29.123054385643655 29.123054385643655 29.123054385643655 29.15381798205457 29.123054385643655 29.123054385643655 29.123054385643655 29.15381798205457 29.15381798205457 29.15381798205457 29.15381798205457 29.123054385643655 29.123054385643655 29.123054385643655 29.123054385643655 29.123054385643655 29.123054385643655 29.123054385643655 29.123054385643655 29.123054385643655 29.123054385643655 29.15381798205457 29.15381798205457 29.123054385643655 29.123054385643655 29.123054385643655 29.123054385643655 29.15381798205457 29.123054385643655 29.15381798205457 29.123054385643655 29.123054385643655 29.123054385643655 29.123054385643655 29.123054385643655 29.15381798205457 29.123054385643655 29.123054385643655 29.123054385643655 29.123054385643655 29.15381798205457 29.123054385643655 29.15381798205457 29.123054385643655 29.123054385643655 29.15381798205457 29.123054385643655 29.123054385643655 29.15381798205457 29.123054385643655 29.123054385643655 29.123054385643655 29.123054385643655 29.123054385643655 29.123054385643655 29.123054385643655 29.123054385643655 29.123054385643655 29.123054385643655 29.123054385643655 29.123054385643655 29.123054385643655 29.123054385643655 29.123054385643655 29.123054385643655 29.123054385643655 29.123054385643655 29.123054385643655 29.123054385643655 29.123054385643655 29.123054385643655 29.123054385643655 29.123054385643655 29.123054385643655 29.123054385643655 29.123054385643655 29.123054385643655 29.123054385643655 29.123054385643655 29.123054385643655 29.123054385643655 29.123054385643655 29.123054385643655 29.123054385643655 29.123054385643655 29.123054385643655 29.123054385643655 29.123054385643655 29.123054385643655 29.123054385643655 29.09229078923274 29.123054385643655 29.123054385643655 29.123054385643655 29.123054385643655 29.123054385643655 29.123054385643655 29.123054385643655 29.123054385643655 29.09229078923274 29.09229078923274 29.123054385643655 29.09229078923274 29.09229078923274 29.123054385643655 29.123054385643655 29.09229078923274 29.09229078923274 29.09229078923274 29.09229078923274 29.123054385643655 29.09229078923274 29.09229078923274 29.123054385643655 29.09229078923274 29.123054385643655 29.09229078923274 29.123054385643655 29.09229078923274 29.09229078923274 29.09229078923274 29.09229078923274 29.09229078923274 29.09229078923274 29.123054385643655 29.09229078923274 29.09229078923274 29.123054385643655 29.09229078923274 29.09229078923274 29.09229078923274 29.09229078923274 29.09229078923274 29.09229078923274 29.09229078923274 29.09229078923274 29.09229078923274 29.09229078923274 29.09229078923274 29.09229078923274 29.09229078923274 29.09229078923274 29.09229078923274 29.09229078923274 29.09229078923274 29.09229078923274 29.09229078923274 29.09229078923274 29.09229078923274 29.09229078923274 29.09229078923274 29.09229078923274 29.09229078923274 29.09229078923274 29.09229078923274 29.09229078923274 29.09229078923274 29.09229078923274 29.09229078923274 29.09229078923274 29.09229078923274 29.09229078923274 29.09229078923274 29.09229078923274 29.09229078923274 29.09229078923274 29.09229078923274 29.09229078923274 29.061527192821828 29.09229078923274 29.09229078923274 29.09229078923274 29.09229078923274 29.09229078923274 29.09229078923274 29.09229078923274 29.061527192821828 29.09229078923274 29.09229078923274 29.09229078923274 29.061527192821828 29.09229078923274 29.061527192821828 29.09229078923274 29.09229078923274 29.09229078923274 29.061527192821828 29.061527192821828 29.09229078923274 29.09229078923274 29.061527192821828 29.09229078923274 29.061527192821828 29.061527192821828 29.061527192821828 29.061527192821828 29.061527192821828 29.061527192821828 29.061527192821828 29.061527192821828 29.061527192821828 29.061527192821828 29.061527192821828 29.061527192821828 29.061527192821828 29.061527192821828 29.061527192821828 29.09229078923274 29.061527192821828 29.061527192821828 29.061527192821828 29.061527192821828 29.061527192821828 29.061527192821828 29.09229078923274 29.061527192821828 29.061527192821828 29.061527192821828 29.061527192821828 29.061527192821828 29.061527192821828 29.061527192821828 29.061527192821828 29.061527192821828 29.061527192821828 29.09229078923274 29.09229078923274 29.09229078923274 29.09229078923274 29.09229078923274 29.09229078923274 29.09229078923274 29.123054385643655 29.123054385643655 29.09229078923274 29.123054385643655 29.123054385643655 29.123054385643655 29.123054385643655 29.15381798205457 29.15381798205457 29.184581578465483 29.184581578465483 29.184581578465483 29.215345174876397 29.215345174876397 29.24610877128731 29.276872367698225 29.276872367698225 29.30763596410914 29.30763596410914 29.30763596410914 29.30763596410914 29.338399560520052 29.338399560520052 29.369163156930966 29.369163156930966 29.369163156930966 29.369163156930966 29.39992675334188 29.39992675334188 29.39992675334188 29.39992675334188 29.430690349752794 29.461453946163708 29.49221754257462 29.49221754257462 29.522981138985532 29.553744735396446 29.553744735396446 29.58450833180736 29.58450833180736 29.615271928218274 29.646035524629188 29.707562717451015 29.73832631386193 29.799853506683757 29.83061710309467 29.861380699505585 29.8921442959165 29.953671488738326 29.953671488738326 29.98443508514924 30.045962277971068 30.107489470792896 30.13825306720381 30.199780260025637 30.23054385643655 30.322834645669293 30.415125434902034 30.47665262772386 30.538179820545686 30.630470609778428 30.66123420618934 30.784288591832997 30.845815784654825 30.938106573887566 31.06116095953122 31.091924555942136 31.184215345174877 31.338033327229446 31.461087712873102 31.55337850210584 31.64566929133858 31.768723676982237 31.830250869804065 31.891778062625892 32.04559604468046 32.1378868339132 32.23017762314594 32.32246841237868 32.414759201611425 32.59934078007691 32.69163156930965 32.814685954953305 32.99926753341879 33.214612708295185 33.33766709393884 33.58377586522615 33.73759384728072 33.983702618568024 34.16828419703351 34.383629371909905 34.629738143197216 35.06042849295001 35.27577366782641 35.52188243911371 35.67570042116829 35.952572788866505 36.106390770921074 36.22944515656473 36.53708112067387 36.752426295550265 37.060062259659404 37.42922541659037 37.70609778428859 38.075260941219554 38.50595129097235 38.721296465848745 39.09045962277971 39.45962277971067 39.674967954587075 40.01336751510712 40.22871268998352 40.597875846914484 40.87474821461271 41.05932979307819 41.243911371543675 41.42849295000916 41.67460172129647 42.013001281816514 42.197582860282 42.44369163156931 42.659036806445705 42.75132759567845 43.12049075260941 43.305072331074896 43.612708295184035 43.92034425929317 44.16645303058048 44.4433253982787 44.75096136238784 44.935542940853324 45.21241530855154 45.396996887017025 45.70463285112616 45.98150521882439 46.196850393700785 46.62754074345358 46.965940303973625 47.15052188243911 47.39663065372642 47.67350302142465 47.95037538912287 48.22724775682109 48.44259293169749 48.6887017029848 48.96557407068302 49.18091924555942 49.48855520966856 49.70390038454495 50.19611792711957 50.442226698406884 50.71909906610511 51.05749862662516 51.42666178355613 51.703534151254345 52.0419337117744 52.288042483061716 52.62644204358176 53.18018677897821 53.24171397180004 53.54934993590917 53.70316791796374 54.13385826771653 54.34920344259293 54.53378502105841 54.90294817798937 55.149056949276684 55.36440212415309 55.70280168467313 55.948910455960444 56.25654642006958 56.62570957700055 56.841054751876946 57.179454312397 57.48709027650613 57.73319904779344 58.22541659036806 58.34847097601172 58.533052554477194 58.71763413294268 58.87145211499725 59.086797289873644 59.363669657571876 59.48672404321553 59.67130562168101 59.82512360373558 60.040468778611974 60.19428676066654 60.34810474272111 60.62497711041934 60.80955868888482 60.96337667093938 61.20948544222669 61.36330342428126 61.64017579197949 61.947811756088626 62.101629738143195 62.347738509430506 62.59384728071782 62.74766526277239 62.96301043764878 63.20911920893609 63.424464383812484 63.578282365867054 63.73210034792162 63.916681926387106 64.07049990844168 64.25508148690716 64.40889946896172 64.43966306537264 64.53195385460538 64.5627174510163 64.5627174510163 64.5627174510163 64.59348104742722 64.59348104742722 64.59348104742722 64.59348104742722 64.62424464383813 64.62424464383813 64.59348104742722 64.59348104742722 64.5627174510163 64.5627174510163 64.59348104742722 64.59348104742722 64.5627174510163 64.5627174510163 64.5627174510163 64.5627174510163 64.5627174510163 64.5627174510163 64.5627174510163 64.5627174510163 64.5627174510163 64.5627174510163 64.5627174510163 64.5627174510163 64.59348104742722 64.5627174510163 64.59348104742722 64.59348104742722 64.62424464383813 64.59348104742722 64.59348104742722 64.5627174510163 64.59348104742722 64.5627174510163 64.5627174510163 64.59348104742722 64.5627174510163 64.5627174510163 64.5627174510163 64.5627174510163 64.5627174510163 64.5627174510163 64.5627174510163 64.5627174510163 64.5627174510163 64.5627174510163 64.5627174510163 64.5627174510163 64.5627174510163 64.5627174510163 64.5627174510163 64.5627174510163 64.5627174510163 64.5627174510163 64.5627174510163 64.5627174510163 64.5627174510163 64.5627174510163 64.5627174510163 64.5627174510163 64.5627174510163 64.5627174510163 64.5627174510163 64.5627174510163 64.5627174510163 64.5627174510163 64.5627174510163 64.5627174510163 64.59348104742722 64.5627174510163 64.5627174510163 64.5627174510163 64.5627174510163 64.5627174510163 64.53195385460538 64.53195385460538 64.50119025819447 64.50119025819447 64.50119025819447 64.47042666178355 64.47042666178355 64.47042666178355 64.43966306537264 64.43966306537264 64.40889946896172 64.40889946896172 64.40889946896172 64.40889946896172 64.40889946896172 64.40889946896172 64.40889946896172 64.40889946896172 64.40889946896172 64.40889946896172 64.40889946896172 64.40889946896172 64.43966306537264 64.40889946896172 64.40889946896172 64.43966306537264 64.43966306537264 64.43966306537264 64.43966306537264 64.43966306537264 64.43966306537264 64.43966306537264 64.43966306537264 64.43966306537264 64.43966306537264 64.43966306537264 64.43966306537264 64.43966306537264 64.43966306537264 64.47042666178355 64.50119025819447 64.47042666178355 64.50119025819447 64.50119025819447 64.50119025819447 64.50119025819447 64.50119025819447 64.50119025819447 64.50119025819447 64.50119025819447 64.47042666178355 64.47042666178355 64.50119025819447 64.50119025819447 64.50119025819447 64.53195385460538 64.62424464383813 64.68577183665994 64.74729902948178 64.74729902948178 64.80882622230361 64.87035341512544 64.87035341512544 64.93188060794725 64.96264420435817 64.99340780076909 65.02417139718 65.02417139718 65.0549349935909 65.02417139718 65.0549349935909 65.0549349935909 65.0549349935909 65.0549349935909 65.0549349935909 65.0549349935909 65.0549349935909 65.0549349935909 65.0549349935909 65.0549349935909 65.0549349935909 65.0549349935909 65.0549349935909 65.0549349935909 65.0549349935909 65.02417139718 65.02417139718 65.02417139718 65.02417139718 65.02417139718 65.02417139718 65.02417139718 65.0549349935909 65.0549349935909 65.08569859000184 65.08569859000184 65.11646218641275 65.08569859000184 65.08569859000184 65.08569859000184 65.11646218641275 65.08569859000184 65.11646218641275 65.11646218641275 65.11646218641275 65.08569859000184 65.08569859000184 65.11646218641275 65.17798937923456 65.17798937923456 65.17798937923456 65.20875297564548 65.2395165720564 65.2395165720564 65.2395165720564 65.2395165720564 65.2395165720564 65.2395165720564 65.27028016846731 65.2395165720564 65.27028016846731 65.2395165720564 65.2395165720564 65.2395165720564 65.2395165720564 65.2395165720564 65.2395165720564 65.2395165720564 65.2395165720564 65.2395165720564 65.2395165720564 65.2395165720564 65.2395165720564 65.2395165720564 65.2395165720564 65.2395165720564 65.2395165720564 65.2395165720564 65.2395165720564 65.27028016846731 65.30104376487822 65.33180736128914 65.36257095770006 65.39333455411096 65.42409815052187 65.42409815052187 65.42409815052187 65.45486174693279 65.42409815052187 65.45486174693279 65.45486174693279 65.45486174693279 65.48562534334371 65.45486174693279 65.45486174693279 65.45486174693279 65.45486174693279 65.48562534334371 65.45486174693279 65.45486174693279 65.45486174693279 65.45486174693279 65.45486174693279 65.45486174693279 65.45486174693279 65.45486174693279 65.45486174693279 65.45486174693279 65.45486174693279 65.42409815052187 65.45486174693279 65.42409815052187 65.45486174693279 65.45486174693279 65.42409815052187 65.42409815052187 65.45486174693279 65.45486174693279 65.42409815052187 65.42409815052187 65.42409815052187 65.42409815052187 65.42409815052187 65.42409815052187 65.39333455411096 65.39333455411096 65.39333455411096 65.42409815052187 65.39333455411096 65.39333455411096 65.39333455411096 65.42409815052187 65.39333455411096 65.36257095770006 65.36257095770006 65.27028016846731 65.20875297564548 65.17798937923456 65.11646218641275 65.02417139718 64.99340780076909 64.87035341512544 64.80882622230361 64.71653543307087 64.59348104742722 64.53195385460538 64.43966306537264 64.31660867972897 64.25508148690716 64.1320271012635 64.03973631203075 63.916681926387106 63.73210034792162 63.578282365867054 63.424464383812484 63.33217359457974 63.30140999816883 63.20911920893609 63.08606482329243 62.901483244826956 62.716901666361466 62.5630836843069 62.28621131660868 62.101629738143195 61.91704815967771 61.64017579197949 61.45559421351401 61.240249038637614 60.994140267350296 60.84032228529573 60.594213514008416 60.25581395348837 60.132759567844715 59.91741439296832 59.76359641091375 59.54825123603735 59.30214246475004 59.025270097051816 58.809924922175426 58.62534334370994 58.34847097601172 58.13312580113532 57.8562534334371 57.6409082585607 57.302508698040654 57.117927119575164 56.841054751876946 56.62570957700055 56.348837209302324 56.10272843801501 55.88738326313862 55.67203808826222 55.45669291338582 55.27211133492034 55.026002563633035 54.90294817798937 54.68760300311298 54.5030214246475 54.34920344259293 54.13385826771653 53.88774949642922 53.73393151437466 53.610877128731005 53.42629555026552 53.24171397180004 53.08789598974546 52.84178721845816 52.62644204358176 52.411096868705364 52.22651529023988 51.91887932613075 51.826588536898 51.58047976561069 51.33437099432338 51.11902581944699 50.903680644570585 50.62680827687237 50.442226698406884 50.07306354147592 49.980772752243176 49.70390038454495 49.365500824024906 49.21168284197033 49.05786485991577 48.75022889580663 48.59641091375206 48.35030214246475 48.28877494964292 48.104193371177445 47.95037538912287 47.73503021424648 47.48892144295917 47.27357626808276 47.15052188243911 46.904413111151804 46.71983153268632 46.41219556857718 46.16608679728987 45.91997802600257 45.643105658304336 45.427760483427946 45.12012451931881 44.68943416956601 44.35103460904596 44.074162241347736 43.85881706647134 43.64347189159494 43.39736312030763 43.21278154184215 42.812854788500275 42.47445522798022 42.22834645669291 41.88994689617286 41.55154733565281 41.27467496795458 40.96703900384545 40.72093023255814 40.32100347921626 40.136421900750776 39.95184032228529 39.674967954587075 39.30580479765611 39.15198681560154 38.8443508514924 38.59824208020509 38.29060611609595 38.013733748397726 37.58304339864493 37.33693462735763 36.998535066837576 36.78318989196118 36.506317524262954 36.26020875297564 35.82951840322285 35.46035524629189 35.27577366782641 34.937374107306354 34.629738143197216 34.41439296832082 34.137520600622594 33.983702618568024 33.860648232924376 33.76835744369163 33.73759384728072 33.64530305804798 33.522248672404324 33.49148507599341 33.42995788317158 33.39919428676067 33.33766709393884 33.2453763047061 33.15308551547336 33.060794726240616 32.93774034059696 32.906976744186046 32.84544955136422 32.78392235854239 32.69163156930965 32.69163156930965 32.63010437648782 32.568577183665994 32.507049990844166 32.414759201611425 32.32246841237868 32.260941219556855 32.1378868339132 32.04559604468046 31.984068851858634 31.86101446621498 31.768723676982237 31.614905694927668 31.522614905694926 31.430324116462188 31.338033327229446 31.184215345174877 31.091924555942136 30.999633766709394 30.907342977476652 30.81505218824391 30.784288591832997 30.753524995422083 30.691997802600255 30.66123420618934 30.630470609778428 30.630470609778428 30.630470609778428 30.630470609778428 30.599707013367514 30.599707013367514 30.5689434169566 30.47665262772386 30.415125434902034 30.322834645669293 30.29207104925838 30.23054385643655 30.169016663614723 30.107489470792896 30.045962277971068 29.8921442959165 29.83061710309467 29.769089910272843 29.707562717451015 29.615271928218274 29.58450833180736 29.522981138985532 29.430690349752794 29.430690349752794 29.430690349752794 29.430690349752794 29.430690349752794 29.430690349752794 29.430690349752794 29.430690349752794 29.430690349752794 29.430690349752794 29.430690349752794 29.430690349752794 29.430690349752794 29.430690349752794 29.430690349752794 29.430690349752794 29.430690349752794 29.430690349752794 29.430690349752794 29.430690349752794 29.430690349752794 29.430690349752794 29.430690349752794 29.430690349752794 29.39992675334188 29.39992675334188 29.39992675334188 29.39992675334188 29.39992675334188 29.39992675334188 29.369163156930966 29.369163156930966 29.369163156930966 29.369163156930966 29.369163156930966 29.369163156930966 29.369163156930966 29.369163156930966 29.369163156930966 29.369163156930966 29.369163156930966 29.369163156930966 29.338399560520052 29.338399560520052 29.338399560520052 29.338399560520052 29.338399560520052 29.338399560520052 29.338399560520052 29.30763596410914 29.30763596410914 29.338399560520052 29.338399560520052 29.338399560520052 29.338399560520052 29.338399560520052 29.30763596410914 29.338399560520052 29.338399560520052 29.30763596410914 29.338399560520052 29.30763596410914 29.338399560520052 29.338399560520052 29.30763596410914 29.338399560520052 29.30763596410914 29.30763596410914 29.30763596410914 29.30763596410914 29.30763596410914 29.30763596410914 29.30763596410914 29.30763596410914 29.30763596410914 29.30763596410914 29.30763596410914 29.30763596410914 29.30763596410914 29.276872367698225 29.30763596410914 29.30763596410914 29.30763596410914 29.276872367698225 29.276872367698225 29.276872367698225 29.276872367698225 29.276872367698225 29.276872367698225 29.276872367698225 29.276872367698225 29.276872367698225 29.276872367698225 29.276872367698225 29.276872367698225 29.276872367698225 29.276872367698225 29.276872367698225 29.276872367698225 29.276872367698225 29.276872367698225 29.276872367698225 29.276872367698225 29.276872367698225 29.276872367698225 29.276872367698225 29.276872367698225 29.24610877128731 29.24610877128731 29.24610877128731 29.24610877128731 29.24610877128731 29.24610877128731 29.24610877128731 29.24610877128731 29.24610877128731 29.215345174876397 29.24610877128731 29.24610877128731 29.24610877128731 29.24610877128731 29.24610877128731 29.24610877128731 29.24610877128731 29.24610877128731 29.215345174876397 29.215345174876397 29.24610877128731 29.24610877128731 29.24610877128731 29.215345174876397 29.215345174876397 29.215345174876397 29.215345174876397 29.215345174876397 29.215345174876397 29.24610877128731 29.24610877128731 29.215345174876397 29.24610877128731 29.215345174876397 29.24610877128731 29.24610877128731 29.215345174876397 29.24610877128731 29.215345174876397 29.215345174876397 29.215345174876397 29.215345174876397 29.215345174876397 29.215345174876397 29.215345174876397 29.215345174876397 29.215345174876397 29.215345174876397 29.215345174876397 29.215345174876397 29.215345174876397 29.215345174876397 29.215345174876397 29.215345174876397 29.215345174876397 29.215345174876397 29.215345174876397 29.215345174876397 29.215345174876397 29.215345174876397 29.215345174876397 29.215345174876397 29.215345174876397 29.215345174876397 29.215345174876397 29.215345174876397 29.215345174876397 29.215345174876397 29.215345174876397 29.215345174876397 29.215345174876397 29.215345174876397 29.215345174876397 29.184581578465483 29.215345174876397 29.215345174876397 29.215345174876397 29.215345174876397 29.184581578465483 29.215345174876397 29.215345174876397 29.184581578465483 29.184581578465483 29.215345174876397 29.184581578465483 29.184581578465483 29.215345174876397 29.215345174876397 29.215345174876397 29.215345174876397 29.184581578465483 29.184581578465483 29.184581578465483 29.184581578465483 29.184581578465483 29.184581578465483 29.215345174876397 29.184581578465483 29.184581578465483 29.184581578465483 29.184581578465483 29.184581578465483 29.184581578465483 29.184581578465483 29.184581578465483 29.184581578465483 29.184581578465483 29.184581578465483 29.215345174876397 29.184581578465483 29.215345174876397 29.184581578465483 29.184581578465483 29.184581578465483 29.184581578465483 29.184581578465483 29.184581578465483 29.184581578465483 29.215345174876397 29.215345174876397 29.184581578465483 29.184581578465483 29.184581578465483 29.184581578465483 29.184581578465483 29.184581578465483 29.184581578465483 29.184581578465483 29.215345174876397 29.184581578465483 29.184581578465483 29.215345174876397 29.184581578465483 29.184581578465483 29.184581578465483 29.215345174876397 29.215345174876397 29.215345174876397 29.184581578465483 29.215345174876397 29.184581578465483 29.215345174876397 29.184581578465483 29.184581578465483 29.184581578465483 29.184581578465483 29.184581578465483 29.184581578465483 29.184581578465483 29.215345174876397 29.184581578465483 29.215345174876397 29.184581578465483 29.215345174876397 29.184581578465483 29.184581578465483 29.184581578465483 29.184581578465483 29.184581578465483 29.184581578465483 29.184581578465483 29.184581578465483 29.184581578465483 29.184581578465483 29.184581578465483 29.184581578465483 29.184581578465483 29.215345174876397 29.184581578465483 29.184581578465483 29.184581578465483 29.184581578465483 29.184581578465483 29.184581578465483 29.184581578465483 29.184581578465483 29.184581578465483 29.215345174876397 29.184581578465483 29.184581578465483 29.184581578465483 29.184581578465483 29.215345174876397 29.184581578465483 29.184581578465483 29.184581578465483 29.184581578465483 29.184581578465483 29.184581578465483 29.184581578465483 29.184581578465483 29.184581578465483 29.184581578465483 29.184581578465483 29.184581578465483 29.184581578465483 29.184581578465483 29.184581578465483 29.184581578465483 29.184581578465483 29.184581578465483 29.184581578465483 29.184581578465483 29.184581578465483 29.184581578465483 29.184581578465483 29.184581578465483 29.184581578465483 29.184581578465483 29.184581578465483 29.184581578465483 29.184581578465483 29.184581578465483 29.184581578465483 29.184581578465483 29.184581578465483 29.184581578465483 29.184581578465483 29.184581578465483 29.184581578465483 29.184581578465483 29.184581578465483 29.184581578465483 29.184581578465483 29.184581578465483 29.184581578465483 29.184581578465483 29.184581578465483 29.184581578465483 29.184581578465483 29.184581578465483 29.184581578465483 29.184581578465483 29.184581578465483 29.184581578465483 29.184581578465483 29.184581578465483 29.184581578465483 29.184581578465483 29.15381798205457 29.184581578465483 29.184581578465483 29.184581578465483 29.184581578465483 29.184581578465483 29.184581578465483 29.184581578465483 29.184581578465483 29.184581578465483 29.184581578465483 29.184581578465483 29.184581578465483 29.184581578465483 29.184581578465483 29.184581578465483 29.184581578465483 29.184581578465483 29.15381798205457 29.184581578465483 29.184581578465483 29.184581578465483 29.184581578465483 29.15381798205457 29.184581578465483 29.184581578465483 29.184581578465483 29.184581578465483 29.184581578465483 29.184581578465483 29.184581578465483 29.184581578465483 29.184581578465483 29.184581578465483 29.184581578465483 29.184581578465483 29.15381798205457 29.184581578465483 29.184581578465483 29.184581578465483 29.184581578465483 29.15381798205457 29.15381798205457 29.184581578465483 29.184581578465483 29.184581578465483 29.184581578465483 29.184581578465483 29.184581578465483 29.184581578465483 29.184581578465483 29.184581578465483 29.184581578465483 29.184581578465483 29.184581578465483 29.184581578465483 29.184581578465483 29.184581578465483 29.184581578465483 29.184581578465483 29.184581578465483 29.184581578465483 29.184581578465483 29.184581578465483 29.184581578465483 29.15381798205457 29.184581578465483 29.184581578465483 29.15381798205457 29.184581578465483 29.184581578465483 29.184581578465483 29.184581578465483 29.184581578465483 29.184581578465483 29.184581578465483 29.184581578465483 29.184581578465483 29.184581578465483 29.184581578465483 29.184581578465483 29.184581578465483 29.184581578465483 29.184581578465483 29.184581578465483 29.184581578465483 29.184581578465483 29.184581578465483 29.184581578465483 29.184581578465483 29.184581578465483 29.184581578465483 29.184581578465483 29.184581578465483 29.184581578465483 29.184581578465483 29.184581578465483 29.184581578465483 29.184581578465483 29.184581578465483 29.184581578465483 29.184581578465483 29.184581578465483 29.184581578465483 29.184581578465483 29.184581578465483 29.184581578465483 29.184581578465483 29.184581578465483 29.184581578465483 29.184581578465483 29.184581578465483 29.184581578465483 29.184581578465483 29.184581578465483 29.184581578465483 29.184581578465483 29.184581578465483 29.184581578465483 29.184581578465483 29.184581578465483 29.184581578465483 29.184581578465483 29.184581578465483 29.184581578465483 29.184581578465483 29.184581578465483 29.184581578465483 29.184581578465483 29.184581578465483 29.184581578465483 29.184581578465483 29.184581578465483 29.184581578465483 29.184581578465483 29.184581578465483 29.184581578465483 29.184581578465483 29.184581578465483 29.184581578465483 29.184581578465483 29.184581578465483 29.184581578465483 29.184581578465483 29.184581578465483 29.184581578465483 29.184581578465483 29.184581578465483 29.184581578465483 29.184581578465483 29.184581578465483 29.184581578465483 29.184581578465483 29.184581578465483 29.184581578465483 29.184581578465483 29.184581578465483 29.184581578465483 29.184581578465483 29.184581578465483 29.184581578465483 29.184581578465483 29.184581578465483 29.184581578465483 29.184581578465483 29.184581578465483 29.184581578465483 29.184581578465483 29.184581578465483 29.184581578465483 29.184581578465483 29.184581578465483 29.184581578465483 29.184581578465483 29.184581578465483 29.184581578465483 29.184581578465483 29.184581578465483 29.184581578465483 29.184581578465483 29.184581578465483 29.184581578465483 29.184581578465483 29.184581578465483 29.184581578465483 29.15381798205457 29.184581578465483 29.184581578465483 29.184581578465483 29.184581578465483 29.184581578465483 29.184581578465483 29.184581578465483 29.184581578465483 29.184581578465483 29.184581578465483 29.184581578465483 29.184581578465483 29.184581578465483 29.184581578465483 29.15381798205457 29.184581578465483 29.184581578465483 29.15381798205457 29.184581578465483 29.184581578465483 29.15381798205457 29.184581578465483 29.184581578465483 29.15381798205457 29.184581578465483 29.184581578465483 29.184581578465483 29.184581578465483 29.184581578465483 29.184581578465483 29.184581578465483 29.184581578465483 29.184581578465483 29.184581578465483 29.184581578465483 29.184581578465483 29.184581578465483 29.184581578465483 29.184581578465483 29.184581578465483 29.184581578465483 29.184581578465483 29.184581578465483 29.184581578465483 29.184581578465483 29.184581578465483 29.15381798205457 29.15381798205457 29.184581578465483 29.184581578465483 29.184581578465483 29.15381798205457 29.184581578465483 29.15381798205457 29.15381798205457 29.15381798205457 29.15381798205457 29.15381798205457 29.15381798205457 29.15381798205457 29.15381798205457 29.15381798205457 29.15381798205457 29.15381798205457 29.15381798205457 29.15381798205457 29.15381798205457 29.15381798205457 29.15381798205457 29.15381798205457 29.15381798205457 29.15381798205457 29.15381798205457 29.15381798205457 29.15381798205457 29.15381798205457 29.15381798205457 29.15381798205457 29.15381798205457 29.15381798205457 29.15381798205457 29.15381798205457 29.15381798205457 29.15381798205457 29.15381798205457 29.15381798205457 29.15381798205457 29.15381798205457 29.15381798205457 29.15381798205457 29.15381798205457 29.15381798205457 29.15381798205457 29.15381798205457 29.15381798205457 29.15381798205457 29.15381798205457 29.15381798205457 29.15381798205457 29.15381798205457 29.15381798205457 29.15381798205457 29.15381798205457 29.15381798205457 29.15381798205457 29.15381798205457 29.15381798205457 29.15381798205457 29.15381798205457 29.15381798205457 29.15381798205457 29.15381798205457 29.15381798205457 29.15381798205457 29.15381798205457 29.15381798205457 29.15381798205457 29.15381798205457 29.15381798205457 29.15381798205457 29.15381798205457 29.15381798205457 29.15381798205457 29.15381798205457 29.15381798205457 29.15381798205457 29.15381798205457 29.15381798205457 29.15381798205457 29.15381798205457 29.15381798205457 29.15381798205457 29.15381798205457 29.15381798205457 29.15381798205457 29.15381798205457 29.15381798205457 29.15381798205457 29.15381798205457 29.15381798205457 29.15381798205457 29.15381798205457 29.15381798205457 29.15381798205457 29.15381798205457 29.15381798205457 29.15381798205457 29.15381798205457 29.15381798205457 29.15381798205457 29.15381798205457 29.15381798205457 29.15381798205457 29.15381798205457 29.15381798205457 29.15381798205457 29.15381798205457 29.15381798205457 29.15381798205457 29.15381798205457 29.15381798205457 29.15381798205457 29.15381798205457 29.15381798205457 29.15381798205457 29.15381798205457 29.15381798205457 29.15381798205457 29.15381798205457 29.15381798205457 29.15381798205457 29.15381798205457 29.15381798205457 29.15381798205457 29.15381798205457 29.15381798205457 29.15381798205457 29.15381798205457 29.15381798205457 29.15381798205457 29.15381798205457 29.15381798205457 29.15381798205457 29.15381798205457 29.15381798205457 29.15381798205457 29.15381798205457 29.15381798205457 29.15381798205457 29.15381798205457 29.15381798205457 29.15381798205457 29.15381798205457 29.15381798205457 29.15381798205457 29.15381798205457 29.15381798205457 29.15381798205457 29.15381798205457 29.15381798205457 29.15381798205457 29.15381798205457 29.15381798205457 29.15381798205457 29.15381798205457 29.15381798205457 29.15381798205457 29.15381798205457 29.15381798205457 29.15381798205457 29.15381798205457 29.15381798205457 29.15381798205457 29.15381798205457 29.15381798205457 29.15381798205457 29.15381798205457 29.15381798205457 29.15381798205457 29.15381798205457 29.15381798205457 29.15381798205457 29.15381798205457 29.15381798205457 29.15381798205457 29.15381798205457 29.15381798205457 29.15381798205457 29.15381798205457 29.15381798205457 29.15381798205457 29.15381798205457 29.15381798205457 29.15381798205457 29.15381798205457 29.15381798205457 29.15381798205457 29.15381798205457 29.15381798205457 29.15381798205457 29.15381798205457 29.15381798205457 29.15381798205457 29.15381798205457 29.15381798205457 29.15381798205457 29.15381798205457 29.15381798205457 29.15381798205457 29.15381798205457 29.15381798205457 29.15381798205457 29.15381798205457 29.15381798205457 29.15381798205457 29.15381798205457 29.15381798205457 29.15381798205457 29.15381798205457 29.15381798205457 29.15381798205457 29.15381798205457 29.15381798205457 29.15381798205457 29.15381798205457 29.15381798205457 29.15381798205457 29.15381798205457 29.184581578465483 29.15381798205457 29.184581578465483 29.184581578465483 29.184581578465483 29.184581578465483 29.184581578465483 29.184581578465483 29.215345174876397 29.215345174876397 29.215345174876397 29.24610877128731 29.24610877128731 29.276872367698225 29.276872367698225 29.30763596410914 29.30763596410914 29.30763596410914 29.338399560520052 29.369163156930966 29.369163156930966 29.369163156930966 29.39992675334188 29.39992675334188 29.430690349752794 29.461453946163708 29.49221754257462 29.553744735396446 29.553744735396446 29.553744735396446 29.553744735396446 29.58450833180736 29.58450833180736 29.646035524629188 29.6767991210401 29.73832631386193 29.73832631386193 29.799853506683757 29.83061710309467 29.861380699505585 29.922907892327412 29.98443508514924 30.015198681560154 30.107489470792896 30.199780260025637 30.23054385643655 30.322834645669293 30.415125434902034 30.445889031312948 30.507416224134772 30.5689434169566 30.630470609778428 30.72276139901117 30.784288591832997 30.845815784654825 30.907342977476652 30.938106573887566 31.030397363120308 31.06116095953122 31.153451748763963 31.184215345174877 31.245742537996705 31.27650613440762 31.307269730818533 31.36879692364036 31.461087712873102 31.522614905694926 31.614905694927668 31.676432887749495 31.79948727339315 31.95330525544772 32.07635964109137 32.19941402673503 32.38399560520051 32.507049990844166 32.660867972898735 32.814685954953305 32.93774034059696 33.12232191906244 33.30690349752793 33.55301226881524 33.79912104010255 33.983702618568024 34.29133858267716 34.69126533601904 34.8143197216627 35.337300860648234 35.46035524629189 35.76799121040103 36.13715436733199 36.41402673503021 36.84471708478301 37.306171030946714 37.64457059146676 38.13678813404138 38.59824208020509 39.028932429957884 39.55191356894342 39.921076725874386 40.444057864859914 40.997802600256364 41.42849295000916 42.04376487822743 42.505218824391136 43.18201794543124 43.85881706647134 44.4433253982787 44.99707013367515 45.5508148690716 45.735396447537084 46.25837758652261 46.750595129097235 47.304339864493684 47.73503021424648 48.04266617835561 48.53488372093023 48.99633766709394 49.427028016846734 49.73466398095587 49.95000915583226 50.22688152353049 50.50375389122871 50.74986266251602 51.18055301226882 51.488188976377955 51.61124336202161 51.826588536898 52.011170115363484 52.288042483061716 52.59567844717085 52.78026002563632 52.96484160410181 53.118659586156376 53.48782274308734 53.67240432155283 53.918513092840136 54.2876762497711 54.5030214246475 54.77989379234572 54.872184581578466 55.05676616004395 55.27211133492034 55.51822010620765 55.76432887749496 55.97967405237136 56.225782823658676 56.441127998535066 56.68723676982238 56.964109137520595 57.179454312397 57.36403589086248 57.517853872917044 57.763962644204355 57.97930781908075 58.22541659036806 58.47152536165537 58.65610694012086 58.93297930781908 59.086797289873644 59.332906061160955 59.51748763962644 59.76359641091375 59.91741439296832 60.132759567844715 60.28657754989928 60.47115912836477 60.71726789965207 60.87108588170665 61.055667460172124 61.240249038637614 61.36330342428126 61.547885002746746 61.73246658121223 61.97857535249954 62.16315693096502 62.31697491301959 62.44002929866325 62.62461087712873 62.74766526277239 62.870719648416035 62.901483244826956 63.024537630470604 63.11682841970335 63.17835561252517 63.27064640175792 63.33217359457974 63.36293719099066 63.4552279802234 63.516755173045226 63.60904596227797 63.70133675151071 63.76286394433254 63.824391137154365 63.85515473356528 63.88591832997619 63.978209119208934 64.00897271561985 64.03973631203075 64.1012635048526 64.1320271012635 64.22431789049625 64.28584508331807 64.37813587255081 64.47042666178355 64.50119025819447 64.59348104742722 64.65500824024903 64.71653543307087 64.77806262589269 64.83958981871451 64.87035341512544 64.93188060794725 64.99340780076909 65.02417139718 65.0549349935909 65.0549349935909 65.11646218641275 65.14722578282365 65.14722578282365 65.17798937923456 65.20875297564548 65.2395165720564 65.2395165720564 65.30104376487822 65.30104376487822 65.33180736128914 65.39333455411096 65.39333455411096 65.42409815052187 65.48562534334371 65.51638893975462 65.54715253616553 65.54715253616553 65.57791613257645 65.60867972898737 65.63944332539828 65.63944332539828 65.7009705182201 65.73173411463102 65.73173411463102 65.73173411463102 65.79326130745284 65.79326130745284 65.79326130745284 65.82402490386376 65.82402490386376 65.85478850027468 65.85478850027468 65.88555209668559 65.88555209668559 65.9163156930965 65.9163156930965 65.9163156930965 65.9163156930965 65.9163156930965 65.97784288591834 66.00860648232924 66.03937007874015 66.03937007874015 66.03937007874015 66.07013367515107 66.07013367515107 66.07013367515107 66.10089727156199 66.10089727156199 66.10089727156199 66.10089727156199 66.10089727156199 66.10089727156199 66.10089727156199 66.10089727156199 66.10089727156199 66.10089727156199 66.10089727156199 66.10089727156199 66.10089727156199 66.10089727156199 66.10089727156199 66.1316608679729 66.1316608679729 66.1624244643838 66.1316608679729 66.1624244643838 66.1624244643838 66.1624244643838 66.1624244643838 66.1624244643838 66.1624244643838 66.1624244643838 66.1624244643838 66.19318806079472 66.19318806079472 66.19318806079472 66.19318806079472 66.19318806079472 66.19318806079472 66.22395165720565 66.22395165720565 66.22395165720565 66.19318806079472 66.19318806079472 66.1624244643838 66.1316608679729 66.10089727156199 66.07013367515107 66.07013367515107 66.03937007874015 66.03937007874015 66.03937007874015 66.00860648232924 66.00860648232924 66.00860648232924 65.97784288591834 66.00860648232924 66.00860648232924 65.97784288591834 65.97784288591834 66.00860648232924 65.97784288591834 65.97784288591834 65.97784288591834 65.97784288591834 65.97784288591834 65.97784288591834 65.97784288591834 65.97784288591834 65.97784288591834 65.97784288591834 65.97784288591834 