25.0 25.0 25.0 25.0 25.0 25.0 25.0 25.0 25.0 25.0 25.0 25.0 25.0 25.0 25.0 25.0 25.0 25.0 25.0 25.0 25.0 25.0 25.0 25.0 25.0 25.0 25.0 25.0 25.0 25.0 25.0 25.0 25.0 25.0 25.0 25.0 25.0 25.0 25.0 25.0 25.0 25.0 25.0 25.0 25.0 25.0 25.0 25.0 25.0 25.0 25.0 25.0 25.0 25.0 25.0 24.978026002563634 25.0 25.0 25.0 25.0 25.0 25.0 25.0 25.0 25.0 25.0 25.0 25.0 25.0 25.0 25.0 25.0 25.0 25.0 25.0 25.0 25.0 25.0 25.0 25.0 25.0 25.0 25.0 25.0 25.0 25.0 25.0 25.0 25.0 25.0 25.0 25.0 25.0 25.0 25.0 25.0 25.0 25.0 25.0 25.0 25.0 25.0 24.978026002563634 25.0 25.0 25.0 25.0 25.0 25.0 25.0 25.0 25.0 25.0 25.0 25.0 25.0 25.0 25.0 25.0 25.0 25.0 25.0 25.0 24.978026002563634 25.0 25.0 25.0 25.0 25.0 25.0 24.978026002563634 25.0 25.0 25.0 25.0 25.0 25.0 25.0 25.0 25.0 25.0 25.0 25.0 25.0 25.0 25.0 25.0 25.0 25.0 25.0 25.0 25.0 25.0 25.0 25.0 25.0 25.0 25.0 25.0 25.0 25.0 25.0 25.0 25.0 25.0 25.0 25.0 25.0 25.0 25.0 25.0 25.0 25.0 25.0 25.0 25.0 25.0 25.0 25.0 25.0 24.978026002563634 25.0 25.0 25.0 25.0 25.0 25.0 25.0 25.0 25.0 25.0 25.0 25.0 25.0 25.0 25.0 25.0 25.0 25.0 25.0 25.0 25.0 25.0 25.0 25.0 25.0 25.0 25.0 25.0 25.0 25.0 25.0 25.0 25.0 25.0 25.0 25.0 25.0 25.0 25.0 25.0 25.0 25.0 25.0 25.0 25.0 25.0 25.0 25.0 25.0 25.0 25.0 25.0 25.0 25.0 25.0 25.0 25.0 25.0 25.0 25.0 25.0 25.0 25.0 25.0 25.0 25.0 25.0 25.0 25.0 25.0 25.0 25.021973997436366 25.0 25.021973997436366 25.0 25.0 25.0 25.0 25.0 25.0 25.021973997436366 25.0 25.0 25.0 25.0 25.0 25.0 25.0 25.0 25.0 25.0 25.0 25.0 25.0 25.0 25.0 25.0 25.0 25.0 25.0 25.0 25.0 25.0 25.0 25.0 25.0 25.021973997436366 25.0 25.0 25.0 25.0 25.0 25.021973997436366 25.0 25.0 25.0 25.0 25.021973997436366 25.0 25.0 25.0 25.0 25.021973997436366 25.0 25.0 25.0 25.021973997436366 25.0 25.0 25.0 25.0 25.0 25.0 25.0 25.0 25.021973997436366 25.0 25.0 25.021973997436366 25.0 25.0 25.0 25.021973997436366 25.0 25.0 25.0 25.0 25.021973997436366 25.0 25.0 25.0 25.0 25.021973997436366 25.0 25.0 25.0 25.021973997436366 25.0 25.0 25.0 25.0 25.0 25.0 25.0 25.0 25.0 25.0 25.0 25.0 25.0 25.0 25.0 25.0 25.0 25.0 25.0 25.0 25.0 25.0 25.0 25.0 25.0 25.0 25.0 25.0 25.0 25.0 25.0 25.0 25.0 25.0 25.0 25.0 25.0 25.0 25.0 25.0 25.0 25.0 25.0 25.021973997436366 25.021973997436366 25.0 25.0 25.0 25.0 25.0 25.0 25.0 25.0 25.021973997436366 25.0 25.0 25.0 25.0 25.0 25.021973997436366 25.0 25.0 25.0 25.021973997436366 25.021973997436366 25.021973997436366 25.021973997436366 25.0 25.0 25.0 25.0 25.0 25.0 25.0 25.0 25.0 25.0 25.021973997436366 25.0 25.021973997436366 25.021973997436366 25.0 25.021973997436366 25.0 25.0 25.021973997436366 25.021973997436366 25.021973997436366 25.0 25.0 25.021973997436366 25.021973997436366 25.0 25.0 25.0 25.0 25.0 25.0 25.0 25.0 25.0 25.0 25.021973997436366 25.0 25.0 25.021973997436366 25.0 25.021973997436366 25.021973997436366 25.0 25.0 25.0 25.0 25.021973997436366 25.0 25.021973997436366 25.0 25.021973997436366 25.0 25.0 25.021973997436366 25.0 25.0 25.0 25.0 25.021973997436366 25.021973997436366 25.021973997436366 25.021973997436366 25.0 25.0 25.0 25.0 25.021973997436366 25.0 25.021973997436366 25.0 25.0 25.0 25.0 25.021973997436366 25.021973997436366 25.0 25.021973997436366 25.0 25.021973997436366 25.021973997436366 25.0 25.0 25.021973997436366 25.0 25.0 25.0 25.021973997436366 25.021973997436366 25.021973997436366 25.0 25.021973997436366 25.021973997436366 25.0 25.021973997436366 25.0 25.0 25.021973997436366 25.021973997436366 25.0 25.0 25.0 25.0 25.0 25.0 25.021973997436366 25.0 25.0 25.0 25.0 25.0 25.0 25.0 25.0 25.0 25.0 25.0 25.0 25.0 25.0 25.0 25.021973997436366 25.0 25.0 25.0 25.0 25.0 25.021973997436366 25.0 25.0 25.021973997436366 25.0 25.0 25.0 25.0 25.0 25.0 25.021973997436366 25.0 25.021973997436366 25.0 25.0 25.0 25.0 25.0 25.0 25.0 25.0 25.021973997436366 25.021973997436366 25.0 25.0 25.0 25.0 25.0 25.0 25.021973997436366 25.021973997436366 25.021973997436366 25.021973997436366 25.021973997436366 25.021973997436366 25.0 25.0 25.0 25.0 25.0 25.0 25.0 25.021973997436366 25.0 25.0 25.0 25.0 25.0 25.0 25.0 25.0 25.0 25.0 25.0 25.0 25.0 25.0 25.0 25.0 25.0 25.0 25.0 25.0 25.0 25.0 25.0 24.978026002563634 25.0 25.0 25.021973997436366 25.0 25.0 25.0 25.0 25.0 25.021973997436366 25.0 25.0 25.0 25.0 25.0 25.0 25.0 25.0 25.0 25.0 25.0 25.0 25.0 25.0 25.0 25.0 25.0 25.0 25.0 25.0 25.0 25.0 25.0 25.0 25.0 25.0 25.0 25.0 25.0 25.0 25.0 25.0 25.0 25.0 25.0 25.0 25.0 25.0 25.0 25.0 25.0 25.0 25.0 25.0 25.0 25.0 25.0 25.0 25.0 25.021973997436366 25.021973997436366 25.043947994872735 25.0659219923091 25.109869987181835 25.175791979490935 25.241713971800035 25.329609961545504 25.461453946163708 25.615271928218274 25.791063907709212 26.01080388207288 26.252517853872916 26.538179820545686 26.867789782091194 27.263321735945798 27.658853689800402 28.18622962827321 28.75755356161875 29.328877494964292 29.9221754257462 30.493499359091743 31.108771287310017 31.72404321552829 32.33931514374657 32.97656106940121 33.54788500274675 34.16315693096502 34.62461087712873 35.17396081303791 35.72331074894708 36.20673869254715 36.712140633583594 37.1735945797473 37.65702252334737 38.14045046694744 38.64585240798389 39.12928035158396 39.612708295184035 40.118110236220474 40.73338216443875 41.19483611060245 41.87603003112983 42.57919794909357 43.040651895257284 43.699871818348285 44.3590917414393 45.36989562351218 46.402673503021425 47.1497894158579 48.29243728254899 49.50100714154917 50.42391503387658 51.98406885185864 52.797106757004215 53.566196667277055 54.70884453396813 55.85149240065922 56.554660318622965 57.56546420069584 58.55429408533236 59.54312396996887 60.136421900750776 60.75169382896905 61.96026368796924 62.487639626442046 63.344625526460355 64.1796374290423 64.7729353598242 65.69584325215162 66.33308917780627 67.29994506500641 68.39864493682475 69.21168284197034 70.31038271378868 71.91448452664348 72.35396447537082 73.3647683574437 74.41952023438931 75.07874015748033 76.02362204724409 76.63889397546237 77.80351583958982 78.39681377037172 78.92418970884452 79.93499359091741 80.44039553195387 80.92382347555393 81.84673136788135 82.30818531404505 82.96740523713606 83.40688518586339 84.0001831166453 84.59348104742722 85.01098699871818 85.56033693462736 86.10968687053654 86.5271928218275 87.12049075260941 87.55997070133675 88.37300860648233 88.81248855520967 89.22999450650065 89.93316242446438 90.52646035524629 90.94396630653726 91.64713422450102 92.02069218091924 92.24043215528292 92.41622413477386 92.48214612708296 92.50412012451932 92.48214612708296 92.41622413477386 92.26240615271928 92.02069218091924 91.60318622962828 91.1197582860282 90.61435634499176 90.17487639626442 89.64750045779161 89.22999450650065 88.592748580846 88.13129463468229 87.18641274491851 86.46127082951841 85.97784288591834 85.25270097051822 84.74729902948178 84.21992309100898 83.12122321919063 82.44002929866325 81.60501739608131 80.70408350119027 80.04486357809925 79.09998168833548 78.46273576268084 77.53982787035342 76.57297198315328 75.93572605749863 74.94689617286213 73.95806628822561 73.25489837026186 71.78264054202528 71.27723860098882 70.35433070866142 69.45339681377037 68.81615088811573 67.76139901117011 66.66269913935176 66.04742721113348 65.14649331624244 64.61911737776964 63.89397546236953 62.88317158029665 61.89434169566014 60.90551181102362 59.938655923823475 59.2574620032961 58.26863211865959 57.63138619300494 56.64255630836843 55.58780443142282 54.88463651345907 53.851858633949824 52.95092473905878 52.291704815967776 51.36879692364036 50.73155099798572 49.874565097967405 49.105475187694566 48.55612525178539 47.76506134407617 46.995971433803334 46.248855520966856 45.52371360556674 45.04028566196667 44.60080571323933 43.699871818348285 43.238417872184584 42.667093938839045 42.11774400292987 41.56839406702069 41.23878410547519 40.88720014649331 40.403772202893244 39.898370261856805 39.5687603003113 39.107306354147596 38.68980040285662 38.42611243362022 38.00860648232924 37.74491851309284 37.3713605566746 36.997802600256364 36.73411463101996 36.272660684856255 36.07489470792895 35.85515473356528 35.48159677714705 35.28383080021974 35.10803882072881 34.75645486174693 34.55868888481963 34.29500091558323 34.11920893609229 33.855520966855885 33.591832997619484 33.39406702069218 33.108405054019414 32.82274308734664 32.62497711041934 32.33931514374657 32.14154916681926 31.74601721296466 31.46035524629189 31.35048525911005 31.08679728987365 30.823109320637247 30.625343343709943 30.273759384728073 30.07599340780077 29.834279436000735 29.61453946163706 29.48269547701886 29.328877494964292 29.131111518036988 29.021241530855153 28.933345541109688 28.867423548800588 28.77952755905512 28.62570957700055 28.55978758469145 28.47189159494598 28.38399560520051 28.296099615455045 28.18622962827321 28.09833363852774 27.922541659036806 27.74674967954587 27.527009705182202 27.461087712873102 27.263321735945798 27.131477751327594 26.95568577183666 26.73594579747299 26.626075810291155 26.494231825672955 26.38436183849112 26.36238784105475 26.36238784105475 26.340413843618386 26.340413843618386 26.36238784105475 26.36238784105475 26.36238784105475 26.36238784105475 26.318439846182017 26.252517853872916 26.164621864127447 26.07672587438198 26.032777879509247 25.966855887200147 25.966855887200147 25.966855887200147 25.966855887200147 25.988829884636512 25.988829884636512 25.944881889763778 25.944881889763778 25.944881889763778 25.944881889763778 25.944881889763778 25.922907892327412 25.944881889763778 25.944881889763778 25.944881889763778 25.922907892327412 25.944881889763778 25.944881889763778 25.922907892327412 25.922907892327412 25.944881889763778 25.944881889763778 25.922907892327412 25.944881889763778 25.922907892327412 25.922907892327412 25.922907892327412 25.922907892327412 25.922907892327412 25.944881889763778 25.922907892327412 25.922907892327412 25.922907892327412 25.922907892327412 25.922907892327412 25.900933894891047 25.900933894891047 25.900933894891047 25.900933894891047 25.900933894891047 25.900933894891047 25.900933894891047 25.900933894891047 25.900933894891047 25.900933894891047 25.878959897454678 25.878959897454678 25.878959897454678 25.900933894891047 25.878959897454678 25.900933894891047 25.878959897454678 25.878959897454678 25.878959897454678 25.878959897454678 25.878959897454678 25.878959897454678 25.878959897454678 25.878959897454678 25.878959897454678 25.878959897454678 25.878959897454678 25.878959897454678 25.900933894891047 25.878959897454678 25.878959897454678 25.878959897454678 25.878959897454678 25.878959897454678 25.878959897454678 25.878959897454678 25.878959897454678 25.900933894891047 25.878959897454678 25.878959897454678 25.878959897454678 25.878959897454678 25.900933894891047 25.878959897454678 25.878959897454678 25.878959897454678 25.878959897454678 25.878959897454678 25.878959897454678 25.878959897454678 25.878959897454678 25.878959897454678 25.900933894891047 25.878959897454678 25.878959897454678 25.878959897454678 25.878959897454678 25.878959897454678 25.878959897454678 25.878959897454678 25.878959897454678 25.900933894891047 25.878959897454678 25.878959897454678 25.900933894891047 25.878959897454678 25.900933894891047 25.878959897454678 25.878959897454678 25.900933894891047 25.878959897454678 25.878959897454678 25.878959897454678 25.900933894891047 25.900933894891047 25.878959897454678 25.900933894891047 25.900933894891047 25.900933894891047 25.900933894891047 25.878959897454678 25.878959897454678 25.900933894891047 25.878959897454678 25.878959897454678 25.878959897454678 25.878959897454678 25.878959897454678 25.878959897454678 25.878959897454678 25.900933894891047 25.900933894891047 25.878959897454678 25.878959897454678 25.878959897454678 25.878959897454678 25.878959897454678 25.878959897454678 25.900933894891047 25.878959897454678 25.878959897454678 25.900933894891047 25.900933894891047 25.878959897454678 25.900933894891047 25.878959897454678 25.878959897454678 25.878959897454678 25.878959897454678 25.900933894891047 25.900933894891047 25.878959897454678 25.900933894891047 25.878959897454678 25.878959897454678 25.878959897454678 25.900933894891047 25.878959897454678 25.878959897454678 25.878959897454678 25.900933894891047 25.878959897454678 25.878959897454678 25.878959897454678 25.900933894891047 25.900933894891047 25.900933894891047 25.900933894891047 25.878959897454678 25.900933894891047 25.900933894891047 25.878959897454678 25.900933894891047 25.900933894891047 25.900933894891047 25.900933894891047 25.900933894891047 25.878959897454678 25.900933894891047 25.900933894891047 25.878959897454678 25.900933894891047 25.900933894891047 25.900933894891047 25.900933894891047 25.900933894891047 25.878959897454678 25.900933894891047 25.878959897454678 25.900933894891047 25.878959897454678 25.900933894891047 25.900933894891047 25.900933894891047 25.878959897454678 25.878959897454678 25.900933894891047 25.878959897454678 25.878959897454678 25.878959897454678 25.900933894891047 25.900933894891047 25.878959897454678 25.878959897454678 25.878959897454678 25.878959897454678 25.900933894891047 25.878959897454678 25.900933894891047 25.878959897454678 25.900933894891047 25.900933894891047 25.878959897454678 25.900933894891047 25.878959897454678 25.900933894891047 25.922907892327412 25.944881889763778 25.988829884636512 26.01080388207288 26.14264786669108 26.340413843618386 26.538179820545686 26.88976377952756 27.219373741073063 27.724775682109502 28.31807361289141 28.71360556674602 29.328877494964292 29.966123420618935 30.58139534883721 30.998901300128182 31.482329243728255 32.0536531770738 32.69089910272844 33.130379051455776 34.05328694378319 34.40487090276506 34.82237685405603 35.63541475920161 36.052920710492586 36.668192638710856 37.195568577183664 37.54715253616554 38.07452847463834 38.49203442592932 38.97546236952939 39.5687603003113 40.008240249038636 40.62351217725691 41.26075810291155 41.74418604651163 42.38143197216627 42.842885918329976 43.54605383629372 44.24922175425746 44.73264969785754 45.63358359274858 46.358725508148694 46.86412744918513 47.63321735945797 48.16059329793078 48.75389122871269 49.852591100531036 50.445889031312944 51.30287493133126 52.11591283647684 52.68723676982238 53.52224867240432 54.11554660318623 54.90661051089544 55.74162241347739 56.312946346822926 57.169932246841235 58.02691814685955 58.90587804431423 59.784837941768906 60.224317890496245 60.97143380333272 61.82841970335103 62.42171763413294 63.586339498260394 64.46529939571508 65.05859732649698 65.95953122138803 66.55282915216993 67.1681010803882 68.39864493682475 69.01391686504303 69.98077275224318 70.88170664713422 71.51895257278886 72.44186046511629 73.32082036257097 73.91411829335286 74.79307819080753 75.38637612158945 76.2213880241714 77.0783739241897 77.60574986266252 78.66050173960812 79.18787767808094 79.671305621681 80.37447353964475 80.85790148324483 81.56106940120857 82.06647134224502 82.9454312396997 83.62662516022706 84.0661051089544 84.50558505768174 85.3405969602637 85.8020509064274 86.28547885002747 86.63706280900934 87.12049075260941 87.55997070133675 87.80168467313679 88.04339864493683 88.19721662699139 88.21919062442777 88.21919062442777 88.21919062442777 87.99945065006409 87.64786669108221 87.16443874748215 86.83482878593665 86.28547885002747 85.91192089360922 85.12085698590002 84.87914301409998 84.02215711408166 83.36293719099066 82.63779527559055 82.37410730635415 81.45119941402675 80.92382347555393 80.22065555759019 79.51748763962644 79.01208569859 78.26496978575352 77.73759384728072 77.03442592931697 76.0895440395532 75.6940120856986 75.12268815235305 74.63926020875297 73.67240432155283 73.14502838308002 72.61765244460722 71.91448452664348 71.2332906061161 70.70591466764328 69.65116279069767 69.21168284197034 68.42061893426111 67.60758102911555 67.03625709577 66.15729719831532 65.30031129829702 64.641091375206 63.87200146493316 63.300677531587624 62.487639626442046 61.41091375206006 60.83958981871452 60.312213880241714 59.718915949459806 58.94982603918696 58.18073612891412 57.71928218275041 56.796374290423 56.13715436733199 55.71964841604102 55.25819446987731 54.84068851858634 54.18146859549533 53.258560703167916 52.797106757004215 52.04999084416774 51.34682292620399 50.84142098516755 50.094305072331075 49.63285112616737 48.97363120307636 48.31441127998535 47.89690532869437 47.23768540560337 46.534517487639626 45.80937557223952 45.10620765427578 44.60080571323933 44.11737776963926 43.52407983885735 43.040651895257284 42.293535982420806 41.28273210034792 40.77733015931148 40.118110236220474 39.854422266984066 39.28309833363853 38.51400842336568 38.16242446438381 37.67899652078374 37.3054385643655 37.08569859000183 36.822010620765425 36.668192638710856 36.44845266434719 36.22871268998352 36.03094671305622 35.87712873100165 35.67936275407435 35.50357077458341 35.19593481047427 35.02014283098333 34.82237685405603 34.60263687969236 34.40487090276506 34.09723493865592 33.657754989928584 33.438015015564915 33.086431056583045 32.82274308734664 32.581029115546606 32.09760117194653 31.855887200146494 31.548251236037355 31.37245925654642 31.15271928218275 30.911005310382713 30.823109320637247 30.713239333455412 30.603369346273574 30.51547335652811 30.405603369346274 30.339681377037174 30.22981138985534 30.119941402673504 30.054019410364404 29.9221754257462 29.812305438564366 29.680461453946165 29.460721479582496 29.328877494964292 29.19703351034609 28.867423548800588 28.75755356161875 28.62570957700055 28.40596960263688 28.27412561801868 28.076359641091376 27.944515656473172 27.768723676982237 27.592931697491302 27.461087712873102 27.307269730818533 27.087529756454863 27.02160776414576 26.80186778978209 26.713971800036624 26.51620582310932 26.340413843618386 26.23054385643655 26.120673869254716 25.966855887200147 25.878959897454678 25.769089910272843 25.769089910272843 25.791063907709212 25.813037905145578 25.813037905145578 25.813037905145578 25.769089910272843 25.769089910272843 25.769089910272843 25.769089910272843 25.769089910272843 25.769089910272843 25.769089910272843 25.769089910272843 25.769089910272843 25.769089910272843 25.769089910272843 25.769089910272843 25.769089910272843 25.769089910272843 25.769089910272843 25.769089910272843 25.769089910272843 25.769089910272843 25.769089910272843 25.769089910272843 25.769089910272843 25.769089910272843 25.769089910272843 25.769089910272843 25.769089910272843 25.769089910272843 25.769089910272843 25.747115912836477 25.769089910272843 25.769089910272843 25.769089910272843 25.769089910272843 25.747115912836477 25.747115912836477 25.747115912836477 25.747115912836477 25.747115912836477 25.747115912836477 25.747115912836477 25.747115912836477 25.747115912836477 25.747115912836477 25.747115912836477 25.747115912836477 25.747115912836477 25.747115912836477 25.747115912836477 25.747115912836477 25.72514191540011 25.747115912836477 25.747115912836477 25.747115912836477 25.747115912836477 25.747115912836477 25.747115912836477 25.72514191540011 25.72514191540011 25.72514191540011 25.72514191540011 25.747115912836477 25.72514191540011 25.72514191540011 25.72514191540011 25.72514191540011 25.72514191540011 25.747115912836477 25.72514191540011 25.72514191540011 25.72514191540011 25.72514191540011 25.747115912836477 25.72514191540011 25.747115912836477 25.72514191540011 25.72514191540011 25.747115912836477 25.72514191540011 25.72514191540011 25.72514191540011 25.747115912836477 25.72514191540011 25.72514191540011 25.747115912836477 25.72514191540011 25.72514191540011 25.72514191540011 25.747115912836477 25.72514191540011 25.72514191540011 25.747115912836477 25.747115912836477 25.72514191540011 25.747115912836477 25.747115912836477 25.72514191540011 25.72514191540011 25.747115912836477 25.747115912836477 25.747115912836477 25.747115912836477 25.72514191540011 25.72514191540011 25.72514191540011 25.72514191540011 25.72514191540011 25.72514191540011 25.747115912836477 25.747115912836477 25.72514191540011 25.72514191540011 25.72514191540011 25.72514191540011 25.72514191540011 25.72514191540011 25.72514191540011 25.747115912836477 25.72514191540011 25.747115912836477 25.72514191540011 25.72514191540011 25.72514191540011 25.72514191540011 25.72514191540011 25.747115912836477 25.72514191540011 25.747115912836477 25.72514191540011 25.747115912836477 25.747115912836477 25.747115912836477 25.747115912836477 25.747115912836477 25.72514191540011 25.747115912836477 25.747115912836477 25.72514191540011 25.747115912836477 25.747115912836477 25.747115912836477 25.747115912836477 25.747115912836477 25.747115912836477 25.747115912836477 25.747115912836477 25.747115912836477 25.747115912836477 25.747115912836477 25.747115912836477 25.747115912836477 25.747115912836477 25.747115912836477 25.747115912836477 25.747115912836477 25.747115912836477 25.747115912836477 25.747115912836477 25.747115912836477 25.747115912836477 25.747115912836477 25.747115912836477 25.747115912836477 25.747115912836477 25.747115912836477 25.747115912836477 25.747115912836477 25.747115912836477 25.747115912836477 25.747115912836477 25.769089910272843 25.747115912836477 25.747115912836477 25.747115912836477 25.747115912836477 25.747115912836477 25.747115912836477 25.747115912836477 25.747115912836477 25.747115912836477 25.747115912836477 25.747115912836477 25.747115912836477 25.747115912836477 25.747115912836477 25.747115912836477 25.747115912836477 25.769089910272843 25.747115912836477 25.747115912836477 25.769089910272843 25.747115912836477 25.769089910272843 25.769089910272843 25.769089910272843 25.747115912836477 25.747115912836477 25.747115912836477 25.747115912836477 25.769089910272843 25.747115912836477 25.769089910272843 25.769089910272843 25.769089910272843 25.769089910272843 25.769089910272843 25.769089910272843 25.769089910272843 25.769089910272843 25.769089910272843 25.769089910272843 25.747115912836477 25.769089910272843 25.769089910272843 25.747115912836477 25.769089910272843 25.769089910272843 25.769089910272843 25.769089910272843 25.769089910272843 25.769089910272843 25.769089910272843 25.769089910272843 25.769089910272843 25.769089910272843 25.769089910272843 25.769089910272843 25.769089910272843 25.769089910272843 25.769089910272843 25.769089910272843 25.747115912836477 25.769089910272843 25.747115912836477 25.747115912836477 25.747115912836477 25.769089910272843 25.769089910272843 25.769089910272843 25.791063907709212 25.791063907709212 25.813037905145578 25.856985900018312 25.988829884636512 26.098699871818347 26.252517853872916 26.538179820545686 26.713971800036624 26.999633766709394 27.373191723127633 27.834645669291337 28.34004761032778 28.69163156930965 29.284929500091557 29.9221754257462 30.36165537447354 31.064823292437282 31.548251236037355 32.22944515656473 32.97656106940121 33.54788500274675 34.44881889763779 34.69053286943783 35.39370078740157 36.09686870536532 36.58029664896539 37.3054385643655 37.89873649514741 38.51400842336568 39.08533235671123 39.26112433620216 39.7665262772386 40.27192821827504 40.645486174693275 41.06299212598425 41.50247207471159 41.83208203625709 42.33748397729354 42.71104193371177 43.194469877311846 43.67789782091192 44.007507782457424 44.64475370811206 44.97436366965757 45.34792162607581 45.87529756454862 46.248855520966856 47.017945431239696 47.391503387657934 47.80900933894891 48.62204724409449 49.2812671671855 49.720747115912836 50.35799304156748 50.599707013367514 51.23695293902216 52.2038088262223 52.731184764695115 53.500274674967955 54.24739058780443 54.77476652627723 55.36806445705915 55.74162241347739 56.247024354513826 56.7304522981139 57.060062259659404 57.49954220838674 58.00494414942318 58.51034609045962 59.0596960263688 59.23548800585973 59.82878593664164 60.422083867423545 60.83958981871452 61.69657571873283 62.37776963926021 62.839223585423916 63.52041750595129 64.04779344442409 64.5092473905878 65.52005127266068 66.04742721113348 66.86046511627907 67.43178904962461 68.20087895989745 69.05786485991577 69.65116279069767 70.50814869071598 71.4310565830434 72.0243545138253 72.85936641640725 73.40871635231643 74.17780626258927 75.23255813953489 75.71598608313496 76.15546603186229 76.70481596777148 77.12232191906244 77.69364585240798 78.26496978575352 78.77037172678996 79.2757736678264 79.60538362937191 79.91301959348105 80.55026551913569 80.87987548068119 81.34132942684491 81.64896539095403 82.08844533968139 82.54989928584509 82.85753524995422 83.3409631935543 83.802417139718 84.1320271012635 84.5275590551181 84.79124702435452 85.14283098333638 85.56033693462736 85.75810291155466 85.95586888848196 86.1316608679729 86.21955685771837 86.35140084233657 86.35140084233657 86.35140084233657 86.35140084233657 86.30745284746384 86.1316608679729 85.75810291155466 85.56033693462736 85.16480498077274 84.85716901666362 84.46163706280902 84.0001831166453 83.67057315509979 83.14319721662699 82.57187328328145 82.19831532686322 81.64896539095403 81.25343343709943 80.50631752426295 80.13275956784472 79.60538362937191 79.12195568577184 78.8802417139718 78.4847097601172 77.80351583958982 77.47390587804432 76.99047793444424 76.52902398828054 76.19941402673503 75.73796008057133 75.45229811389855 75.03479216260759 74.63926020875297 74.33162424464385 73.93609229078925 73.54056033693463 73.2329243728255 72.63962644204358 72.46383446255265 71.95843252151622 71.4310565830434 71.05749862662516 69.78300677531587 69.60721479582494 68.94799487273393 68.66233290606115 68.17890496246109 67.58560703167919 66.59677714704267 66.1133492034426 65.34425929316976 64.59714338033328 64.09174143929684 63.10291155466032 62.839223585423916 62.13605566746017 61.38893975462369 60.86156381615089 60.246291887932614 59.60904596227797 58.9278520417506 58.18073612891412 57.69730818531404 57.191906244277604 56.532686321186596 56.07123237502289 55.21424647500458 54.57700054934993 54.11554660318623 53.54422266984069 53.126716718549716 52.731184764695115 51.91814685954954 51.50064090825856 50.86339498260392 50.226149056949275 49.83061710309467 49.303241164621866 48.73191723127633 48.38033327229445 47.85295733382164 47.43545138253067 46.886101446621495 46.468595495330526 45.853323567112255 45.04028566196667 44.60080571323933 44.139351767075624 43.45815784654825 42.71104193371177 42.24958798754807 41.76616004394799 40.93114814136605 40.315876213147774 39.920344259293174 39.524812305438566 38.75572239516572 38.40413843618385 37.85478850027467 37.5032045412928 37.063724592565464 36.624244643838125 36.360556674601725 35.986998718183486 35.52554477201978 35.41567478483794 35.13001281816517 34.95422083867423 34.73448086431057 34.49276689251053 34.29500091558323 34.11920893609229 33.89946896172862 33.74565097967405 33.416041018128546 33.218275041201245 32.932613074528476 32.69089910272844 32.53708112067387 32.33931514374657 32.03167917963743 31.833913202710125 31.57022523347372 31.394433253982786 31.108771287310017 30.801135323200878 30.603369346273574 30.317707379600805 30.010071415491666 29.812305438564366 29.54861746932796 29.372825489837027 29.043215528291523 28.889397546236953 28.75755356161875 28.49386559238235 28.34004761032778 28.208203625709576 27.96648965390954 27.856619666727706 27.658853689800402 27.461087712873102 27.329243728254898 27.131477751327594 27.02160776414576 26.88976377952756 26.73594579747299 26.648049807727524 26.538179820545686 26.318439846182017 26.120673869254716 26.01080388207288 25.856985900018312 25.769089910272843 25.747115912836477 25.72514191540011 25.747115912836477 25.747115912836477 25.747115912836477 25.72514191540011 25.747115912836477 25.747115912836477 25.747115912836477 25.72514191540011 25.72514191540011 25.747115912836477 25.747115912836477 25.747115912836477 25.72514191540011 25.72514191540011 25.72514191540011 25.72514191540011 25.747115912836477 25.747115912836477 25.747115912836477 25.72514191540011 25.72514191540011 25.747115912836477 25.747115912836477 25.72514191540011 25.747115912836477 25.747115912836477 25.747115912836477 25.747115912836477 25.747115912836477 25.747115912836477 25.747115912836477 25.747115912836477 25.747115912836477 25.747115912836477 25.747115912836477 25.747115912836477 25.747115912836477 25.747115912836477 25.747115912836477 25.72514191540011 25.72514191540011 25.72514191540011 25.747115912836477 25.72514191540011 25.747115912836477 25.747115912836477 25.747115912836477 25.747115912836477 25.747115912836477 25.747115912836477 25.747115912836477 25.747115912836477 25.747115912836477 25.747115912836477 25.747115912836477 25.747115912836477 25.747115912836477 25.747115912836477 25.747115912836477 25.747115912836477 25.747115912836477 25.747115912836477 25.747115912836477 25.747115912836477 25.747115912836477 25.747115912836477 25.747115912836477 25.747115912836477 25.747115912836477 25.747115912836477 25.747115912836477 25.747115912836477 25.747115912836477 25.747115912836477 25.747115912836477 25.747115912836477 25.747115912836477 25.747115912836477 25.747115912836477 25.747115912836477 25.747115912836477 25.747115912836477 25.747115912836477 25.747115912836477 25.747115912836477 25.769089910272843 25.769089910272843 25.747115912836477 25.769089910272843 25.747115912836477 25.747115912836477 25.747115912836477 25.747115912836477 25.769089910272843 25.769089910272843 25.769089910272843 25.769089910272843 25.769089910272843 25.769089910272843 25.769089910272843 25.769089910272843 25.769089910272843 25.769089910272843 25.769089910272843 25.769089910272843 25.769089910272843 25.769089910272843 25.769089910272843 25.769089910272843 25.769089910272843 25.769089910272843 25.769089910272843 25.769089910272843 25.769089910272843 25.747115912836477 25.747115912836477 25.769089910272843 25.747115912836477 25.747115912836477 25.747115912836477 25.769089910272843 25.747115912836477 25.769089910272843 25.747115912836477 25.769089910272843 25.769089910272843 25.747115912836477 25.747115912836477 25.769089910272843 25.769089910272843 25.769089910272843 25.747115912836477 25.769089910272843 25.769089910272843 25.769089910272843 25.769089910272843 25.747115912836477 25.769089910272843 25.769089910272843 25.747115912836477 25.769089910272843 25.747115912836477 25.747115912836477 25.769089910272843 25.769089910272843 25.769089910272843 25.769089910272843 25.769089910272843 25.747115912836477 25.769089910272843 25.747115912836477 25.747115912836477 25.747115912836477 25.747115912836477 25.747115912836477 25.769089910272843 25.769089910272843 25.747115912836477 25.747115912836477 25.769089910272843 25.747115912836477 25.769089910272843 25.747115912836477 25.769089910272843 25.769089910272843 25.747115912836477 25.747115912836477 25.747115912836477 25.747115912836477 25.747115912836477 25.769089910272843 25.769089910272843 25.747115912836477 25.747115912836477 25.747115912836477 25.769089910272843 25.769089910272843 25.747115912836477 25.747115912836477 25.769089910272843 25.747115912836477 25.747115912836477 25.769089910272843 25.769089910272843 25.769089910272843 25.769089910272843 25.769089910272843 25.769089910272843 25.769089910272843 25.769089910272843 25.769089910272843 25.769089910272843 25.769089910272843 25.769089910272843 25.769089910272843 25.769089910272843 25.769089910272843 25.769089910272843 25.769089910272843 25.769089910272843 25.769089910272843 25.769089910272843 25.769089910272843 25.769089910272843 25.769089910272843 25.769089910272843 25.769089910272843 25.769089910272843 25.769089910272843 25.769089910272843 25.769089910272843 25.769089910272843 25.769089910272843 25.769089910272843 25.791063907709212 25.791063907709212 25.791063907709212 25.813037905145578 25.835011902581943 25.856985900018312 25.944881889763778 26.120673869254716 26.274491851309286 26.67002380516389 26.88976377952756 27.17542574620033 27.548983702618568 27.96648965390954 28.25215162058231 28.823475553927853 29.175059512909723 29.570591466764327 29.812305438564366 30.185863394982604 30.691265336019043 31.21864127449185 31.921809192455594 32.27339315143747 32.66892510529207 33.262223036073976 33.877494964292254 34.25105292071049 34.86632484892877 35.26185680278337 36.052920710492586 36.470426661783556 36.865958615638164 37.7009705182201 37.98663248489288 38.53598242080205 39.173228346456696 39.8324482695477 40.27192821827504 41.12891411829335 41.65629005676616 42.31550997985717 42.667093938839045 43.52407983885735 44.2931697491302 44.84251968503937 45.65555759018495 46.51254349020326 47.127815418421534 48.00677531587621 48.64402124153085 49.852591100531036 50.55575901849478 51.28090093389489 52.18183482878594 53.214612708295185 53.93975462369529 55.30214246475005 56.312946346822926 56.620582310932065 57.58743819813221 58.22468412378685 59.4552279802234 60.378135872550814 61.05932979307819 61.89434169566014 62.487639626442046 63.036989562351216 64.1137154367332 64.61911737776964 65.43215528291522 66.1133492034426 66.5748031496063 67.27797106757004 67.73942501373375 68.42061893426111 69.03589086247939 69.54129280351583 70.15656473173412 70.68394067020692 71.54092657022522 72.17817249587988 72.61765244460722 73.05713239333456 73.71635231642557 74.13385826771653 74.90294817798939 75.27650613440761 75.80388207288043 76.28731001648049 76.616919978026 76.92455594213514 77.58377586522616 77.86943783189892 78.2869437831899 78.57260574986266 79.01208569859 79.49551364219008 79.75920161142648 80.02288958066288 80.39644753708112 80.70408350119027 81.05566746017213 81.45119941402675 81.82475737044497 82.19831532686322 82.44002929866325 82.70371726789965 83.01135323200879 83.23109320637246 83.64859915766343 83.84636513459074 84.1320271012635 84.37374107306354 84.50558505768174 84.63742904229994 84.76927302691814 84.79124702435452 84.81322102179088 84.79124702435452 84.79124702435452 84.74729902948178 84.61545504486358 84.3957150704999 84.17597509613624 84.0001831166453 83.71452114997254 83.51675517304523 83.09924922175426 82.76963926020875 82.52792528840871 82.15436733199049 81.84673136788135 81.60501739608131 81.18751144479035 81.03369346273576 80.52829152169933 80.11078557040835 79.80314960629921 79.34169566013551 79.03405969602638 78.5506317524263 78.0891778062626 77.75956784471708 77.29811389855337 76.83665995238968 76.4850759934078 75.97967405237137 75.65006409082585 75.14466214978941 74.61728621131661 74.28767624977111 73.73832631386193 73.29884636513458 72.77147042666178 72.11225050357078 71.78264054202528 71.54092657022522 70.77183665995238 70.44222669840688 69.73905878044314 69.34352682658854 68.99194286760667 68.59641091375207 68.24482695477019 67.82732100347921 67.34389305987915 66.97033510346091 66.4429591649881 65.717817249588 65.52005127266068 64.9047793444424 64.46529939571508 63.850027467496794 63.212781541842155 62.75132759567845 61.8503937007874 61.19117377769639 60.729719831532684 60.04852591100531 59.54312396996887 59.08167002380517 58.22468412378685 57.74125618018678 57.016114264786665 56.312946346822926 55.80754440578649 54.86266251602271 54.4671305621681 53.91778062625893 53.236586705731554 52.81908075444058 52.18183482878594 51.32484892876762 50.643655008240245 50.138253067203806 49.76469511078557 49.32521516205823 48.75389122871269 48.35835927485809 47.47939937740341 47.391503387657934 46.820179454312395 46.292803515839594 45.985167551730456 45.67753158762132 45.15015564914851 44.8864676799121 44.4909357260575 44.24922175425746 43.87566379783922 43.54605383629372 43.194469877311846 42.996703900384546 42.68906793627541 42.33748397729354 42.11774400292987 41.89800402856619 41.59036806445706 41.34865409265702 41.19483611060245 41.04101812854789 40.79930415674785 40.645486174693275 40.42574620032961 40.096136238784105 39.942318256729536 39.678630287493135 39.5028383080022 39.21717634132943 38.90954037722029 38.66782640542025 38.33821644387475 38.09650247207471 37.65702252334737 37.34938655923823 37.1076725874382 36.822010620765425 36.492400659219925 36.272660684856255 36.00897271561985 35.72331074894708 35.54751876945615 35.32777879509247 35.15198681560154 34.99816883354697 34.82237685405603 34.7125068668742 34.42684490020143 34.29500091558323 34.075260941219554 33.767624977110415 33.657754989928584 33.350119025819446 33.086431056583045 32.866691082219376 32.55905511811024 32.36128914118294 32.0536531770738 31.74601721296466 31.52627723860099 31.196667277055482 30.976927302691813 30.669291338582678 30.339681377037174 30.032045412928035 29.746383446255265 29.570591466764327 29.394799487273392 29.087163523164257 29.021241530855153 28.867423548800588 28.669657571873284 28.581761582127815 28.427943600073245 28.34004761032778 28.25215162058231 28.12030763596411 28.03241164621864 27.90056766160044 27.768723676982237 27.68082768723677 27.570957700054933 27.395165720564 27.395165720564 27.329243728254898 27.285295733382164 27.219373741073063 27.153451748763963 27.087529756454863 26.999633766709394 26.911737776963925 26.82384178721846 26.67002380516389 26.538179820545686 26.42830983336385 26.14264786669108 25.966855887200147 25.791063907709212 25.747115912836477 25.72514191540011 25.72514191540011 25.747115912836477 25.72514191540011 25.72514191540011 25.72514191540011 25.747115912836477 25.72514191540011 25.747115912836477 25.72514191540011 25.72514191540011 25.72514191540011 25.72514191540011 25.72514191540011 25.72514191540011 25.72514191540011 25.72514191540011 25.747115912836477 25.72514191540011 25.72514191540011 25.72514191540011 25.72514191540011 25.747115912836477 25.72514191540011 25.72514191540011 25.72514191540011 25.72514191540011 25.72514191540011 25.72514191540011 25.72514191540011 25.72514191540011 25.72514191540011 25.72514191540011 25.72514191540011 25.747115912836477 25.72514191540011 25.72514191540011 25.72514191540011 25.72514191540011 25.72514191540011 25.72514191540011 25.747115912836477 25.72514191540011 25.72514191540011 25.72514191540011 25.72514191540011 25.747115912836477 25.747115912836477 25.747115912836477 25.72514191540011 25.72514191540011 25.72514191540011 25.72514191540011 25.72514191540011 25.72514191540011 25.72514191540011 25.72514191540011 25.72514191540011 25.72514191540011 25.72514191540011 25.72514191540011 25.72514191540011 25.72514191540011 25.72514191540011 25.72514191540011 25.72514191540011 25.72514191540011 25.72514191540011 25.72514191540011 25.72514191540011 25.72514191540011 25.72514191540011 25.72514191540011 25.72514191540011 25.72514191540011 25.72514191540011 25.72514191540011 25.72514191540011 25.72514191540011 25.72514191540011 25.72514191540011 25.72514191540011 25.72514191540011 25.72514191540011 25.72514191540011 25.72514191540011 25.72514191540011 25.72514191540011 25.72514191540011 25.72514191540011 25.72514191540011 25.72514191540011 25.72514191540011 25.72514191540011 25.72514191540011 25.72514191540011 25.72514191540011 25.72514191540011 25.72514191540011 25.72514191540011 25.747115912836477 25.72514191540011 25.72514191540011 25.72514191540011 25.72514191540011 25.72514191540011 25.747115912836477 25.72514191540011 25.72514191540011 25.72514191540011 25.747115912836477 25.72514191540011 25.72514191540011 25.72514191540011 25.72514191540011 25.72514191540011 25.72514191540011 25.72514191540011 25.72514191540011 25.72514191540011 25.72514191540011 25.72514191540011 25.72514191540011 25.72514191540011 25.72514191540011 25.72514191540011 25.72514191540011 25.72514191540011 25.72514191540011 25.72514191540011 25.747115912836477 25.72514191540011 25.72514191540011 25.72514191540011 25.72514191540011 25.72514191540011 25.72514191540011 25.72514191540011 25.72514191540011 25.72514191540011 25.72514191540011 25.72514191540011 25.72514191540011 25.72514191540011 25.72514191540011 25.72514191540011 25.72514191540011 25.72514191540011 25.72514191540011 25.72514191540011 25.72514191540011 25.72514191540011 25.72514191540011 25.72514191540011 25.72514191540011 25.72514191540011 25.72514191540011 25.72514191540011 25.72514191540011 25.72514191540011 25.72514191540011 25.72514191540011 25.72514191540011 25.72514191540011 25.72514191540011 25.72514191540011 25.72514191540011 25.72514191540011 25.72514191540011 25.747115912836477 25.72514191540011 25.72514191540011 25.72514191540011 25.72514191540011 25.72514191540011 25.72514191540011 25.72514191540011 25.72514191540011 25.747115912836477 25.747115912836477 25.72514191540011 25.72514191540011 25.72514191540011 25.72514191540011 25.72514191540011 25.72514191540011 25.747115912836477 25.72514191540011 25.72514191540011 25.72514191540011 25.72514191540011 25.72514191540011 25.72514191540011 25.72514191540011 25.72514191540011 25.747115912836477 25.747115912836477 25.813037905145578 25.878959897454678 25.988829884636512 26.252517853872916 26.45028383080022 26.779893792345725 27.373191723127633 27.505035707745833 28.03241164621864 28.427943600073245 29.021241530855153 29.658487456509796 30.119941402673504 30.801135323200878 31.482329243728255 32.185497161692 32.84471708478301 33.350119025819446 33.83354696941952 34.47079289507416 34.93224684123787 35.78923274125618 36.404504669474456 36.80003662332906 37.415308551547334 37.65702252334737 38.20637245925654 38.97546236952939 39.39296832082036 39.920344259293174 40.49166819263871 40.88720014649331 41.43655008240249 41.83208203625709 42.44735396447537 43.040651895257284 43.502105841420985 44.18329976194836 44.8864676799121 45.41384361838491 46.66636147225783 46.973997436366965 47.72111334920344 48.24848928767625 48.77586522614906 49.89653909540377 50.665629005676614 51.23695293902216 52.0719648416041 52.62131477751328 53.192638710858816 54.81871452114997 55.06042849295001 55.63175242629555 56.422816334004764 56.9941402673503 57.74125618018678 58.26863211865959 59.367331990477936 59.894707928950744 60.46603186229628 61.30104376487823 62.13605566746017 62.707379600805716 63.652261490569494 64.48727339315144 65.14649331624244 66.02545321369712 66.59677714704267 67.60758102911555 68.46456692913387 69.67313678813403 70.55209668558872 70.92565464200696 71.56290056766161 72.55173045229812 73.14502838308002 73.91411829335286 74.46346822926205 75.21058414209853 75.93572605749863 76.46310199597144 77.40798388573522 77.84746383446256 78.37483977293536 79.01208569859 79.45156564731734 80.17670756271745 80.77000549349935 81.16553744735396 81.75883537813587 82.35213330891779 82.72569126533602 83.40688518586339 83.71452114997254 84.28584508331807 84.57150704999086 84.81322102179088 85.05493499359092 85.45046694744553 85.64823292437282 85.91192089360922 86.08771287310017 86.30745284746384 86.54916681926387 86.63706280900934 86.70298480131844 86.7908807910639 86.81285478850029 86.81285478850029 86.81285478850029 86.81285478850029 86.70298480131844 86.57114081670024 86.3953488372093 86.10968687053654 85.88994689617286 85.38454495513642 85.14283098333638 84.74729902948178 84.37374107306354 84.08807910639078 83.71452114997254 83.31898919611793 83.0772752243179 82.68174327046329 82.41805530122689 82.00054934993591 81.58304339864495 81.12158945248123 80.68210950375389 80.55026551913569 80.08881157297199 79.58340963193555 79.18787767808094 78.50668375755356 77.9573338216444 77.56180186778978 76.9465299395715 76.7487639626442 76.15546603186229 75.51822010620765 75.12268815235305 74.37557223951657 73.7603003112983 73.14502838308002 72.68357443691632 72.31001648049809 71.65079655740706 71.0355246291888 70.61801867789782 69.98077275224318 69.40944881889763 68.99194286760667 68.42061893426111 68.00311298297015 67.45376304706097 66.88243911371544 66.42098516755172 65.87163523164256 65.23438930598792 64.641091375206 64.02581944698773 63.784105475187694 63.256729536714886 62.28987364951474 62.09210767258744 61.54275773667826 60.97143380333272 60.597875846914484 60.004577916132575 59.587071964841606 58.9278520417506 58.35652810840505 57.98297015198681 57.36769822376854 56.57663431605933 56.181102362204726 55.78557040835012 55.39003845449551 54.81871452114997 54.203442592931694 53.720014649331624 52.97289873649515 52.3356528108405 51.89617286211316 51.21497894158579 50.75352499542208 50.314045046694744 49.45705914667643 49.03955319538546 48.42428126716719 47.91887932613075 47.58926936458524 47.083867423548796 46.79820545687603 46.292803515839594 45.83134956967588 45.52371360556674 45.06225965940304 44.7546236952939 44.205273759384724 43.831715802966485 43.67789782091192 43.348287859366415 43.01867789782091 42.798937923457245 42.35945797472991 42.13971800036623 41.81010803882073 41.50247207471159 41.30470609778429 41.12891411829335 40.77733015931148 40.601538179820544 40.315876213147774 40.140084233656836 39.854422266984066 39.546786302874935 39.239150338765796 39.01941036440212 38.73374839772936 38.51400842336568 38.20637245925654 37.98663248489288 37.54715253616554 37.21754257462003 36.997802600256364 36.756088628456325 36.426478666910825 36.184764695110786 35.72331074894708 35.50357077458341 35.17396081303791 34.82237685405603 34.62461087712873 34.40487090276506 34.009338948910454 33.81157297198315 33.525911005310384 33.350119025819446 33.086431056583045 32.82274308734664 32.62497711041934 32.40523713605567 32.27339315143747 32.14154916681926 31.921809192455594 31.702069218091925 31.41640725141915 31.15271928218275 30.86705731550998 30.691265336019043 30.44955136421901 30.251785387291704 29.76835744369163 29.41677348470976 29.175059512909723 28.801501556491484 28.53781358725508 28.16425563083684 27.87859366416407 27.548983702618568 27.241347738509432 27.04358176158213 26.80186778978209 26.60410181285479 26.494231825672955 26.29646584874565 26.23054385643655 26.098699871818347 26.01080388207288 25.922907892327412 25.813037905145578 25.813037905145578 25.791063907709212 25.835011902581943 25.835011902581943 25.856985900018312 25.856985900018312 25.835011902581943 25.813037905145578 25.813037905145578 25.813037905145578 25.813037905145578 25.813037905145578 25.813037905145578 25.813037905145578 25.813037905145578 25.813037905145578 25.791063907709212 25.791063907709212 25.791063907709212 25.791063907709212 25.813037905145578 25.813037905145578 25.791063907709212 25.791063907709212 25.791063907709212 25.791063907709212 25.813037905145578 25.813037905145578 25.791063907709212 25.791063907709212 25.791063907709212 25.813037905145578 25.813037905145578 25.813037905145578 25.813037905145578 25.813037905145578 25.791063907709212 25.791063907709212 25.791063907709212 25.813037905145578 25.813037905145578 25.813037905145578 25.813037905145578 25.791063907709212 25.813037905145578 25.813037905145578 25.813037905145578 25.791063907709212 25.813037905145578 25.813037905145578 25.813037905145578 25.813037905145578 25.813037905145578 25.813037905145578 25.813037905145578 25.813037905145578 25.813037905145578 25.791063907709212 25.791063907709212 25.791063907709212 25.813037905145578 25.813037905145578 25.813037905145578 25.791063907709212 25.813037905145578 25.813037905145578 25.813037905145578 25.813037905145578 25.813037905145578 25.813037905145578 25.813037905145578 25.813037905145578 25.813037905145578 25.813037905145578 25.791063907709212 25.813037905145578 25.813037905145578 25.813037905145578 25.813037905145578 25.813037905145578 25.813037905145578 25.813037905145578 25.813037905145578 25.813037905145578 25.813037905145578 25.813037905145578 25.813037905145578 25.813037905145578 25.813037905145578 25.813037905145578 25.813037905145578 25.813037905145578 25.813037905145578 25.813037905145578 25.813037905145578 25.813037905145578 25.813037905145578 25.813037905145578 25.813037905145578 25.813037905145578 25.813037905145578 25.835011902581943 25.813037905145578 25.813037905145578 25.813037905145578 25.813037905145578 25.813037905145578 25.813037905145578 25.813037905145578 25.813037905145578 25.813037905145578 25.813037905145578 25.813037905145578 25.813037905145578 25.813037905145578 25.813037905145578 25.813037905145578 25.813037905145578 25.813037905145578 25.813037905145578 25.813037905145578 25.813037905145578 25.813037905145578 25.813037905145578 25.813037905145578 25.813037905145578 25.813037905145578 25.813037905145578 25.813037905145578 25.835011902581943 25.813037905145578 25.813037905145578 25.813037905145578 25.813037905145578 25.813037905145578 25.835011902581943 25.813037905145578 25.813037905145578 25.813037905145578 25.813037905145578 25.813037905145578 25.813037905145578 25.813037905145578 25.835011902581943 25.813037905145578 25.813037905145578 25.813037905145578 25.813037905145578 25.813037905145578 25.813037905145578 25.813037905145578 25.835011902581943 25.813037905145578 25.813037905145578 25.813037905145578 25.813037905145578 25.813037905145578 25.813037905145578 25.835011902581943 25.813037905145578 25.813037905145578 25.813037905145578 25.813037905145578 25.813037905145578 25.835011902581943 25.813037905145578 25.813037905145578 25.813037905145578 25.813037905145578 25.813037905145578 25.813037905145578 25.813037905145578 25.835011902581943 25.813037905145578 25.813037905145578 25.813037905145578 25.813037905145578 25.813037905145578 25.813037905145578 25.813037905145578 25.813037905145578 25.813037905145578 25.813037905145578 25.813037905145578 25.813037905145578 25.813037905145578 25.813037905145578 25.813037905145578 25.813037905145578 25.813037905145578 25.813037905145578 25.813037905145578 25.813037905145578 25.813037905145578 25.813037905145578 25.813037905145578 25.813037905145578 25.835011902581943 25.835011902581943 25.835011902581943 25.835011902581943 25.856985900018312 25.878959897454678 25.922907892327412 26.01080388207288 26.120673869254716 26.318439846182017 26.538179820545686 26.691997802600255 27.02160776414576 27.17542574620033 27.395165720564 27.614905694927668 27.768723676982237 28.010437648782275 28.27412561801868 28.47189159494598 28.75755356161875 29.043215528291523 29.48269547701886 30.119941402673504 30.383629371909905 30.998901300128182 31.35048525911005 31.74601721296466 32.49313312580114 32.778795092473906 33.438015015564915 34.009338948910454 34.47079289507416 34.99816883354697 35.23988280534701 35.76725874381981 36.558322651529025 36.953854605383626 37.59110053103827 38.25032045412928 38.77769639260209 39.4369163156931 39.942318256729536 40.68943416956601 41.45852407983885 42.05182201062077 42.798937923457245 43.568027833730085 44.44698773118476 45.30397363120308 45.69950558505768 46.600439479948726 47.63321735945797 48.35835927485809 49.786669108221936 51.23695293902216 51.58853689800403 52.68723676982238 53.126716718549716 54.15949459805896 55.67570042116829 56.818348287859365 57.54349020325947 58.70811206738693 59.652993957150706 60.641823841787215 61.43288774949643 62.707379600805716 63.608313495696756 64.3774034059696 65.41018128547884 66.55282915216993 67.32191906244277 68.46456692913387 69.14576084966123 69.8269547701886 70.70591466764328 71.4310565830434 73.18897637795277 73.3647683574437 74.13385826771653 74.88097418055301 75.43032411646219 75.93572605749863 76.9465299395715 77.42995788317158 78.0891778062626 78.57260574986266 79.23182567295368 79.86907159860831 80.30855154733565 80.92382347555393 81.53909540377221 81.95660135506317 82.54989928584509 82.92345724226331 83.4728071781725 83.97820911920894 84.43966306537266 84.79124702435452 85.14283098333638 85.42849295000916 85.82402490386376 86.08771287310017 86.35140084233657 86.5271928218275 86.63706280900934 86.68101080388207 86.72495879875481 86.72495879875481 86.72495879875481 86.70298480131844 86.57114081670024 86.37337483977294 86.24153085515474 85.95586888848196 85.6702069218092 85.45046694744553 85.09888298846366 84.57150704999086 84.15400109869987 84.0001831166453 83.56070316791798 83.23109320637246 82.79161325764511 82.41805530122689 81.73686138069951 81.34132942684491 80.57223951657207 80.15473356528108 79.73722761399011 79.31972166269914 78.50668375755356 78.06720380882624 77.36403589086248 76.9465299395715 76.26533601904413 75.58414209851676 73.8921442959165 73.71635231642557 73.14502838308002 72.68357443691632 72.1561984984435 71.6288225599707 70.9696026368797 70.22248672404322 69.6951107855704 68.94799487273393 68.44259293169749 67.73942501373375 66.99230910089727 66.55282915216993 65.87163523164256 65.19044131111518 64.70701336751512 63.762131477751325 63.476469511078555 62.86119758286028 62.0481596777147 61.67460172129647 61.23512177256912 60.663797839223584 60.026551913568944 58.90587804431423 58.46639809558689 57.93902215711408 57.389672221204904 56.840322285295734 56.26899835195019 55.25819446987731 54.68687053653177 53.91778062625893 53.434352682658854 52.423548800585976 51.9401208569859 51.43471891594946 50.577733015931145 50.094305072331075 49.588903131294636 48.40230726973082 48.29243728254899 47.67716535433071 46.995971433803334 46.556491485075995 45.919245559421356 45.36989562351218 44.97436366965757 44.22724775682109 43.897637795275585 43.61197582860282 43.172495879875484 42.88683391320271 42.51327595678447 41.94195202343893 41.63431605932979 41.17286211316609 40.86522614905695 40.27192821827504 39.942318256729536 39.612708295184035 39.26112433620216 38.84361838491119 38.57993041567478 38.20637245925654 37.94268449002014 37.635048525911 37.327412561801864 37.129646584874564 36.865958615638164 36.712140633583594 36.470426661783556 36.250686687419886 36.03094671305622 35.85515473356528 35.63541475920161 35.48159677714705 35.15198681560154 34.9761948361106 34.73448086431057 34.47079289507416 34.31697491301959 34.075260941219554 33.83354696941952 33.723676982237684 33.503937007874015 33.39406702069218 33.196301043764876 32.97656106940121 32.84471708478301 32.66892510529207 32.47115912836477 32.33931514374657 32.1195751693829 31.987731184764694 31.74601721296466 31.57022523347372 31.482329243728255 31.30653726423732 31.15271928218275 31.042849295000916 30.889031312946347 30.801135323200878 30.713239333455412 30.603369346273574 30.537447353964474 30.471525361655374 30.339681377037174 30.251785387291704 30.185863394982604 30.119941402673504 30.032045412928035 29.878227430873466 29.790331441127996 29.70243545138253 29.54861746932796 29.438747482146127 29.175059512909723 29.109137520600623 28.84544955136422 28.669657571873284 28.515839589818714 28.31807361289141 28.18622962827321 28.05438564365501 27.790697674418606 27.636879692364037 27.439113715436733 27.241347738509432 27.10950375389123 26.933711774400294 26.80186778978209 26.626075810291155 26.42830983336385 26.340413843618386 26.208569859000182 26.098699871818347 25.966855887200147 25.878959897454678 25.835011902581943 25.791063907709212 25.791063907709212 25.791063907709212 25.791063907709212 25.791063907709212 25.791063907709212 25.769089910272843 25.769089910272843 25.769089910272843 25.769089910272843 25.769089910272843 25.769089910272843 25.769089910272843 25.769089910272843 25.769089910272843 25.769089910272843 25.769089910272843 25.769089910272843 25.769089910272843 25.769089910272843 25.769089910272843 25.769089910272843 25.769089910272843 25.769089910272843 25.769089910272843 25.769089910272843 25.747115912836477 25.769089910272843 25.747115912836477 25.769089910272843 25.769089910272843 25.769089910272843 25.747115912836477 25.769089910272843 25.769089910272843 25.769089910272843 25.747115912836477 25.769089910272843 25.769089910272843 25.769089910272843 25.769089910272843 25.769089910272843 25.769089910272843 25.769089910272843 25.769089910272843 25.769089910272843 25.769089910272843 25.769089910272843 25.769089910272843 25.769089910272843 25.769089910272843 25.769089910272843 25.769089910272843 25.769089910272843 25.769089910272843 25.769089910272843 25.769089910272843 25.769089910272843 25.769089910272843 25.769089910272843 25.769089910272843 25.747115912836477 25.769089910272843 25.769089910272843 25.769089910272843 25.769089910272843 25.769089910272843 25.769089910272843 25.769089910272843 25.769089910272843 25.769089910272843 25.769089910272843 25.769089910272843 25.769089910272843 25.769089910272843 25.769089910272843 25.769089910272843 25.769089910272843 25.769089910272843 25.769089910272843 25.769089910272843 25.769089910272843 25.769089910272843 25.769089910272843 25.769089910272843 25.769089910272843 25.769089910272843 25.769089910272843 25.769089910272843 25.769089910272843 25.769089910272843 25.769089910272843 25.769089910272843 25.769089910272843 25.769089910272843 25.769089910272843 25.769089910272843 25.769089910272843 25.769089910272843 25.769089910272843 25.769089910272843 25.769089910272843 25.769089910272843 25.769089910272843 25.769089910272843 25.769089910272843 25.791063907709212 25.769089910272843 25.769089910272843 25.769089910272843 25.769089910272843 25.769089910272843 25.769089910272843 25.769089910272843 25.769089910272843 25.769089910272843 25.769089910272843 25.769089910272843 25.769089910272843 25.769089910272843 25.769089910272843 25.769089910272843 25.769089910272843 25.769089910272843 25.769089910272843 25.769089910272843 25.769089910272843 25.769089910272843 25.769089910272843 25.769089910272843 25.769089910272843 25.769089910272843 25.769089910272843 25.769089910272843 25.769089910272843 25.769089910272843 25.769089910272843 25.769089910272843 25.791063907709212 25.769089910272843 25.769089910272843 25.769089910272843 25.769089910272843 25.769089910272843 25.769089910272843 25.769089910272843 25.769089910272843 25.769089910272843 25.769089910272843 25.769089910272843 25.769089910272843 25.769089910272843 25.769089910272843 25.791063907709212 25.769089910272843 25.769089910272843 25.769089910272843 25.769089910272843 25.769089910272843 25.769089910272843 25.769089910272843 25.769089910272843 25.769089910272843 25.769089910272843 25.769089910272843 25.769089910272843 25.769089910272843 25.769089910272843 25.769089910272843 25.769089910272843 25.791063907709212 25.769089910272843 25.769089910272843 25.791063907709212 25.791063907709212 25.769089910272843 25.769089910272843 25.791063907709212 25.769089910272843 25.769089910272843 25.769089910272843 25.769089910272843 25.769089910272843 25.769089910272843 25.769089910272843 25.769089910272843 25.791063907709212 25.769089910272843 25.769089910272843 25.769089910272843 25.769089910272843 25.791063907709212 25.769089910272843 25.769089910272843 25.769089910272843 25.769089910272843 25.769089910272843 25.769089910272843 25.769089910272843 25.769089910272843 25.769089910272843 25.769089910272843 25.769089910272843 25.791063907709212 25.791063907709212 25.769089910272843 25.769089910272843 25.769089910272843 25.769089910272843 25.791063907709212 25.769089910272843 25.769089910272843 25.769089910272843 25.769089910272843 25.769089910272843 25.769089910272843 25.769089910272843 25.791063907709212 25.791063907709212 25.791063907709212 25.791063907709212 25.791063907709212 25.791063907709212 25.791063907709212 25.791063907709212 25.769089910272843 25.791063907709212 25.791063907709212 25.791063907709212 25.791063907709212 25.791063907709212 25.791063907709212 25.791063907709212 25.791063907709212 25.769089910272843 25.791063907709212 25.791063907709212 25.791063907709212 25.791063907709212 25.791063907709212 25.791063907709212 25.791063907709212 25.791063907709212 25.791063907709212 25.791063907709212 25.791063907709212 25.791063907709212 25.791063907709212 25.791063907709212 25.791063907709212 25.791063907709212 25.791063907709212 25.791063907709212 25.791063907709212 25.791063907709212 25.791063907709212 25.769089910272843 25.791063907709212 25.791063907709212 25.791063907709212 25.791063907709212 25.769089910272843 25.791063907709212 25.791063907709212 25.791063907709212 25.791063907709212 25.791063907709212 25.791063907709212 25.813037905145578 25.813037905145578 25.835011902581943 25.878959897454678 25.944881889763778 26.01080388207288 26.098699871818347 26.186595861563816 26.318439846182017 26.51620582310932 26.691997802600255 27.087529756454863 27.417139718000367 27.658853689800402 28.230177623145945 28.38399560520051 28.84544955136422 29.328877494964292 29.658487456509796 30.185863394982604 30.757187328328143 31.15271928218275 31.767991210401025 32.40523713605567 32.82274308734664 33.459989013001284 33.877494964292254 34.53671488738326 34.99816883354697 35.56949276689251 36.360556674601725 36.756088628456325 37.1076725874382 37.67899652078374 38.07452847463834 38.60190441311115 39.21717634132943 39.7665262772386 40.381798205456874 40.77733015931148 41.21681010803882 42.0957700054935 42.57919794909357 43.568027833730085 43.831715802966485 44.60080571323933 45.34792162607581 45.985167551730456 46.776231459439664 47.63321735945797 48.60007324665812 49.2153451748764 49.874565097967405 50.81944698773118 52.1378868339132 52.797106757004215 53.54422266984069 54.42318256729537 55.36806445705915 56.356894341695664 56.752426295550265 57.91704815967771 58.88390404687786 59.521149972532506 60.224317890496245 61.41091375206006 62.02618568027834 62.905145577733016 63.542391503387655 64.46529939571508 65.34425929316976 66.04742721113348 66.92638710858817 67.82732100347921 68.46456692913387 69.40944881889763 70.33235671122506 71.25526460355246 71.87053653177074 72.74949642922542 73.6284563266801 74.17780626258927 74.94689617286213 75.80388207288043 76.24336202160777 76.96850393700788 77.69364585240798 78.17707379600806 78.83629371909907 79.29774766526278 80.00091558322652 80.66013550631753 81.09961545504487 81.80278337300861 82.63779527559055 83.05530122688153 83.4728071781725 83.89031312946346 84.46163706280902 85.07690899102728 85.64823292437282 86.24153085515474 86.81285478850029 87.23036073979125 87.80168467313679 88.02142464750045 88.76854056033693 89.36183849111885 89.75737044497345 90.328694378319 90.94396630653726 91.33949826039188 92.06464017579198 92.43819813221022 92.74583409631936 93.1193920527376 93.36110602453763 93.6467679912104 93.9104559604468 93.99835195019227 94.08624793993773 94.08624793993773 94.08624793993773 94.08624793993773 94.08624793993773 93.9104559604468 93.60281999633767 93.33913202710126 92.87767808093756 92.37227613990112 92.02069218091924 91.4493682475737 91.07581029115548 90.52646035524629 89.91118842702802 89.53763047060978 88.94433253982787 88.30708661417323 87.84563266800953 87.27430873466398 86.83482878593665 86.17560886284564 85.56033693462736 84.90111701153634 84.24189708844534 83.78044314228164 83.31898919611793 82.59384728071782 81.64896539095403 81.1435634499176 80.59421351400843 79.89104559604468 79.09998168833548 78.5506317524263 77.73759384728072 76.8806079472624 76.24336202160777 75.49624610877129 74.92492217542575 74.08991027284381 73.29884636513458 72.74949642922542 71.98040651895258 71.2332906061161 70.68394067020692 69.91485075993407 69.40944881889763 68.68430690349753 67.95916498809743 67.1681010803882 66.66269913935176 65.89360922907892 65.14649331624244 64.42135140084233 63.89397546236953 63.212781541842155 62.46566562900568 61.9822376854056 61.36696575718733 60.70774583409632 60.26826588536898 59.60904596227797 59.1256180186779 58.42245010071415 57.74125618018678 57.257828236586704 56.532686321186596 55.85149240065922 55.39003845449551 54.68687053653177 54.203442592931694 53.456326680095216 52.64328877494964 52.11591283647684 51.5445889031313 50.84142098516755 50.006409082585606 49.19337117744003 48.64402124153085 47.54532136971251 47.039919428676065 46.51254349020326 45.83134956967588 45.15015564914851 44.73264969785754 44.16132576451199 43.787767808093754 43.282365867057315 42.64511994140267 42.33748397729354 42.0298480131844 41.78813404138436 41.43655008240249 41.084966123420614 40.82127815418421 40.315876213147774 39.810474272111335 39.656656290056766 39.28309833363853 39.08533235671123 38.75572239516572 38.20637245925654 37.89873649514741 37.52517853872917 37.08569859000183 36.80003662332906 36.404504669474456 36.09686870536532 35.72331074894708 35.34975279252884 35.08606482329244 34.7125068668742 34.36092290789233 34.03131294634682 33.74565097967405 33.61380699505585 33.372093023255815 33.086431056583045 32.932613074528476 32.62497711041934 32.42721113349204 32.29536714887384 32.1195751693829 32.03167917963743 31.767991210401025 31.482329243728255 31.41640725141915 31.15271928218275 30.911005310382713 30.735213330891778 30.471525361655374 30.273759384728073 29.966123420618935 29.680461453946165 29.48269547701886 29.240981505218826 29.021241530855153 28.889397546236953 28.62570957700055 28.53781358725508 28.449917597509614 28.31807361289141 28.230177623145945 28.142281633400476 28.05438564365501 27.96648965390954 27.87859366416407 27.790697674418606 27.68082768723677 27.548983702618568 27.461087712873102 27.351217725691264 27.285295733382164 27.17542574620033 27.02160776414576 26.933711774400294 26.73594579747299 26.51620582310932 26.318439846182017 26.07672587438198 25.813037905145578 25.769089910272843 25.703167917963743 25.703167917963743 25.72514191540011 25.747115912836477 25.747115912836477 25.747115912836477 25.747115912836477 25.72514191540011 25.72514191540011 25.72514191540011 25.72514191540011 25.72514191540011 25.72514191540011 25.72514191540011 25.72514191540011 25.72514191540011 25.703167917963743 25.703167917963743 25.72514191540011 25.72514191540011 25.72514191540011 25.72514191540011 25.72514191540011 25.72514191540011 25.72514191540011 25.72514191540011 25.72514191540011 25.72514191540011 25.72514191540011 25.72514191540011 25.72514191540011 25.72514191540011 25.72514191540011 25.72514191540011 25.72514191540011 25.72514191540011 25.703167917963743 25.703167917963743 25.72514191540011 25.72514191540011 25.72514191540011 25.72514191540011 25.72514191540011 25.72514191540011 25.703167917963743 25.72514191540011 25.72514191540011 25.72514191540011 25.72514191540011 25.72514191540011 25.72514191540011 25.72514191540011 25.72514191540011 25.72514191540011 25.72514191540011 25.72514191540011 25.72514191540011 25.72514191540011 25.72514191540011 25.72514191540011 25.72514191540011 25.72514191540011 25.72514191540011 25.72514191540011 25.72514191540011 25.72514191540011 25.72514191540011 25.72514191540011 25.72514191540011 25.72514191540011 25.72514191540011 25.72514191540011 25.72514191540011 25.72514191540011 25.72514191540011 25.72514191540011 25.72514191540011 25.72514191540011 25.72514191540011 25.72514191540011 25.72514191540011 25.72514191540011 25.72514191540011 25.72514191540011 25.72514191540011 25.72514191540011 25.72514191540011 25.72514191540011 25.72514191540011 25.72514191540011 25.72514191540011 25.72514191540011 25.72514191540011 25.72514191540011 25.72514191540011 25.72514191540011 25.72514191540011 25.72514191540011 25.72514191540011 25.72514191540011 25.72514191540011 25.72514191540011 25.72514191540011 25.72514191540011 25.72514191540011 25.72514191540011 25.72514191540011 25.72514191540011 25.72514191540011 25.72514191540011 25.72514191540011 25.72514191540011 25.72514191540011 25.72514191540011 25.72514191540011 25.72514191540011 25.72514191540011 25.72514191540011 25.72514191540011 25.72514191540011 25.72514191540011 25.72514191540011 25.72514191540011 25.72514191540011 25.72514191540011 25.72514191540011 25.72514191540011 25.72514191540011 25.72514191540011 25.72514191540011 25.72514191540011 25.72514191540011 25.72514191540011 25.72514191540011 25.72514191540011 25.72514191540011 25.703167917963743 25.703167917963743 25.72514191540011 25.72514191540011 25.72514191540011 25.72514191540011 25.72514191540011 25.703167917963743 25.703167917963743 25.703167917963743 25.703167917963743 25.72514191540011 25.72514191540011 25.703167917963743 25.72514191540011 25.72514191540011 25.72514191540011 25.72514191540011 25.703167917963743 25.703167917963743 25.72514191540011 25.703167917963743 25.703167917963743 25.703167917963743 25.703167917963743 25.703167917963743 25.703167917963743 25.703167917963743 25.703167917963743 25.703167917963743 25.703167917963743 25.72514191540011 25.72514191540011 25.72514191540011 25.703167917963743 25.703167917963743 25.72514191540011 25.703167917963743 25.703167917963743 25.72514191540011 25.703167917963743 25.703167917963743 25.72514191540011 25.703167917963743 25.703167917963743 25.72514191540011 25.72514191540011 25.72514191540011 25.72514191540011 25.703167917963743 25.72514191540011 25.703167917963743 25.72514191540011 25.72514191540011 25.72514191540011 25.72514191540011 25.703167917963743 25.703167917963743 25.72514191540011 25.72514191540011 25.72514191540011 25.72514191540011 25.72514191540011 25.72514191540011 25.72514191540011 25.72514191540011 25.72514191540011 25.72514191540011 25.72514191540011 25.72514191540011 25.72514191540011 25.72514191540011 25.72514191540011 25.72514191540011 25.72514191540011 25.72514191540011 25.72514191540011 25.72514191540011 25.72514191540011 25.769089910272843 25.769089910272843 25.791063907709212 25.813037905145578 25.835011902581943 25.966855887200147 26.054751876945616 26.164621864127447 26.36238784105475 26.51620582310932 26.82384178721846 27.263321735945798 27.658853689800402 27.922541659036806 28.09833363852774 28.515839589818714 29.19703351034609 29.394799487273392 30.054019410364404 30.471525361655374 30.932979307819082 31.43838124885552 31.767991210401025 32.1195751693829 32.75682109503754 33.086431056583045 33.591832997619484 33.92144295916499 34.47079289507416 34.9761948361106 35.52554477201978 35.921076725874386 36.38253067203809 36.73411463101996 37.3054385643655 37.67899652078374 38.47006042849295 39.107306354147596 39.546786302874935 39.986266251602274 40.645486174693275 41.084966123420614 41.87603003112983 42.31550997985717 42.88683391320271 43.54605383629372 44.007507782457424 44.66672770554844 45.39186962094854 45.87529756454862 46.64438747482146 47.1497894158579 47.98480131843985 48.81981322102179 49.4131111518037 50.445889031312944 51.149056949276684 52.02801684673137 52.57736678264054 53.14869071598608 53.93975462369529 55.03845449551364 55.58780443142282 56.181102362204726 56.9282182750412 57.74125618018678 58.51034609045962 59.301409998168836 59.784837941768906 60.53195385460538 61.01538179820545 61.74052371360557 62.44369163156931 62.927119575169385 63.652261490569494 64.13568943416956 64.9047793444424 65.67386925471524 66.22321919062443 67.01428309833364 67.60758102911555 68.46456692913387 69.3655008240249 69.98077275224318 71.2992125984252 71.87053653177074 72.72752243178905 73.58450833180737 74.06793627540745 75.01281816517121 75.80388207288043 76.39718000366233 77.42995788317158 77.93535982420804 78.46273576268084 79.20985167551731 79.73722761399011 80.41842153451748 81.1435634499176 81.64896539095403 82.33015931148142 83.27504120124519 83.78044314228164 84.30781908075444 84.83519501922726 85.45046694744553 86.17560886284564 86.68101080388207 87.66984068851858 88.43893059879144 88.96630653726424 89.69144845266435 90.10895440395532 90.94396630653726 91.64713422450102 92.17451016297382 92.76780809375572 93.36110602453763 93.73466398095587 94.34993590917415 94.48177989379235 94.76744186046513 94.96520783739241 95.05310382713789 95.07507782457425 95.05310382713789 95.03112982970153 94.81138985533785 94.61362387841055 94.15216993224685 93.84453396813771 93.5149240065922 92.7897820911921 92.21845815784656 91.73503021424648 91.2516022706464 90.83409631935542 90.02105841420986 89.58157846548252 89.09815052188245 88.39498260391869 87.84563266800953 87.05456876030031 86.24153085515474 85.38454495513642 84.81322102179088 83.97820911920894 83.40688518586339 82.61582127815419 82.06647134224502 80.92382347555393 80.08881157297199 79.49551364219008 78.8802417139718 77.93535982420804 77.25416590368064 75.957700054935 75.27650613440761 74.24372825489837 73.18897637795277 72.48580845998902 71.4310565830434 70.37630470609778 69.65116279069767 68.15693096502471 67.38784105475187 66.61875114447903 65.78373924189708 65.08057132393334 64.00384544955136 63.036989562351216 62.33382164438748 61.38893975462369 60.77366782640542 59.916681926387106 59.08167002380517 58.13678813404138 57.87310016480498 57.257828236586704 56.840322285295734 56.00531038271379 55.60977842885919 54.99450650064091 54.401208569859 54.00567661600439 53.390404687786116 52.797106757004215 52.40157480314961 51.78630287493133 51.43471891594946 50.599707013367514 50.204175059512906 49.76469511078557 49.06152719282183 47.80900933894891 47.69913935176707 47.061893426112434 46.51254349020326 45.47976561069402 44.8864676799121 44.271195751693824 43.194469877311846 42.88683391320271 41.85405603369347 41.12891411829335 40.68943416956601 40.074162241347736 39.5028383080022 39.15125434902033 38.68980040285662 38.38216443874748 37.98663248489288 37.61307452847464 37.393334554110965 37.08569859000183 36.712140633583594 36.492400659219925 36.272660684856255 36.09686870536532 35.76725874381981 35.43764878227431 35.19593481047427 34.75645486174693 34.44881889763779 34.207104925837754 33.92144295916499 33.81157297198315 33.459989013001284 33.196301043764876 32.998535066837576 32.712873100164806 32.4491851309284 32.2514191540011 31.833913202710125 31.614173228346456 31.35048525911005 30.976927302691813 30.735213330891778 30.339681377037174 29.944149423182566 29.526643471891596 29.153085515473357 28.889397546236953 28.64768357443692 28.31807361289141 28.12030763596411 27.790697674418606 27.636879692364037 27.548983702618568 27.417139718000367 27.329243728254898 27.197399743636698 27.065555759018494 26.97765976927303 26.867789782091194 26.73594579747299 26.648049807727524 26.51620582310932 26.42830983336385 26.29646584874565 26.14264786669108 26.054751876945616 25.966855887200147 25.856985900018312 25.747115912836477 25.72514191540011 25.72514191540011 25.72514191540011 25.72514191540011 25.72514191540011 25.703167917963743 25.703167917963743 25.681193920527377 25.681193920527377 25.681193920527377 25.681193920527377 25.681193920527377 25.681193920527377 25.681193920527377 25.681193920527377 25.681193920527377 25.681193920527377 25.65921992309101 25.65921992309101 25.65921992309101 25.65921992309101 25.65921992309101 25.681193920527377 25.65921992309101 25.65921992309101 25.65921992309101 25.65921992309101 25.65921992309101 25.65921992309101 25.65921992309101 25.681193920527377 25.681193920527377 25.65921992309101 25.65921992309101 25.65921992309101 25.65921992309101 25.681193920527377 25.65921992309101 25.681193920527377 25.65921992309101 25.65921992309101 25.65921992309101 25.681193920527377 25.65921992309101 25.65921992309101 25.65921992309101 25.65921992309101 25.65921992309101 25.65921992309101 25.65921992309101 25.65921992309101 25.65921992309101 25.65921992309101 25.681193920527377 25.681193920527377 25.681193920527377 25.65921992309101 25.681193920527377 25.65921992309101 25.681193920527377 25.681193920527377 25.681193920527377 25.681193920527377 25.681193920527377 25.681193920527377 25.65921992309101 25.65921992309101 25.65921992309101 25.65921992309101 25.681193920527377 25.681193920527377 25.65921992309101 25.65921992309101 25.65921992309101 25.65921992309101 25.681193920527377 25.65921992309101 25.65921992309101 25.65921992309101 25.65921992309101 25.65921992309101 25.65921992309101 25.65921992309101 25.65921992309101 25.65921992309101 25.65921992309101 25.65921992309101 25.65921992309101 25.65921992309101 25.65921992309101 25.65921992309101 25.65921992309101 25.65921992309101 25.65921992309101 25.65921992309101 25.65921992309101 25.65921992309101 25.65921992309101 25.637245925654643 25.637245925654643 25.637245925654643 25.637245925654643 25.637245925654643 25.637245925654643 25.637245925654643 25.637245925654643 25.637245925654643 25.637245925654643 25.637245925654643 25.637245925654643 25.637245925654643 25.637245925654643 25.637245925654643 25.637245925654643 25.637245925654643 25.637245925654643 25.615271928218274 25.615271928218274 25.615271928218274 25.615271928218274 25.615271928218274 25.615271928218274 25.615271928218274 25.615271928218274 25.615271928218274 25.615271928218274 25.615271928218274 25.615271928218274 25.615271928218274 25.615271928218274 25.615271928218274 25.615271928218274 25.615271928218274 25.615271928218274 25.615271928218274 25.615271928218274 25.615271928218274 25.593297930781908 25.593297930781908 25.615271928218274 25.593297930781908 25.593297930781908 25.593297930781908 25.615271928218274 25.593297930781908 25.593297930781908 25.615271928218274 25.593297930781908 25.615271928218274 25.593297930781908 25.615271928218274 25.593297930781908 25.593297930781908 25.593297930781908 25.593297930781908 25.593297930781908 25.615271928218274 25.593297930781908 25.593297930781908 25.615271928218274 25.615271928218274 25.593297930781908 25.593297930781908 25.615271928218274 25.593297930781908 25.615271928218274 25.593297930781908 25.593297930781908 25.593297930781908 25.593297930781908 25.593297930781908 25.615271928218274 25.593297930781908 25.593297930781908 25.615271928218274 25.615271928218274 25.615271928218274 25.593297930781908 25.593297930781908 25.593297930781908 25.615271928218274 25.593297930781908 25.593297930781908 25.593297930781908 25.593297930781908 25.593297930781908 25.593297930781908 25.615271928218274 25.593297930781908 25.593297930781908 25.593297930781908 25.593297930781908 25.593297930781908 25.593297930781908 25.593297930781908 25.593297930781908 25.593297930781908 25.615271928218274 25.593297930781908 25.615271928218274 25.615271928218274 25.615271928218274 25.593297930781908 25.593297930781908 25.593297930781908 25.593297930781908 25.593297930781908 25.593297930781908 25.593297930781908 25.615271928218274 25.593297930781908 25.593297930781908 25.593297930781908 25.615271928218274 25.593297930781908 25.615271928218274 25.615271928218274 25.615271928218274 25.593297930781908 25.593297930781908 25.593297930781908 25.615271928218274 25.593297930781908 25.615271928218274 25.593297930781908 25.593297930781908 25.615271928218274 25.615271928218274 25.593297930781908 25.615271928218274 25.593297930781908 25.593297930781908 25.593297930781908 25.593297930781908 25.615271928218274 25.593297930781908 25.593297930781908 25.593297930781908 25.593297930781908 25.593297930781908 25.615271928218274 25.615271928218274 25.65921992309101 25.703167917963743 25.835011902581943 25.944881889763778 26.186595861563816 26.494231825672955 26.757919794909355 27.197399743636698 27.658853689800402 28.18622962827321 28.735579564182384 29.109137520600623 29.526643471891596 30.14191540010987 30.757187328328143 31.41640725141915 31.87786119758286 32.60300311298297 33.372093023255815 33.89946896172862 34.42684490020143 35.50357077458341 36.118842702801686 36.953854605383626 37.54715253616554 38.36019044131112 39.458890313129466 40.096136238784105 40.667460172129644 41.48049807727523 42.11774400292987 42.996703900384546 43.98553378502106 44.8864676799121 45.76542757736678 46.314777513275956 46.86412744918513 47.65519135689434 48.27046328511261 49.544955136421905 50.204175059512906 51.17103094671306 52.0719648416041 52.68723676982238 53.61014466214979 54.5330525544772 55.21424647500458 56.20307635964109 56.884270280168465 57.89507416224135 58.9278520417506 59.652993957150706 61.05932979307819 62.07013367515107 62.55356161875115 63.432521516205824 64.09174143929684 65.10254532136972 66.4429591649881 67.05823109320637 68.00311298297015 68.35469694195203 69.32155282915217 70.59604468046146 71.27723860098882 72.22212049075262 73.16700238051638 73.8921442959165 75.07874015748033 75.65006409082585 76.33125801135323 77.25416590368064 77.84746383446256 78.72642373191724 79.60538362937191 80.17670756271745 81.29738143197216 81.91265336019043 82.52792528840871 83.27504120124519 84.08807910639078 84.65940303973632 85.62625892693646 86.17560886284564 86.85680278337301 87.14246475004578 87.82365867057317 88.76854056033693 89.44973448086431 90.13092840139169 90.57040835011902 91.20765427577368 91.80095220655558 92.17451016297382 92.57004211682842 93.1193920527376 93.47097601171946 93.99835195019227 94.59164988097419 94.74546786302875 95.09705182201061 95.42666178355613 95.62442776048343 95.84416773484709 96.01995971433803 96.12982970151987 96.15180369895623 96.15180369895623 96.15180369895623 96.12982970151987 96.06390770921077 95.80021973997437 95.62442776048343 95.27284380150155 94.92125984251969 94.63559787584691 94.06427394250137 93.75663797839223 93.40505401941037 92.87767808093756 92.50412012451932 91.73503021424648 91.33949826039188 90.70225233473722 90.08698040651895 89.62552646035525 89.16407251419155 88.52682658853689 87.82365867057317 87.12049075260941 86.63706280900934 85.9338948910456 85.2087529756455 84.70335103460906 83.97820911920894 83.25306720380883 82.76963926020875 82.04449734480863 81.53909540377221 80.83592748580847 79.89104559604468 79.4076176524446 78.96813770371728 78.2210217908808 77.49587987548068 76.9465299395715 76.39718000366233 75.47427211133493 74.70518220106207 74.19978026002565 73.65043032411646 72.94726240615272 72.39791247024354 71.38710858817066 70.85973264969786 70.06866874198866 69.32155282915217 68.7062809009339 68.02508698040651 67.29994506500641 66.79454312396996 66.04742721113348 65.52005127266068 64.81688335469694 64.09174143929684 63.630287493133125 62.81724958798755 62.11408167002381 61.63065372642373 60.86156381615089 60.026551913568944 59.499175975096136 58.48837209302326 58.00494414942318 57.323750228895804 56.57663431605933 56.02728438015016 55.45596044680461 54.99450650064091 54.11554660318623 53.654092657022524 53.192638710858816 52.59934078007691 52.2038088262223 51.63248489287676 51.01721296465848 50.62168101080388 50.028383080021975 49.43508514924007 49.03955319538546 48.49020325947629 47.91887932613075 47.54532136971251 47.017945431239696 46.534517487639626 46.09503753891229 45.78740157480315 45.52371360556674 44.97436366965757 44.79857169016664 44.139351767075624 43.87566379783922 43.590001831166454 43.040651895257284 42.75498992858451 42.46932796191174 42.07379600805713 41.78813404138436 41.39260208752975 40.82127815418421 40.535616187511444 40.249954220838674 39.656656290056766 39.34902032594763 39.04138436183849 38.71177440029299 38.25032045412928 37.8328145028383 37.5032045412928 36.975828602819995 36.602270646401756 36.316608679728986 35.94305072331075 35.70133675151071 35.34975279252884 35.02014283098333 34.80040285661967 34.44881889763779 34.141182933528654 33.89946896172862 33.569859000183115 33.39406702069218 33.240249038637614 33.04248306171031 32.932613074528476 32.75682109503754 32.581029115546606 32.47115912836477 32.33931514374657 32.2514191540011 32.14154916681926 31.987731184764694 31.855887200146494 31.59219923091009 31.43838124885552 31.174693279619117 30.889031312946347 30.669291338582678 30.317707379600805 29.944149423182566 29.680461453946165 29.284929500091557 28.889397546236953 28.64768357443692 28.31807361289141 27.988463651345906 27.81267167185497 27.505035707745833 27.329243728254898 27.065555759018494 26.88976377952756 26.58212781541842 26.340413843618386 26.208569859000182 26.07672587438198 25.922907892327412 25.791063907709212 25.681193920527377 25.637245925654643 25.65921992309101 25.681193920527377 25.681193920527377 25.65921992309101 25.65921992309101 25.637245925654643 25.637245925654643 25.637245925654643 25.637245925654643 25.637245925654643 25.637245925654643 25.637245925654643 25.637245925654643 25.615271928218274 25.615271928218274 25.615271928218274 25.593297930781908 25.615271928218274 25.593297930781908 25.593297930781908 25.615271928218274 25.593297930781908 25.615271928218274 25.593297930781908 25.593297930781908 25.615271928218274 25.615271928218274 25.615271928218274 25.615271928218274 25.615271928218274 25.615271928218274 25.615271928218274 25.615271928218274 25.615271928218274 25.615271928218274 25.593297930781908 25.593297930781908 25.593297930781908 25.615271928218274 25.615271928218274 25.593297930781908 25.615271928218274 25.615271928218274 25.593297930781908 25.615271928218274 25.615271928218274 25.615271928218274 25.615271928218274 25.615271928218274 25.615271928218274 25.615271928218274 25.615271928218274 25.615271928218274 25.615271928218274 25.593297930781908 25.615271928218274 25.615271928218274 25.593297930781908 25.615271928218274 25.615271928218274 25.615271928218274 25.615271928218274 25.615271928218274 25.615271928218274 25.615271928218274 25.615271928218274 25.615271928218274 25.615271928218274 25.615271928218274 25.615271928218274 25.615271928218274 25.615271928218274 25.615271928218274 25.615271928218274 25.615271928218274 25.615271928218274 25.615271928218274 25.615271928218274 25.615271928218274 25.615271928218274 25.615271928218274 25.615271928218274 25.615271928218274 25.615271928218274 25.615271928218274 25.615271928218274 25.615271928218274 25.615271928218274 25.615271928218274 25.615271928218274 25.615271928218274 25.615271928218274 25.615271928218274 25.615271928218274 25.615271928218274 25.615271928218274 25.615271928218274 25.615271928218274 25.615271928218274 25.615271928218274 25.615271928218274 25.615271928218274 25.615271928218274 25.615271928218274 25.615271928218274 25.615271928218274 25.615271928218274 25.615271928218274 25.615271928218274 25.615271928218274 25.615271928218274 25.615271928218274 25.615271928218274 25.615271928218274 25.615271928218274 25.615271928218274 25.615271928218274 25.615271928218274 25.615271928218274 25.615271928218274 25.615271928218274 25.615271928218274 25.615271928218274 25.593297930781908 25.615271928218274 25.615271928218274 25.615271928218274 25.615271928218274 25.593297930781908 25.615271928218274 25.615271928218274 25.615271928218274 25.615271928218274 25.615271928218274 25.615271928218274 25.615271928218274 25.593297930781908 25.615271928218274 25.593297930781908 25.593297930781908 25.615271928218274 25.615271928218274 25.615271928218274 25.593297930781908 25.615271928218274 25.593297930781908 25.615271928218274 25.615271928218274 25.593297930781908 25.615271928218274 25.615271928218274 25.615271928218274 25.615271928218274 25.615271928218274 25.615271928218274 25.615271928218274 25.615271928218274 25.615271928218274 25.615271928218274 25.615271928218274 25.615271928218274 25.593297930781908 25.615271928218274 25.615271928218274 25.615271928218274 25.615271928218274 25.615271928218274 25.615271928218274 25.593297930781908 25.615271928218274 25.593297930781908 25.593297930781908 25.593297930781908 25.593297930781908 25.593297930781908 25.593297930781908 25.593297930781908 25.593297930781908 25.593297930781908 25.571323933345543 25.571323933345543 25.571323933345543 25.571323933345543 25.571323933345543 25.593297930781908 25.571323933345543 25.571323933345543 25.571323933345543 25.571323933345543 25.571323933345543 25.571323933345543 25.571323933345543 25.571323933345543 25.571323933345543 25.571323933345543 25.571323933345543 25.571323933345543 25.571323933345543 25.571323933345543 25.571323933345543 25.571323933345543 25.571323933345543 25.571323933345543 25.571323933345543 25.571323933345543 25.571323933345543 25.571323933345543 25.571323933345543 25.571323933345543 25.571323933345543 25.571323933345543 25.571323933345543 25.571323933345543 25.571323933345543 25.571323933345543 25.571323933345543 25.571323933345543 25.571323933345543 25.593297930781908 25.571323933345543 25.571323933345543 25.571323933345543 25.571323933345543 25.571323933345543 25.593297930781908 25.615271928218274 25.65921992309101 25.72514191540011 25.900933894891047 26.032777879509247 26.186595861563816 26.494231825672955 26.845815784654825 27.131477751327594 27.548983702618568 27.90056766160044 28.34004761032778 28.823475553927853 29.153085515473357 29.63651345907343 30.163889397546235 30.51547335652811 31.042849295000916 31.614173228346456 32.185497161692 32.62497711041934 32.97656106940121 33.569859000183115 34.31697491301959 34.73448086431057 35.26185680278337 35.61344076176525 36.09686870536532 36.58029664896539 36.953854605383626 37.52517853872917 38.38216443874748 38.79967039003846 39.28309833363853 39.744552279802235 40.315876213147774 41.19483611060245 41.63431605932979 42.11774400292987 42.71104193371177 43.150521882439115 43.80974180553012 44.4909357260575 45.21607764145761 45.985167551730456 46.490569492766895 47.259659403039734 47.78703534151254 48.62204724409449 49.39113715436733 49.940487090276505 50.77549899285845 51.56656290056766 52.1378868339132 53.192638710858816 53.54422266984069 54.31331258011353 55.14832448269547 55.69767441860465 56.422816334004764 57.45559421351401 57.98297015198681 58.79600805713239 59.0596960263688 60.092473905878045 60.597875846914484 61.38893975462369 62.0481596777147 62.75132759567845 63.432521516205824 64.09174143929684 64.1796374290423 64.99267533418788 65.69584325215162 66.1792711957517 66.86046511627907 67.54165903680644 68.02508698040651 68.7062809009339 69.16773484709759 69.84892876762498 70.50814869071598 70.99157663431606 71.65079655740706 72.33199047793445 72.74949642922542 73.78227430873466 74.19978026002565 74.63926020875297 75.05676616004395 75.60611609595313 76.02362204724409 76.79271195751694 77.21021790880792 77.82548983702618 78.24299578831716 78.8802417139718 79.5394616370628 80.00091558322652 80.66013550631753 81.34132942684491 81.84673136788135 82.46200329609962 82.90148324482695 83.56070316791798 84.21992309100898 84.68137703717268 85.31862296282733 86.19758286028201 86.57114081670024 87.05456876030031 87.71378868339133 88.15326863211865 88.7905145577733 89.44973448086431 90.02105841420986 90.41659036806446 91.00988829884636 91.55923823475554 91.91082219373742 92.41622413477386 92.89965207837392 93.20728804248306 93.62479399377403 93.86650796557407 94.15216993224685 94.48177989379235 94.54770188610145 94.70151986815601 94.76744186046513 94.78941585790149 94.78941585790149 94.76744186046513 94.61362387841055 94.30598791430141 94.02032594762865 93.73466398095587 93.27321003479217 92.74583409631936 92.26240615271928 91.93279619117378 91.40542025270096 90.98791430141 90.68027833730086 90.19685039370079 89.73539644753708 89.38381248855521 88.81248855520967 88.43893059879144 87.84563266800953 87.03259476286395 86.61508881157297 86.17560886284564 85.62625892693646 85.2087529756455 84.61545504486358 84.1979490935726 83.40688518586339 82.8135872550815 82.41805530122689 82.00054934993591 81.47317341146311 81.0117194652994 80.26460355246292 79.84709760117195 79.20985167551731 78.59457974729904 78.17707379600806 77.38600988829884 76.96850393700788 76.5509979857169 75.957700054935 75.5621681010804 75.01281816517121 74.44149423182567 73.87017029848013 73.29884636513458 72.9692364035891 72.50778245742538 71.69474455227981 71.25526460355246 70.81578465482514 70.04669474455227 69.6291887932613 69.01391686504303 68.57443691631569 67.98113898553379 67.36586705731551 66.94836110602454 66.35506317524263 65.78373924189708 65.43215528291522 64.33345541109688 64.06976744186046 63.696209485442225 63.300677531587624 62.905145577733016 62.50961362387841 61.9822376854056 61.63065372642373 60.92748580845999 60.641823841787215 60.246291887932614 59.740889946896175 59.23548800585973 58.79600805713239 58.35652810840505 58.04889214429592 57.63138619300494 57.34572422633217 56.906244277604834 56.444790331441126 56.15912836476836 55.71964841604102 55.28016846731368 54.97253250320454 54.51107855704083 54.137520600622594 53.698040651895255 53.280534700604285 52.994872733931516 52.57736678264054 51.98406885185864 51.65445889031313 51.34682292620399 50.84142098516755 50.511811023622045 49.962461087712875 49.4131111518037 48.90770921076726 48.38033327229445 48.05072331074895 47.58926936458524 47.2816334004761 46.842153451748764 46.490569492766895 46.248855520966856 45.87529756454862 45.67753158762132 45.36989562351218 44.90844167734847 44.6887017029848 44.4250137337484 43.91961179271196 43.655923823475554 43.370261856802784 42.95275590551181 42.55722395165721 42.1616919978026 41.89800402856619 41.65629005676616 41.26075810291155 40.84325215162058 40.447720197765975 40.184032228529574 39.788500274674966 39.39296832082036 39.12928035158396 38.73374839772936 38.40413843618385 38.16242446438381 37.8328145028383 37.635048525911 37.34938655923823 36.953854605383626 36.778062625892694 36.58029664896539 36.316608679728986 36.14081670023805 35.83318073612892 35.59146676432888 35.17396081303791 34.8443508514924 34.62461087712873 34.40487090276506 34.11920893609229 33.855520966855885 33.61380699505585 33.48196301043765 33.284197033510345 33.108405054019414 33.020509064273945 32.866691082219376 32.66892510529207 32.581029115546606 32.4491851309284 32.33931514374657 32.185497161692 31.987731184764694 31.833913202710125 31.57022523347372 31.43838124885552 31.30653726423732 31.108771287310017 30.889031312946347 30.801135323200878 30.537447353964474 30.51547335652811 30.339681377037174 30.273759384728073 30.07599340780077 29.9221754257462 29.790331441127996 29.592565464200696 29.350851492400658 29.19703351034609 28.955319538546053 28.801501556491484 28.581761582127815 28.40596960263688 28.296099615455045 28.16425563083684 28.03241164621864 27.944515656473172 27.790697674418606 27.702801684673137 27.527009705182202 27.329243728254898 27.10950375389123 26.867789782091194 26.648049807727524 26.472257828236586 26.274491851309286 26.208569859000182 25.966855887200147 25.835011902581943 25.747115912836477 25.681193920527377 25.681193920527377 25.681193920527377 25.703167917963743 25.703167917963743 25.703167917963743 25.681193920527377 25.65921992309101 25.637245925654643 25.637245925654643 25.637245925654643 25.637245925654643 25.637245925654643 25.637245925654643 25.637245925654643 25.637245925654643 25.637245925654643 25.637245925654643 25.637245925654643 25.637245925654643 25.637245925654643 25.637245925654643 25.637245925654643 25.637245925654643 25.637245925654643 25.637245925654643 25.637245925654643 25.637245925654643 25.637245925654643 25.637245925654643 25.637245925654643 25.615271928218274 25.637245925654643 25.637245925654643 25.637245925654643 25.637245925654643 25.637245925654643 25.637245925654643 25.637245925654643 25.637245925654643 25.637245925654643 25.615271928218274 25.637245925654643 25.615271928218274 25.615271928218274 25.615271928218274 25.615271928218274 25.615271928218274 25.615271928218274 25.637245925654643 25.615271928218274 25.615271928218274 25.637245925654643 25.615271928218274 25.615271928218274 25.615271928218274 25.615271928218274 25.615271928218274 25.615271928218274 25.615271928218274 25.615271928218274 25.615271928218274 25.615271928218274 25.615271928218274 25.615271928218274 25.615271928218274 25.615271928218274 25.615271928218274 25.615271928218274 25.615271928218274 25.615271928218274 25.615271928218274 25.637245925654643 25.615271928218274 25.615271928218274 25.615271928218274 25.615271928218274 25.615271928218274 25.615271928218274 25.637245925654643 25.637245925654643 25.615271928218274 25.637245925654643 25.637245925654643 25.615271928218274 25.615271928218274 25.637245925654643 25.637245925654643 25.615271928218274 25.637245925654643 25.637245925654643 25.637245925654643 25.637245925654643 25.637245925654643 25.637245925654643 25.637245925654643 25.637245925654643 25.637245925654643 25.637245925654643 25.637245925654643 25.637245925654643 25.637245925654643 25.637245925654643 25.637245925654643 25.637245925654643 25.615271928218274 25.637245925654643 25.637245925654643 25.637245925654643 25.637245925654643 25.637245925654643 25.637245925654643 25.637245925654643 25.637245925654643 25.637245925654643 25.637245925654643 25.637245925654643 25.65921992309101 25.65921992309101 25.65921992309101 25.681193920527377 25.703167917963743 25.769089910272843 25.900933894891047 26.032777879509247 26.23054385643655 26.42830983336385 26.626075810291155 26.845815784654825 27.10950375389123 27.461087712873102 27.81267167185497 28.09833363852774 28.427943600073245 28.64768357443692 28.867423548800588 29.240981505218826 29.438747482146127 29.70243545138253 29.9221754257462 30.032045412928035 30.273759384728073 30.339681377037174 30.405603369346274 30.44955136421901 30.51547335652811 30.559421351400843 30.647317341146312 30.757187328328143 30.86705731550998 30.976927302691813 31.08679728987365 31.28456326680095 31.41640725141915 31.68009522065556 31.81193920527376 32.0536531770738 32.3173411463102 32.5151071232375 32.91063907709211 33.32814502838308 33.61380699505585 34.09723493865592 34.42684490020143 34.9102728438015 35.43764878227431 35.78923274125618 36.294634682292624 36.822010620765425 37.2395165720564 37.7668925105292 38.22834645669291 38.93151437465666 39.876396264420436 40.35982420802051 40.84325215162058 41.54642006958433 42.27156198498443 42.930781908075446 43.392235854239146 44.139351767075624 44.8864676799121 45.41384361838491 46.02911554660319 47.061893426112434 47.65519135689434 48.60007324665812 49.2153451748764 50.094305072331075 51.01721296465848 51.6764328877495 52.55539278520418 53.478300677531585 54.22541659036806 55.01648049807727 55.96136238784105 56.840322285295734 57.52151620582311 58.35652810840505 58.9937740340597 59.850759934078006 60.81761582127815 61.74052371360557 62.37776963926021 63.366599523896724 64.35542940853324 65.0366233290606 66.1133492034426 67.12415308551547 67.89324299578831 68.81615088811573 69.4973448086431 70.46420069584326 71.73869254715254 72.48580845998902 73.03515839589818 73.65043032411646 74.57333821644387 75.45229811389855 76.3532320087896 77.21021790880792 78.0891778062626 78.66050173960812 79.47353964475371 80.06683757553562 80.85790148324483 81.62699139351767 82.17634132942685 82.96740523713606 83.71452114997254 84.24189708844534 85.2087529756455 85.62625892693646 86.17560886284564 86.87877678080937 87.34023072697309 87.99945065006409 88.87841054751877 89.31789049624611 89.93316242446438 90.30672038088262 90.7242263321736 91.2516022706464 91.62516022706464 92.30635414759202 92.74583409631936 93.03149606299212 93.383080021974 93.62479399377403 93.93242995788317 94.17414392968321 94.30598791430141 94.45980589635599 94.54770188610145 94.59164988097419 94.59164988097419 94.59164988097419 94.59164988097419 94.54770188610145 94.39388390404687 94.08624793993773 93.71268998351951 93.29518403222853 92.8557040835012 92.50412012451932 92.02069218091924 91.69108221937374 91.14173228346456 90.7901483244827 90.04303241164622 89.66947445522798 88.90038454495513 88.68064457059147 88.10932063724593 87.55997070133675 87.14246475004578 86.54916681926387 86.15363486540927 85.6042849295001 85.03296099615454 84.65940303973632 84.11005310382714 83.56070316791798 83.18714521149973 82.63779527559055 82.06647134224502 81.71488738326315 81.18751144479035 80.63816150888115 80.28657754989928 79.75920161142648 79.18787767808094 78.66050173960812 78.2869437831899 77.49587987548068 77.12232191906244 76.70481596777148 76.06757004211683 75.47427211133493 75.05676616004395 74.41952023438931 74.0239882805347 73.38674235488006 72.74949642922542 72.31001648049809 71.78264054202528 71.21131660867974 70.8377586522615 70.28840871635232 69.67313678813403 69.12378685222487 68.50851492400659 68.15693096502471 67.62955502655191 67.08020509064274 66.46493316242447 65.89360922907892 65.47610327778796 64.88280534700604 64.3114814136605 63.915949459805894 63.23475553927852 62.72935359824208 62.33382164438748 61.69657571873283 61.27906976744186 60.641823841787215 59.740889946896175 59.27943600073247 58.59824208020509 58.15876213147775 57.71928218275041 57.060062259659404 56.378868339132026 55.71964841604102 55.06042849295001 54.62094854422267 53.961728621131655 53.720014649331624 52.59934078007691 52.15986083134957 51.72038088262223 51.01721296465848 50.336019044131106 49.940487090276505 49.06152719282183 48.57809924922175 48.13861930049441 47.4134773850943 47.193737410730634 46.64438747482146 46.07306354147592 45.32594762863944 44.7546236952939 44.46896172862113 44.11737776963926 43.721845815784654 43.392235854239146 42.90880791063908 42.33748397729354 42.05182201062077 41.65629005676616 41.34865409265702 41.04101812854789 40.579564182384175 40.315876213147774 39.876396264420436 39.4369163156931 39.12928035158396 38.66782640542025 38.38216443874748 37.96465848745651 37.5032045412928 37.1735945797473 36.756088628456325 36.338582677165356 36.052920710492586 35.52554477201978 35.23988280534701 34.9761948361106 34.58066288225599 34.16315693096502 33.789598974546784 33.372093023255815 33.130379051455776 32.778795092473906 32.55905511811024 32.2514191540011 32.00970518220106 31.855887200146494 31.59219923091009 31.46035524629189 31.328511261673686 31.130745284746382 31.020875297564547 30.801135323200878 30.537447353964474 30.36165537447354 30.097967405237135 29.834279436000735 29.54861746932796 29.350851492400658 29.021241530855153 28.801501556491484 28.362021607764145 28.12030763596411 27.768723676982237 27.483061710309467 27.153451748763963 26.80186778978209 26.538179820545686 26.164621864127447 25.769089910272843 25.549349935909174 25.43947994872734 25.395531953854604 25.35158395898187 25.329609961545504 25.35158395898187 25.37355795641824 25.37355795641824 25.35158395898187 25.329609961545504 25.30763596410914 25.28566196667277 25.28566196667277 25.28566196667277 25.28566196667277 25.28566196667277 25.28566196667277 25.28566196667277 25.28566196667277 25.241713971800035 25.21973997436367 25.21973997436367 25.197765976927304 25.175791979490935 25.175791979490935 25.197765976927304 25.175791979490935 25.197765976927304 25.175791979490935 25.175791979490935 25.175791979490935 25.175791979490935 25.175791979490935 25.175791979490935 25.175791979490935 25.175791979490935 25.175791979490935 25.175791979490935 25.175791979490935 25.175791979490935 25.175791979490935 25.175791979490935 25.175791979490935 25.175791979490935 25.175791979490935 25.175791979490935 25.175791979490935 25.175791979490935 25.175791979490935 25.175791979490935 25.175791979490935 25.175791979490935 25.175791979490935 25.175791979490935 25.175791979490935 25.175791979490935 25.175791979490935 25.175791979490935 25.175791979490935 25.175791979490935 25.175791979490935 25.175791979490935 25.175791979490935 25.175791979490935 25.175791979490935 25.175791979490935 25.175791979490935 25.175791979490935 25.175791979490935 25.175791979490935 25.175791979490935 25.175791979490935 25.175791979490935 25.175791979490935 25.175791979490935 25.175791979490935 25.175791979490935 25.175791979490935 25.175791979490935 25.175791979490935 25.175791979490935 25.175791979490935 25.175791979490935 25.175791979490935 25.175791979490935 25.175791979490935 25.175791979490935 25.175791979490935 25.175791979490935 25.175791979490935 25.175791979490935 25.175791979490935 25.175791979490935 25.175791979490935 25.175791979490935 25.175791979490935 25.175791979490935 25.175791979490935 25.175791979490935 25.175791979490935 25.175791979490935 25.175791979490935 25.175791979490935 25.175791979490935 25.175791979490935 25.175791979490935 25.175791979490935 25.175791979490935 25.175791979490935 25.175791979490935 25.175791979490935 25.175791979490935 25.175791979490935 25.175791979490935 25.175791979490935 25.175791979490935 25.175791979490935 25.175791979490935 25.175791979490935 25.175791979490935 25.175791979490935 25.175791979490935 25.175791979490935 25.175791979490935 25.175791979490935 25.175791979490935 25.175791979490935 25.175791979490935 25.175791979490935 25.175791979490935 25.175791979490935 25.175791979490935 25.175791979490935 25.175791979490935 25.175791979490935 25.175791979490935 25.175791979490935 25.175791979490935 25.197765976927304 25.175791979490935 25.175791979490935 25.175791979490935 25.175791979490935 25.175791979490935 25.175791979490935 25.175791979490935 25.175791979490935 25.175791979490935 25.175791979490935 25.175791979490935 25.175791979490935 25.175791979490935 25.175791979490935 25.175791979490935 25.175791979490935 25.175791979490935 25.175791979490935 25.175791979490935 25.175791979490935 25.175791979490935 25.175791979490935 25.15381798205457 25.175791979490935 25.175791979490935 25.175791979490935 25.175791979490935 25.175791979490935 25.175791979490935 25.175791979490935 25.175791979490935 25.175791979490935 25.175791979490935 25.175791979490935 25.175791979490935 25.175791979490935 25.175791979490935 25.175791979490935 25.175791979490935 25.175791979490935 25.175791979490935 25.175791979490935 25.175791979490935 25.175791979490935 25.175791979490935 25.175791979490935 25.175791979490935 25.175791979490935 25.175791979490935 25.175791979490935 25.175791979490935 25.175791979490935 25.175791979490935 25.175791979490935 25.175791979490935 25.175791979490935 25.175791979490935 25.175791979490935 25.15381798205457 25.175791979490935 25.175791979490935 25.15381798205457 25.175791979490935 25.175791979490935 25.175791979490935 25.175791979490935 25.175791979490935 25.15381798205457 25.15381798205457 25.15381798205457 25.15381798205457 25.175791979490935 25.175791979490935 25.15381798205457 25.15381798205457 25.175791979490935 25.15381798205457 25.15381798205457 25.175791979490935 25.15381798205457 25.15381798205457 25.175791979490935 25.15381798205457 25.15381798205457 25.15381798205457 25.15381798205457 25.15381798205457 25.15381798205457 25.15381798205457 25.15381798205457 25.15381798205457 25.15381798205457 25.15381798205457 25.15381798205457 25.15381798205457 25.15381798205457 25.15381798205457 25.15381798205457 25.15381798205457 25.15381798205457 25.15381798205457 25.15381798205457 25.175791979490935 25.15381798205457 25.15381798205457 25.15381798205457 25.15381798205457 25.15381798205457 25.15381798205457 25.15381798205457 25.15381798205457 25.15381798205457 25.15381798205457 25.15381798205457 25.15381798205457 25.15381798205457 25.15381798205457 25.15381798205457 25.175791979490935 25.175791979490935 25.15381798205457 25.15381798205457 25.15381798205457 25.175791979490935 25.175791979490935 25.15381798205457 25.175791979490935 25.15381798205457 25.175791979490935 25.175791979490935 25.15381798205457 25.175791979490935 25.175791979490935 25.15381798205457 25.15381798205457 25.175791979490935 25.175791979490935 25.175791979490935 25.197765976927304 25.197765976927304 25.241713971800035 25.28566196667277 25.329609961545504 25.461453946163708 25.527375938472808 25.593297930781908 25.681193920527377 25.747115912836477 25.966855887200147 26.120673869254716 26.36238784105475 26.97765976927303 27.329243728254898 27.724775682109502 28.25215162058231 28.64768357443692 29.284929500091557 29.944149423182566 30.405603369346274 31.108771287310017 31.59219923091009 32.2514191540011 32.91063907709211 33.525911005310384 33.89946896172862 34.66855887200147 35.02014283098333 35.34975279252884 35.67936275407435 36.09686870536532 36.668192638710856 36.975828602819995 37.45925654642007 38.00860648232924 38.42611243362022 38.97546236952939 39.239150338765796 40.052188243911374 40.73338216443875 41.19483611060245 41.89800402856619 42.55722395165721 43.01867789782091 44.007507782457424 44.2931697491302 44.97436366965757 45.69950558505768 46.182933528657756 46.93004944149423 48.00677531587621 48.90770921076726 49.45705914667643 50.072331074894706 50.643655008240245 51.56656290056766 52.1378868339132 53.280534700604285 54.137520600622594 54.70884453396813 55.52188243911371 56.07123237502289 56.8622962827321 57.58743819813221 58.09284013916865 58.8619300494415 59.56509796740524 60.070499908441676 60.77366782640542 61.47683574436916 61.9163156930965 62.57553561618751 62.993041567478485 63.564365500824024 63.95989745467863 64.75096136238784 65.32228529573338 65.69584325215162 66.06940120856986 66.61875114447903 67.19007507782457 67.76139901117011 68.13495696758835 68.72825489837027 69.34352682658854 69.78300677531587 70.42025270097052 71.0355246291888 71.45303058047976 72.09027650613442 72.48580845998902 73.05713239333456 73.7603003112983 74.13385826771653 74.48544222669841 75.03479216260759 75.21058414209853 75.65006409082585 76.13349203442593 76.46310199597144 77.12232191906244 77.53982787035342 77.91338582677164 78.44076176524446 79.05603369346274 79.69327961911739 80.30855154733565 80.79197949093573 81.47317341146311 81.95660135506317 82.65976927302691 83.38491118842703 83.8683391320271 84.59348104742722 85.07690899102728 85.78007690899102 86.46127082951841 86.9227247756821 87.58194469877311 88.24116462186413 88.70261856802784 89.33986449368247 89.93316242446438 90.52646035524629 91.07581029115548 91.40542025270096 91.88884819630104 92.32832814502838 92.63596410913752 93.1193920527376 93.2512360373558 93.5149240065922 93.73466398095587 93.86650796557407 93.97637795275591 93.99835195019227 94.02032594762865 94.02032594762865 93.99835195019227 93.99835195019227 93.75663797839223 93.58084599890131 93.27321003479217 93.1193920527376 92.81175608862846 92.41622413477386 91.99871818348288 91.60318622962828 91.1856802783373 90.90001831166454 90.4605383629372 90.21882439113715 89.75737044497345 89.31789049624611 89.01025453213697 88.61472257828237 88.15326863211865 87.86760666544589 87.27430873466398 87.09851675517305 86.68101080388207 86.21955685771837 85.9338948910456 85.51638893975462 84.96703900384546 84.63742904229994 84.21992309100898 84.0001831166453 83.64859915766343 83.2091192089361 82.90148324482695 82.28621131660869 81.67093938839041 81.42922541659037 81.0117194652994 80.66013550631753 80.17670756271745 79.69327961911739 79.31972166269914 78.85826771653544 78.39681377037172 78.06720380882624 77.60574986266252 77.0783739241897 76.7487639626442 76.24336202160777 75.86980406518953 75.32045412928035 74.74913019593481 74.33162424464385 73.562534334371 73.18897637795277 72.81541842153452 72.0243545138253 71.60684856253434 70.94762863944334 70.55209668558872 69.8928767624977 69.25563083684307 68.8381248855521 68.22285295733383 67.60758102911555 67.19007507782457 66.61875114447903 66.22321919062443 65.67386925471524 65.12451931880608 64.75096136238784 64.1796374290423 63.608313495696756 63.16883354696942 62.26789965207837 61.7844717084783 61.25709577000549 60.33418787767808 59.82878593664164 59.367331990477936 58.68613806995056 58.00494414942318 57.34572422633217 56.906244277604834 56.312946346822926 55.69767441860465 55.28016846731368 54.4671305621681 54.071598608313494 53.698040651895255 53.192638710858816 52.841054751876946 52.357626808276876 51.78630287493133 51.63248489287676 51.28090093389489 50.92931697491302 50.511811023622045 50.248123054385644 49.786669108221936 49.4131111518037 49.03955319538546 48.77586522614906 48.53415125434902 48.07269730818531 47.85295733382164 47.47939937740341 47.215711408167 46.79820545687603 46.358725508148694 46.07306354147592 45.43581761582128 45.12818165171214 44.77659769273027 44.11737776963926 43.74381981322102 43.392235854239146 42.62314594396631 42.20563999267533 41.67826405420253 41.28273210034792 40.88720014649331 40.447720197765975 40.118110236220474 39.524812305438566 39.12928035158396 38.86559238234756 38.51400842336568 38.40413843618385 38.11847646951108 37.78886650796557 37.61307452847464 37.3713605566746 37.129646584874564 36.975828602819995 36.778062625892694 36.668192638710856 36.470426661783556 36.294634682292624 36.16279069767442 35.96502472074712 35.76725874381981 35.56949276689251 35.37172678996521 35.19593481047427 35.02014283098333 34.82237685405603 34.62461087712873 34.31697491301959 33.92144295916499 33.723676982237684 33.39406702069218 33.240249038637614 32.88866507965574 32.62497711041934 32.47115912836477 32.27339315143747 32.1195751693829 32.00970518220106 31.921809192455594 31.855887200146494 31.767991210401025 31.72404321552829 31.68009522065556 31.636147225782825 31.59219923091009 31.52627723860099 31.394433253982786 31.30653726423732 31.196667277055482 30.735213330891778 30.691265336019043 30.44955136421901 30.119941402673504 29.878227430873466 29.570591466764327 29.350851492400658 29.043215528291523 28.75755356161875 28.581761582127815 28.34004761032778 28.18622962827321 28.010437648782275 27.834645669291337 27.658853689800402 27.548983702618568 27.373191723127633 27.263321735945798 27.02160776414576 26.867789782091194 26.626075810291155 26.406335835927486 26.14264786669108 25.922907892327412 25.593297930781908 25.43947994872734 25.329609961545504 25.30763596410914 25.263687969236404 25.263687969236404 25.263687969236404 25.263687969236404 25.263687969236404 25.263687969236404 25.241713971800035 25.21973997436367 25.21973997436367 25.197765976927304 25.197765976927304 25.197765976927304 25.197765976927304 25.197765976927304 25.197765976927304 25.197765976927304 25.197765976927304 25.197765976927304 25.197765976927304 25.197765976927304 25.197765976927304 25.175791979490935 25.175791979490935 25.175791979490935 25.175791979490935 25.175791979490935 25.175791979490935 25.175791979490935 25.15381798205457 25.15381798205457 25.175791979490935 25.15381798205457 25.15381798205457 25.15381798205457 25.15381798205457 25.15381798205457 25.15381798205457 25.15381798205457 25.15381798205457 25.15381798205457 25.15381798205457 25.15381798205457 25.15381798205457 25.15381798205457 25.15381798205457 25.15381798205457 25.15381798205457 25.15381798205457 25.15381798205457 25.15381798205457 25.15381798205457 25.15381798205457 25.15381798205457 25.15381798205457 25.15381798205457 25.15381798205457 25.15381798205457 25.15381798205457 25.15381798205457 25.15381798205457 25.15381798205457 25.15381798205457 25.15381798205457 25.15381798205457 25.15381798205457 25.15381798205457 25.15381798205457 25.15381798205457 25.15381798205457 25.15381798205457 25.15381798205457 25.15381798205457 25.15381798205457 25.15381798205457 25.15381798205457 25.15381798205457 25.15381798205457 25.15381798205457 25.15381798205457 25.15381798205457 25.15381798205457 25.15381798205457 25.15381798205457 25.15381798205457 25.15381798205457 25.15381798205457 25.15381798205457 25.15381798205457 25.15381798205457 25.15381798205457 25.175791979490935 25.175791979490935 25.15381798205457 25.15381798205457 25.15381798205457 25.175791979490935 25.15381798205457 25.15381798205457 25.175791979490935 25.175791979490935 25.15381798205457 25.175791979490935 25.15381798205457 25.15381798205457 25.15381798205457 25.15381798205457 25.175791979490935 25.15381798205457 25.15381798205457 25.15381798205457 25.15381798205457 25.175791979490935 25.175791979490935 25.15381798205457 25.15381798205457 25.15381798205457 25.15381798205457 25.15381798205457 25.175791979490935 25.175791979490935 25.175791979490935 25.175791979490935 25.15381798205457 25.175791979490935 25.15381798205457 25.175791979490935 25.175791979490935 25.175791979490935 25.15381798205457 25.175791979490935 25.15381798205457 25.15381798205457 25.15381798205457 25.15381798205457 25.175791979490935 25.175791979490935 25.15381798205457 25.175791979490935 25.175791979490935 25.15381798205457 25.175791979490935 25.175791979490935 25.175791979490935 25.15381798205457 25.175791979490935 25.175791979490935 25.175791979490935 25.175791979490935 25.175791979490935 25.175791979490935 25.15381798205457 25.175791979490935 25.15381798205457 25.175791979490935 25.175791979490935 25.175791979490935 25.175791979490935 25.15381798205457 25.175791979490935 25.175791979490935 25.175791979490935 25.175791979490935 25.175791979490935 25.175791979490935 25.15381798205457 25.175791979490935 25.175791979490935 25.175791979490935 25.175791979490935 25.175791979490935 25.175791979490935 25.175791979490935 25.175791979490935 25.175791979490935 25.175791979490935 25.175791979490935 25.175791979490935 25.15381798205457 25.15381798205457 25.175791979490935 25.175791979490935 25.175791979490935 25.175791979490935 25.175791979490935 25.175791979490935 25.15381798205457 25.15381798205457 25.15381798205457 25.15381798205457 25.15381798205457 25.15381798205457 25.15381798205457 25.15381798205457 25.15381798205457 25.15381798205457 25.15381798205457 25.15381798205457 25.15381798205457 25.15381798205457 25.15381798205457 25.175791979490935 25.15381798205457 25.15381798205457 25.15381798205457 25.15381798205457 25.15381798205457 25.175791979490935 25.15381798205457 25.15381798205457 25.15381798205457 25.15381798205457 25.15381798205457 25.15381798205457 25.15381798205457 25.15381798205457 25.15381798205457 25.15381798205457 25.15381798205457 25.15381798205457 25.15381798205457 25.175791979490935 25.15381798205457 25.15381798205457 25.15381798205457 25.15381798205457 25.15381798205457 25.15381798205457 25.15381798205457 25.15381798205457 25.15381798205457 25.15381798205457 25.15381798205457 25.15381798205457 25.15381798205457 25.15381798205457 25.15381798205457 25.15381798205457 25.15381798205457 25.15381798205457 25.15381798205457 25.15381798205457 25.15381798205457 25.15381798205457 25.15381798205457 25.15381798205457 25.15381798205457 25.15381798205457 25.15381798205457 25.15381798205457 25.15381798205457 25.15381798205457 25.15381798205457 25.15381798205457 25.15381798205457 25.15381798205457 25.15381798205457 25.15381798205457 25.15381798205457 25.15381798205457 25.15381798205457 25.15381798205457 25.15381798205457 25.15381798205457 25.15381798205457 25.15381798205457 25.15381798205457 25.15381798205457 25.15381798205457 25.175791979490935 25.15381798205457 25.15381798205457 25.15381798205457 25.15381798205457 25.15381798205457 25.15381798205457 25.15381798205457 25.15381798205457 25.15381798205457 25.15381798205457 25.15381798205457 25.15381798205457 25.15381798205457 25.15381798205457 25.175791979490935 25.15381798205457 25.15381798205457 25.15381798205457 25.175791979490935 25.175791979490935 25.175791979490935 25.15381798205457 25.175791979490935 25.15381798205457 25.175791979490935 25.15381798205457 25.175791979490935 25.15381798205457 25.15381798205457 25.15381798205457 25.175791979490935 25.175791979490935 25.15381798205457 25.15381798205457 25.15381798205457 25.175791979490935 25.175791979490935 25.15381798205457 25.15381798205457 25.175791979490935 25.175791979490935 25.175791979490935 25.15381798205457 25.175791979490935 25.15381798205457 25.15381798205457 25.175791979490935 25.175791979490935 25.175791979490935 25.15381798205457 25.175791979490935 25.175791979490935 25.15381798205457 25.175791979490935 25.15381798205457 25.175791979490935 25.175791979490935 25.15381798205457 25.175791979490935 25.175791979490935 25.175791979490935 25.175791979490935 25.175791979490935 25.15381798205457 25.15381798205457 25.15381798205457 25.15381798205457 25.175791979490935 25.175791979490935 25.175791979490935 25.175791979490935 25.175791979490935 25.15381798205457 25.175791979490935 25.175791979490935 25.175791979490935 25.175791979490935 25.15381798205457 25.175791979490935 25.175791979490935 25.175791979490935 25.175791979490935 25.15381798205457 25.175791979490935 25.175791979490935 25.175791979490935 25.175791979490935 25.15381798205457 25.15381798205457 25.15381798205457 25.15381798205457 25.15381798205457 25.15381798205457 25.15381798205457 25.15381798205457 25.15381798205457 25.15381798205457 25.15381798205457 25.15381798205457 25.15381798205457 25.15381798205457 25.15381798205457 25.15381798205457 25.15381798205457 25.15381798205457 25.15381798205457 25.15381798205457 25.15381798205457 25.15381798205457 25.15381798205457 25.15381798205457 25.15381798205457 25.15381798205457 25.15381798205457 25.15381798205457 25.15381798205457 25.15381798205457 25.15381798205457 25.175791979490935 25.15381798205457 25.15381798205457 25.15381798205457 25.15381798205457 25.15381798205457 25.15381798205457 25.15381798205457 25.175791979490935 25.15381798205457 25.15381798205457 25.15381798205457 25.15381798205457 25.15381798205457 25.15381798205457 25.15381798205457 25.15381798205457 25.15381798205457 25.15381798205457 25.15381798205457 25.15381798205457 25.15381798205457 25.15381798205457 25.15381798205457 25.15381798205457 25.15381798205457 25.15381798205457 25.15381798205457 25.175791979490935 25.15381798205457 25.175791979490935 25.15381798205457 25.15381798205457 25.15381798205457 25.15381798205457 25.15381798205457 25.15381798205457 25.15381798205457 25.15381798205457 25.15381798205457 25.15381798205457 25.15381798205457 25.15381798205457 25.15381798205457 25.175791979490935 25.15381798205457 25.15381798205457 25.15381798205457 25.15381798205457 25.15381798205457 25.15381798205457 25.15381798205457 25.15381798205457 25.15381798205457 25.15381798205457 25.15381798205457 25.15381798205457 25.15381798205457 25.15381798205457 25.15381798205457 25.15381798205457 25.15381798205457 25.15381798205457 