25.0 25.0 25.0 24.978026002563634 25.0 24.978026002563634 24.978026002563634 25.0 24.978026002563634 25.0 25.0 25.0 24.978026002563634 24.978026002563634 25.0 25.0 25.0 25.0 25.0 24.978026002563634 24.978026002563634 25.0 25.0 24.978026002563634 24.978026002563634 24.978026002563634 25.0 25.0 25.0 24.978026002563634 25.0 25.0 24.978026002563634 25.0 24.978026002563634 25.0 25.0 25.0 25.0 25.0 24.978026002563634 25.0 25.0 25.0 24.978026002563634 24.978026002563634 25.0 25.0 24.978026002563634 25.0 24.978026002563634 24.978026002563634 24.978026002563634 25.0 24.978026002563634 25.0 24.978026002563634 25.0 25.0 24.978026002563634 25.0 25.0 24.978026002563634 25.0 24.978026002563634 24.978026002563634 25.0 24.978026002563634 24.978026002563634 24.978026002563634 24.978026002563634 25.0 24.978026002563634 24.978026002563634 24.978026002563634 24.978026002563634 24.978026002563634 24.978026002563634 24.978026002563634 24.978026002563634 24.978026002563634 24.978026002563634 24.978026002563634 24.978026002563634 24.978026002563634 24.978026002563634 24.978026002563634 24.978026002563634 24.978026002563634 24.978026002563634 24.978026002563634 24.978026002563634 24.978026002563634 24.978026002563634 24.978026002563634 24.978026002563634 24.978026002563634 24.978026002563634 24.978026002563634 24.978026002563634 24.978026002563634 24.978026002563634 24.978026002563634 24.978026002563634 24.978026002563634 24.978026002563634 24.978026002563634 24.978026002563634 24.978026002563634 24.978026002563634 24.978026002563634 24.978026002563634 24.978026002563634 24.978026002563634 24.978026002563634 24.978026002563634 24.978026002563634 24.978026002563634 24.978026002563634 24.978026002563634 24.978026002563634 24.978026002563634 24.978026002563634 25.0 24.978026002563634 24.978026002563634 24.978026002563634 24.978026002563634 24.978026002563634 24.978026002563634 25.0 25.0 25.0 24.978026002563634 24.978026002563634 25.0 25.0 24.978026002563634 24.978026002563634 25.0 25.0 24.978026002563634 25.0 25.0 25.0 25.0 25.0 25.0 24.978026002563634 25.0 25.0 25.0 25.0 25.0 25.0 25.0 25.0 25.0 25.0 24.978026002563634 25.0 25.0 25.0 25.0 25.0 25.0 25.0 25.0 25.0 25.0 25.0 25.0 25.0 25.0 25.0 25.0 25.0 25.0 24.978026002563634 25.0 25.0 25.0 25.0 25.0 25.0 25.0 25.0 25.0 25.0 25.0 25.0 25.0 25.0 25.0 25.0 25.0 25.0 25.0 25.0 25.0 25.0 25.0 25.0 25.0 25.0 25.0 25.0 25.0 25.0 25.0 25.0 25.0 25.0 25.0 25.0 25.0 25.0 25.0 25.0 25.0 25.0 25.0 24.978026002563634 25.0 25.0 25.0 25.0 24.978026002563634 25.0 25.0 24.978026002563634 24.978026002563634 24.978026002563634 25.0 24.978026002563634 25.0 25.0 25.0 25.0 24.978026002563634 24.978026002563634 24.978026002563634 24.978026002563634 24.978026002563634 24.978026002563634 24.978026002563634 24.978026002563634 24.978026002563634 24.978026002563634 24.978026002563634 24.978026002563634 24.978026002563634 24.978026002563634 24.978026002563634 24.978026002563634 25.0 25.0 24.978026002563634 24.978026002563634 24.978026002563634 24.978026002563634 24.978026002563634 24.978026002563634 24.978026002563634 24.978026002563634 24.978026002563634 24.978026002563634 24.978026002563634 24.978026002563634 24.978026002563634 24.978026002563634 24.978026002563634 24.978026002563634 24.978026002563634 24.978026002563634 24.978026002563634 25.0 24.978026002563634 24.978026002563634 24.978026002563634 24.978026002563634 24.978026002563634 24.978026002563634 24.978026002563634 24.978026002563634 24.978026002563634 24.978026002563634 24.978026002563634 25.0 24.978026002563634 24.978026002563634 24.978026002563634 24.978026002563634 25.0 25.0 24.978026002563634 24.978026002563634 24.978026002563634 24.978026002563634 24.978026002563634 25.0 25.0 25.0 25.0 25.0 25.0 25.0 25.0 24.978026002563634 25.0 24.978026002563634 25.0 25.0 25.0 25.0 25.0 25.0 25.0 25.0 24.978026002563634 24.978026002563634 24.978026002563634 25.0 25.0 25.0 25.0 25.0 25.0 25.0 25.0 25.0 25.0 25.0 24.978026002563634 25.0 25.0 25.0 25.0 24.978026002563634 25.0 25.0 25.0 25.0 25.0 25.0 25.0 25.0 25.0 25.0 25.0 25.0 25.0 25.0 25.0 25.0 25.0 25.0 25.0 25.0 25.0 25.0 25.0 25.0 25.0 25.0 25.0 25.0 25.0 25.0 25.0 25.0 25.0 25.0 25.0 25.0 25.0 25.0 25.0 25.0 25.0 25.0 25.0 25.0 25.0 25.0 25.0 25.0 25.0 24.978026002563634 25.0 25.0 25.0 25.0 25.0 25.0 25.0 25.0 25.0 25.0 25.0 24.978026002563634 25.0 25.0 24.978026002563634 25.0 25.0 24.978026002563634 25.0 25.0 25.0 24.978026002563634 24.978026002563634 25.0 24.978026002563634 24.978026002563634 24.978026002563634 24.978026002563634 24.978026002563634 24.978026002563634 24.978026002563634 24.978026002563634 24.978026002563634 24.978026002563634 24.978026002563634 24.978026002563634 24.978026002563634 24.978026002563634 24.978026002563634 24.978026002563634 24.978026002563634 25.0 24.978026002563634 24.978026002563634 24.978026002563634 24.978026002563634 24.978026002563634 24.978026002563634 24.978026002563634 24.978026002563634 24.978026002563634 24.978026002563634 24.978026002563634 24.978026002563634 24.978026002563634 24.978026002563634 24.978026002563634 24.978026002563634 24.978026002563634 24.978026002563634 24.978026002563634 24.978026002563634 24.978026002563634 24.978026002563634 24.978026002563634 24.978026002563634 24.978026002563634 24.978026002563634 24.978026002563634 24.978026002563634 24.978026002563634 24.978026002563634 24.978026002563634 24.978026002563634 24.978026002563634 24.978026002563634 24.978026002563634 24.978026002563634 24.978026002563634 24.978026002563634 24.978026002563634 25.0 25.0 24.978026002563634 25.0 24.978026002563634 24.978026002563634 25.0 24.978026002563634 25.0 25.0 25.0 25.0 25.0 25.0 25.0 25.0 25.0 25.0 25.0 25.0 25.0 25.0 25.0 24.978026002563634 25.0 24.978026002563634 25.0 25.0 24.978026002563634 24.978026002563634 24.978026002563634 25.0 24.978026002563634 25.0 24.978026002563634 24.978026002563634 24.978026002563634 24.978026002563634 24.978026002563634 24.978026002563634 25.0 24.978026002563634 24.978026002563634 24.978026002563634 25.0 25.0 24.978026002563634 25.0 25.0 25.0 24.978026002563634 25.0 25.0 25.0 25.0 25.0 25.0 25.0 25.0 25.0 25.0 25.0 24.978026002563634 25.0 25.0 25.0 25.0 25.0 25.0 25.0 25.0 25.0 24.978026002563634 25.0 25.0 25.0 25.0 25.0 25.0 24.978026002563634 24.978026002563634 25.0 25.0 25.0 25.0 24.978026002563634 25.0 25.0 25.0 24.978026002563634 25.0 24.978026002563634 24.978026002563634 24.978026002563634 24.978026002563634 24.978026002563634 24.978026002563634 25.0 25.0 25.0 24.978026002563634 24.978026002563634 24.978026002563634 25.0 25.0 24.978026002563634 24.978026002563634 24.978026002563634 24.978026002563634 24.978026002563634 24.978026002563634 24.978026002563634 24.978026002563634 24.978026002563634 24.978026002563634 24.978026002563634 24.978026002563634 24.978026002563634 25.0 24.978026002563634 24.978026002563634 24.978026002563634 24.978026002563634 24.978026002563634 24.978026002563634 24.978026002563634 24.978026002563634 24.978026002563634 24.978026002563634 24.978026002563634 24.978026002563634 24.978026002563634 24.978026002563634 24.978026002563634 24.978026002563634 24.978026002563634 24.978026002563634 24.978026002563634 24.978026002563634 24.978026002563634 24.978026002563634 24.978026002563634 24.978026002563634 24.978026002563634 24.978026002563634 24.978026002563634 24.978026002563634 24.978026002563634 24.978026002563634 24.978026002563634 24.978026002563634 24.978026002563634 24.978026002563634 24.978026002563634 25.0 25.021973997436366 25.021973997436366 25.043947994872735 25.0659219923091 25.08789598974547 25.15381798205457 25.21973997436367 25.30763596410914 25.43947994872734 25.615271928218274 25.769089910272843 25.944881889763778 26.098699871818347 26.186595861563816 26.318439846182017 26.45028383080022 26.626075810291155 26.82384178721846 27.02160776414576 27.263321735945798 27.527009705182202 27.790697674418606 28.03241164621864 28.31807361289141 28.64768357443692 28.97729353598242 29.328877494964292 29.724409448818896 30.119941402673504 30.537447353964474 30.976927302691813 31.37245925654642 31.855887200146494 32.20747115912837 32.712873100164806 33.218275041201245 33.701702984801315 34.207104925837754 34.75645486174693 35.28383080021974 35.81120673869255 36.316608679728986 36.843984618201794 37.3713605566746 37.85478850027467 38.38216443874748 38.90954037722029 39.370994323384 39.898370261856805 40.381798205456874 40.90917414392968 41.37062809009339 41.83208203625709 42.27156198498443 42.71104193371177 43.08459989013001 43.436183849111885 43.85368980040286 44.22724775682109 44.57883171580296 44.86449368247574 45.21607764145761 45.54568760300312 45.83134956967588 46.117011536348656 46.424647500457795 46.66636147225783 47.017945431239696 47.36952939022157 47.74308734663981 48.11664530305805 48.51217725691265 48.92968320820363 49.4131111518037 50.050357077458344 50.79747299029482 51.52261490569492 52.02801684673137 52.53341878776781 54.11554660318623 54.70884453396813 55.25819446987731 55.82951840322285 56.400842336568395 56.972166269913934 57.47756821095037 58.18073612891412 58.81798205456876 59.3233839956052 59.850759934078006 60.40010986998718 60.77366782640542 61.25709577000549 61.6526277238601 62.18000366233291 62.64145760849661 63.01501556491485 63.52041750595129 64.26753341878776 64.59714338033328 65.21241530855156 65.65189525727888 66.1133492034426 66.97033510346091 67.47573704449735 68.22285295733383 68.77220289324299 69.58524079838858 70.44222669840688 71.01355063175242 71.87053653177074 72.72752243178905 73.3647683574437 74.13385826771653 74.70518220106207 75.78190807544406 76.5509979857169 76.8806079472624 77.62772386009888 78.33089177806264 78.96813770371728 79.51748763962644 80.17670756271745 80.79197949093573 81.34132942684491 81.75883537813587 82.28621131660869 82.8135872550815 83.16517121406336 83.7364951474089 84.0661051089544 84.57150704999086 85.05493499359092 85.56033693462736 86.04376487822742 86.37337483977294 86.70298480131844 87.12049075260941 87.40615271928218 87.97747665262773 88.39498260391869 88.6586705731551 89.03222852957333 89.36183849111885 89.62552646035525 89.97711041933712 90.39461637062809 90.7901483244827 91.2516022706464 91.62516022706464 92.17451016297382 92.70188610144663 93.03149606299212 93.58084599890131 93.95440395531953 94.54770188610145 95.11902581944699 95.5145577733016 96.2396996887017 96.6352316425563 96.96484160410182 97.40432155282916 97.7119575169383 98.1074894707929 98.65683940670206 98.94250137337484 99.42592931697492 99.57974729902948 99.79948727339315 100.01922724775682 100.12909723493865 100.2389672221205 100.26094121955686 100.26094121955686 100.26094121955686 100.2389672221205 100.15107123237502 99.88738326313862 99.64566929133859 99.33803332722945 98.92052737593848 98.59091741439298 98.12946346822926 97.77787950924738 97.25050357077458 96.72312763230178 96.3715436733199 95.84416773484709 95.31679179637429 94.94323383995605 94.26203991942867 93.84453396813771 93.42702801684673 92.67991210401026 92.24043215528292 91.60318622962828 90.94396630653726 90.4605383629372 89.77934444240981 89.31789049624611 88.68064457059147 87.99945065006409 87.53799670390038 86.9227247756821 86.35140084233657 85.95586888848196 85.4065189525728 84.98901300128182 84.41768906793627 83.89031312946346 83.51675517304523 82.96740523713606 82.22028932429959 81.80278337300861 81.40725141915401 80.83592748580847 80.37447353964475 79.62735762680828 79.16590368064458 78.52865775498992 77.91338582677164 77.47390587804432 76.83665995238968 76.37520600622597 75.86980406518953 75.34242812671673 74.96887017029849 74.46346822926205 73.91411829335286 73.3647683574437 72.81541842153452 72.39791247024354 72.00238051638894 71.4310565830434 70.99157663431606 70.15656473173412 69.73905878044314 69.05786485991577 68.53048892144295 68.06903497527925 67.56363303424281 67.1681010803882 66.53085515473356 65.93755722395166 65.21241530855156 64.83885735213332 64.1796374290423 63.652261490569494 62.971067570042116 62.59750961362388 62.18000366233291 61.67460172129647 61.27906976744186 60.77366782640542 60.04852591100531 59.652993957150706 59.10364402124153 58.73008606482329 58.31258011353232 57.69730818531404 57.060062259659404 56.444790331441126 55.87346639809559 55.43398644936825 55.01648049807727 54.70884453396813 54.24739058780443 53.829884636513455 53.54422266984069 53.14869071598608 52.75315876213148 52.44552279802234 52.11591283647684 51.76432887749496 51.50064090825856 51.12708295184032 50.77549899285845 50.379967039003844 49.89653909540377 49.3471891594946 48.79783922358543 48.35835927485809 48.00677531587621 47.193737410730634 46.79820545687603 46.27082951840322 45.80937557223952 45.45779161325764 45.0183116645303 44.7546236952939 44.40303973631203 43.897637795275585 43.765793810657385 43.392235854239146 42.996703900384546 42.68906793627541 42.31550997985717 42.05182201062077 41.63431605932979 41.23878410547519 40.93114814136605 40.513642190075075 40.249954220838674 40.030214246475005 39.546786302874935 39.107306354147596 38.79967039003846 38.44808643105658 38.11847646951108 37.54715253616554 36.975828602819995 36.602270646401756 36.052920710492586 35.65738875663798 35.08606482329244 34.53671488738326 34.141182933528654 33.61380699505585 33.130379051455776 32.60300311298297 32.2514191540011 31.921809192455594 31.30653726423732 30.976927302691813 30.735213330891778 30.317707379600805 30.032045412928035 29.900201428309835 29.724409448818896 29.61453946163706 29.48269547701886 29.328877494964292 29.262955502655192 29.153085515473357 29.043215528291523 28.933345541109688 28.75755356161875 28.62570957700055 28.449917597509614 28.12030763596411 27.90056766160044 27.548983702618568 27.17542574620033 26.867789782091194 26.691997802600255 26.626075810291155 26.60410181285479 26.60410181285479 26.60410181285479 26.60410181285479 26.60410181285479 26.60410181285479 26.58212781541842 26.58212781541842 26.58212781541842 26.58212781541842 26.58212781541842 26.58212781541842 26.58212781541842 26.58212781541842 26.560153817982055 26.560153817982055 26.538179820545686 26.538179820545686 26.51620582310932 26.51620582310932 26.51620582310932 26.51620582310932 26.494231825672955 26.494231825672955 26.494231825672955 26.494231825672955 26.494231825672955 26.494231825672955 26.51620582310932 26.494231825672955 26.494231825672955 26.494231825672955 26.494231825672955 26.494231825672955 26.51620582310932 26.494231825672955 26.494231825672955 26.494231825672955 26.494231825672955 26.494231825672955 26.494231825672955 26.494231825672955 26.494231825672955 26.494231825672955 26.494231825672955 26.494231825672955 26.494231825672955 26.494231825672955 26.494231825672955 26.494231825672955 26.494231825672955 26.494231825672955 26.494231825672955 26.494231825672955 26.494231825672955 26.51620582310932 26.494231825672955 26.494231825672955 26.494231825672955 26.51620582310932 26.51620582310932 26.494231825672955 26.494231825672955 26.494231825672955 26.494231825672955 26.494231825672955 26.494231825672955 26.51620582310932 26.494231825672955 26.51620582310932 26.51620582310932 26.51620582310932 26.494231825672955 26.494231825672955 26.494231825672955 26.494231825672955 26.494231825672955 26.494231825672955 26.494231825672955 26.51620582310932 26.494231825672955 26.494231825672955 26.494231825672955 26.494231825672955 26.494231825672955 26.494231825672955 26.494231825672955 26.494231825672955 26.494231825672955 26.494231825672955 26.494231825672955 26.494231825672955 26.494231825672955 26.472257828236586 26.472257828236586 26.45028383080022 26.45028383080022 26.45028383080022 26.42830983336385 26.406335835927486 26.406335835927486 26.406335835927486 26.38436183849112 26.38436183849112 26.36238784105475 26.36238784105475 26.340413843618386 26.340413843618386 26.340413843618386 26.318439846182017 26.318439846182017 26.318439846182017 26.318439846182017 26.318439846182017 26.318439846182017 26.29646584874565 26.29646584874565 26.29646584874565 26.29646584874565 26.29646584874565 26.29646584874565 26.274491851309286 26.274491851309286 26.274491851309286 26.274491851309286 26.274491851309286 26.274491851309286 26.274491851309286 26.274491851309286 26.274491851309286 26.274491851309286 26.274491851309286 26.274491851309286 26.274491851309286 26.274491851309286 26.274491851309286 26.274491851309286 26.274491851309286 26.274491851309286 26.274491851309286 26.274491851309286 26.274491851309286 26.274491851309286 26.274491851309286 26.274491851309286 26.274491851309286 26.274491851309286 26.274491851309286 26.274491851309286 26.274491851309286 26.274491851309286 26.29646584874565 26.29646584874565 26.318439846182017 26.318439846182017 26.340413843618386 26.38436183849112 26.45028383080022 26.51620582310932 26.73594579747299 26.88976377952756 27.10950375389123 27.373191723127633 27.548983702618568 27.90056766160044 28.27412561801868 28.515839589818714 28.91137154367332 29.306903497527927 29.570591466764327 29.966123420618935 30.20783739241897 30.58139534883721 30.954953305255447 31.21864127449185 31.614173228346456 32.0536531770738 32.5151071232375 33.020509064273945 33.61380699505585 33.855520966855885 34.36092290789233 34.82237685405603 35.65738875663798 36.316608679728986 36.778062625892694 37.2395165720564 37.87676249771104 38.29426844900202 39.12928035158396 39.5687603003113 40.140084233656836 40.667460172129644 41.10694012085699 41.65629005676616 42.07379600805713 42.64511994140267 43.282365867057315 43.721845815784654 44.33711774400293 44.97436366965757 45.47976561069402 46.380699505585056 46.908075444057864 47.391503387657934 47.91887932613075 48.44625526460355 49.43508514924007 50.226149056949275 50.75352499542208 51.45669291338582 51.96209485442226 52.44552279802234 53.192638710858816 53.91778062625893 54.5989745467863 55.25819446987731 55.76359641091375 56.488738326313864 56.9941402673503 57.69730818531404 58.44442409815052 58.9937740340597 59.69694195202344 60.48800585973265 61.03735579564182 62.07013367515107 62.64145760849661 63.190807544405786 63.87200146493316 64.42135140084233 65.25636330342428 66.06940120856986 67.01428309833364 67.84929500091559 68.48654092657023 69.1018128547885 70.22248672404322 70.8377586522615 71.7606665445889 72.61765244460722 73.2329243728255 74.11188427028017 74.72715619849845 75.49624610877129 76.26533601904413 76.79271195751694 77.47390587804432 77.93535982420804 78.59457974729904 79.1439296832082 79.73722761399011 80.24262955502655 80.57223951657207 80.92382347555393 81.60501739608131 81.91265336019043 82.22028932429959 82.72569126533602 83.03332722944516 83.42885918329976 83.802417139718 84.08807910639078 84.48361106024538 84.76927302691814 85.07690899102728 85.42849295000916 85.6702069218092 85.97784288591834 86.28547885002747 86.46127082951841 86.74693279619117 86.94469877311849 87.34023072697309 87.62589269364585 87.86760666544589 88.04339864493683 88.28511261673685 88.48287859366417 88.8564365500824 89.07617652444607 89.36183849111885 89.66947445522798 89.84526643471892 90.02105841420986 90.15290239882806 90.19685039370079 90.19685039370079 90.19685039370079 90.19685039370079 90.10895440395532 89.91118842702802 89.55960446804615 89.16407251419155 88.83446255264604 88.15326863211865 87.84563266800953 87.20838674235489 86.68101080388207 86.19758286028201 85.6702069218092 85.2087529756455 84.83519501922726 83.9342611243362 83.42885918329976 82.76963926020875 82.06647134224502 81.53909540377221 80.81395348837209 80.06683757553562 79.56143563449919 78.77037172678996 78.11115180369896 77.40798388573522 76.63889397546237 76.11151803698957 74.79307819080753 74.08991027284381 73.51858633949826 72.94726240615272 72.48580845998902 71.84856253433438 70.74986266251602 70.09064273942502 69.40944881889763 68.81615088811573 68.04706097784288 67.25599707013367 66.75059512909723 65.95953122138803 65.23438930598792 64.72898736495148 63.93792345724226 63.52041750595129 62.79527559055118 62.02618568027834 61.47683574436916 60.77366782640542 60.026551913568944 59.499175975096136 58.79600805713239 57.85112616736861 57.323750228895804 56.884270280168465 56.422816334004764 55.917414392968325 55.36806445705915 54.68687053653177 54.04962461087713 53.368430690349754 53.14869071598608 52.3356528108405 51.85222486724043 51.12708295184032 50.62168101080388 50.182201062076544 49.654825123603736 49.2812671671855 48.86376121589453 48.24848928767625 48.02874931331258 47.67716535433071 47.259659403039734 46.952023438930595 46.556491485075995 46.292803515839594 45.87529756454862 45.58963559787585 45.34792162607581 44.99633766709394 44.820545687603 44.60080571323933 44.38106573887566 44.205273759384724 43.941585790148324 43.699871818348285 43.502105841420985 43.216443874748215 43.01867789782091 42.71104193371177 42.38143197216627 42.1616919978026 41.85405603369347 41.48049807727523 41.21681010803882 40.93114814136605 40.667460172129644 40.162058231093205 39.722578282365866 39.39296832082036 39.08533235671123 38.62387841054752 38.25032045412928 37.54715253616554 37.15162058231093 36.690166636147225 36.20673869254715 35.87712873100165 35.37172678996521 34.93224684123787 34.62461087712873 34.22907892327412 33.943416956601354 33.61380699505585 33.32814502838308 33.130379051455776 32.75682109503754 32.62497711041934 32.4491851309284 32.2514191540011 32.09760117194653 31.87786119758286 31.57022523347372 31.394433253982786 31.108771287310017 30.998901300128182 30.845083318073613 30.647317341146312 30.405603369346274 30.22981138985534 30.054019410364404 29.944149423182566 29.812305438564366 29.70243545138253 29.63651345907343 29.504669474455227 29.41677348470976 29.262955502655192 29.109137520600623 28.999267533418788 28.62570957700055 28.53781358725508 28.31807361289141 27.988463651345906 27.768723676982237 27.373191723127633 27.087529756454863 26.911737776963925 26.779893792345725 26.691997802600255 26.67002380516389 26.626075810291155 26.60410181285479 26.60410181285479 26.58212781541842 26.560153817982055 26.560153817982055 26.560153817982055 26.560153817982055 26.560153817982055 26.560153817982055 26.538179820545686 26.538179820545686 26.538179820545686 26.538179820545686 26.538179820545686 26.538179820545686 26.538179820545686 26.538179820545686 26.51620582310932 26.494231825672955 26.494231825672955 26.494231825672955 26.494231825672955 26.472257828236586 26.494231825672955 26.472257828236586 26.472257828236586 26.472257828236586 26.472257828236586 26.472257828236586 26.472257828236586 26.472257828236586 26.472257828236586 26.472257828236586 26.472257828236586 26.472257828236586 26.472257828236586 26.472257828236586 26.472257828236586 26.472257828236586 26.472257828236586 26.472257828236586 26.472257828236586 26.472257828236586 26.472257828236586 26.472257828236586 26.472257828236586 26.472257828236586 26.472257828236586 26.472257828236586 26.472257828236586 26.472257828236586 26.472257828236586 26.472257828236586 26.472257828236586 26.472257828236586 26.45028383080022 26.45028383080022 26.472257828236586 26.45028383080022 26.472257828236586 26.45028383080022 26.45028383080022 26.45028383080022 26.45028383080022 26.45028383080022 26.45028383080022 26.45028383080022 26.45028383080022 26.45028383080022 26.45028383080022 26.45028383080022 26.45028383080022 26.45028383080022 26.45028383080022 26.45028383080022 26.45028383080022 26.45028383080022 26.45028383080022 26.45028383080022 26.45028383080022 26.45028383080022 26.45028383080022 26.45028383080022 26.45028383080022 26.45028383080022 26.45028383080022 26.45028383080022 26.45028383080022 26.45028383080022 26.45028383080022 26.45028383080022 26.45028383080022 26.45028383080022 26.45028383080022 26.45028383080022 26.45028383080022 26.45028383080022 26.45028383080022 26.45028383080022 26.45028383080022 26.45028383080022 26.45028383080022 26.45028383080022 26.45028383080022 26.45028383080022 26.45028383080022 26.45028383080022 26.45028383080022 26.45028383080022 26.45028383080022 26.45028383080022 26.45028383080022 26.45028383080022 26.45028383080022 26.45028383080022 26.45028383080022 26.45028383080022 26.42830983336385 26.45028383080022 26.45028383080022 26.45028383080022 26.45028383080022 26.45028383080022 26.45028383080022 26.45028383080022 26.45028383080022 26.45028383080022 26.42830983336385 26.42830983336385 26.42830983336385 26.42830983336385 26.42830983336385 26.42830983336385 26.42830983336385 26.42830983336385 26.42830983336385 26.42830983336385 26.42830983336385 26.42830983336385 26.42830983336385 26.42830983336385 26.42830983336385 26.42830983336385 26.42830983336385 26.42830983336385 26.42830983336385 26.42830983336385 26.42830983336385 26.42830983336385 26.42830983336385 26.42830983336385 26.42830983336385 26.42830983336385 26.42830983336385 26.406335835927486 26.406335835927486 26.406335835927486 26.42830983336385 26.406335835927486 26.406335835927486 26.406335835927486 26.406335835927486 26.406335835927486 26.406335835927486 26.406335835927486 26.406335835927486 26.406335835927486 26.406335835927486 26.406335835927486 26.406335835927486 26.406335835927486 26.406335835927486 26.406335835927486 26.406335835927486 26.406335835927486 26.406335835927486 26.406335835927486 26.406335835927486 26.38436183849112 26.406335835927486 26.406335835927486 26.406335835927486 26.406335835927486 26.406335835927486 26.38436183849112 26.406335835927486 26.406335835927486 26.406335835927486 26.406335835927486 26.406335835927486 26.406335835927486 26.38436183849112 26.406335835927486 26.406335835927486 26.406335835927486 26.406335835927486 26.406335835927486 26.406335835927486 26.406335835927486 26.406335835927486 26.406335835927486 26.406335835927486 26.406335835927486 26.406335835927486 26.406335835927486 26.406335835927486 26.406335835927486 26.406335835927486 26.38436183849112 26.406335835927486 26.406335835927486 26.406335835927486 26.406335835927486 26.406335835927486 26.406335835927486 26.406335835927486 26.406335835927486 26.406335835927486 26.406335835927486 26.42830983336385 26.45028383080022 26.494231825672955 26.58212781541842 26.691997802600255 26.97765976927303 27.197399743636698 27.461087712873102 28.010437648782275 28.362021607764145 28.933345541109688 29.48269547701886 29.878227430873466 30.42757736678264 30.86705731550998 31.328511261673686 31.87786119758286 32.2514191540011 32.778795092473906 33.306171030946714 33.67972898736495 34.22907892327412 34.62461087712873 35.17396081303791 35.72331074894708 36.14081670023805 36.909906610510895 37.52517853872917 37.98663248489288 38.44808643105658 39.173228346456696 39.678630287493135 40.88720014649331 41.23878410547519 42.40340596960264 42.930781908075446 43.436183849111885 44.05145577733016 44.7546236952939 45.47976561069402 46.380699505585056 47.017945431239696 47.91887932613075 48.86376121589453 49.786669108221936 50.73155099798572 51.30287493133126 51.8741988646768 52.70921076725874 53.588170664713424 54.335286577549894 55.06042849295001 55.56583043398645 56.247024354513826 56.70847830067753 57.169932246841235 57.91704815967771 58.46639809558689 58.94982603918696 59.499175975096136 59.894707928950744 60.444057864859914 60.94945980589635 61.30104376487823 61.80644570591467 62.15802966489654 62.66343160593298 63.190807544405786 63.586339498260394 64.33345541109688 64.72898736495148 65.12451931880608 65.69584325215162 66.13532320087896 66.7725691265336 67.27797106757004 68.06903497527925 68.7062809009339 69.16773484709759 69.84892876762498 70.48617469327962 71.07947262406154 71.58487456509798 72.04632851126168 72.63962644204358 73.21095037538913 73.58450833180737 74.15583226515291 74.68320820362571 75.05676616004395 75.54019410364401 75.86980406518953 76.37520600622597 76.8146859549533 77.34206189342612 77.78154184215344 78.11115180369896 78.4187877678081 78.99011170115364 79.31972166269914 79.58340963193555 80.17670756271745 80.50631752426295 80.98974546786303 81.40725141915401 81.84673136788135 82.19831532686322 82.52792528840871 83.03332722944516 83.53872917048159 83.9342611243362 84.3957150704999 84.87914301409998 85.2087529756455 85.8020509064274 85.9338948910456 86.5271928218275 86.96667277055485 87.18641274491851 87.84563266800953 88.13129463468229 88.41695660135505 88.90038454495513 89.38381248855521 89.77934444240981 90.08698040651895 90.35066837575536 90.68027833730086 90.96594030397362 91.14173228346456 91.27357626808276 91.33949826039188 91.36147225782824 91.36147225782824 91.33949826039188 91.29555026551914 91.00988829884636 90.7901483244827 90.37264237319172 90.04303241164622 89.36183849111885 88.8564365500824 88.43893059879144 87.86760666544589 87.45010071415491 87.05456876030031 86.28547885002747 85.8679728987365 85.27467496795458 84.68137703717268 84.24189708844534 83.6046511627907 83.01135323200879 82.57187328328145 82.00054934993591 81.56106940120857 80.90184947811755 80.28657754989928 79.73722761399011 78.92418970884452 78.30891778062626 77.86943783189892 77.40798388573522 76.99047793444424 76.37520600622597 75.58414209851676 75.14466214978941 74.52939022157113 74.06793627540745 73.65043032411646 73.01318439846182 72.39791247024354 71.82658853689802 71.34316059329794 70.99157663431606 70.48617469327962 70.13459073429775 69.6291887932613 69.1018128547885 68.77220289324299 68.20087895989745 67.60758102911555 67.03625709577 66.66269913935176 66.1133492034426 65.73979124702436 65.25636330342428 64.92675334187878 64.46529939571508 64.02581944698773 63.608313495696756 63.212781541842155 62.94909357260575 62.68540560336935 62.18000366233291 61.96026368796924 61.45486174693279 61.25709577000549 60.97143380333272 60.48800585973265 60.180369895623514 59.916681926387106 59.54312396996887 59.27943600073247 58.90587804431423 58.62021607764146 58.24665812122322 57.85112616736861 57.56546420069584 56.9941402673503 56.686504303241165 56.356894341695664 55.80754440578649 55.49990844167735 55.14832448269547 54.79674052371361 54.5330525544772 54.203442592931694 53.87383263138619 53.654092657022524 53.368430690349754 53.14869071598608 52.863028749313315 52.53341878776781 52.31367881340414 51.96209485442226 51.6105108954404 51.34682292620399 50.92931697491302 50.62168101080388 49.874565097967405 49.50100714154917 49.171397180003666 48.77586522614906 48.49020325947629 48.20454129280351 47.63321735945797 47.325581395348834 46.952023438930595 46.57846548251236 46.314777513275956 45.96319355429409 45.61160959531222 45.36989562351218 45.04028566196667 44.820545687603 44.5568577183666 44.2931697491302 44.02948177989379 43.80974180553012 43.67789782091192 43.52407983885735 43.326313861930046 43.172495879875484 42.864859915766345 42.62314594396631 42.38143197216627 42.11774400292987 41.91997802600257 41.70023805163889 41.30470609778429 40.93114814136605 40.535616187511444 40.140084233656836 39.8324482695477 39.41494231825673 39.15125434902033 38.75572239516572 38.36019044131112 38.05255447720198 37.72294451565647 37.34938655923823 37.019776597692726 36.44845266434719 36.118842702801686 35.74528474638345 35.13001281816517 34.69053286943783 34.22907892327412 33.635780992492215 33.284197033510345 32.97656106940121 32.734847097601175 32.53708112067387 32.20747115912837 32.0536531770738 31.89983519501923 31.72404321552829 31.614173228346456 31.46035524629189 31.30653726423732 31.130745284746382 30.954953305255447 30.801135323200878 30.669291338582678 30.537447353964474 30.44955136421901 30.383629371909905 30.339681377037174 30.29573338216444 30.273759384728073 30.273759384728073 30.251785387291704 30.22981138985534 30.185863394982604 30.163889397546235 30.119941402673504 30.097967405237135 30.032045412928035 29.9880974180553 29.944149423182566 29.878227430873466 29.8562534334371 29.790331441127996 29.746383446255265 29.70243545138253 29.63651345907343 29.61453946163706 29.570591466764327 29.54861746932796 29.54861746932796 29.526643471891596 29.54861746932796 29.54861746932796 29.526643471891596 29.54861746932796 29.54861746932796 29.54861746932796 29.54861746932796 29.54861746932796 29.54861746932796 29.54861746932796 29.54861746932796 29.54861746932796 29.526643471891596 29.526643471891596 29.526643471891596 29.504669474455227 29.526643471891596 29.526643471891596 29.526643471891596 29.526643471891596 29.54861746932796 29.54861746932796 29.54861746932796 29.54861746932796 29.526643471891596 29.54861746932796 29.54861746932796 29.54861746932796 29.54861746932796 29.54861746932796 29.54861746932796 29.54861746932796 29.54861746932796 29.54861746932796 29.54861746932796 29.54861746932796 29.54861746932796 29.54861746932796 29.54861746932796 29.54861746932796 29.54861746932796 29.54861746932796 29.570591466764327 29.570591466764327 29.570591466764327 29.570591466764327 29.592565464200696 29.592565464200696 29.61453946163706 29.61453946163706 29.61453946163706 29.61453946163706 29.61453946163706 29.570591466764327 29.54861746932796 29.526643471891596 29.504669474455227 29.48269547701886 29.48269547701886 29.460721479582496 29.460721479582496 29.460721479582496 29.438747482146127 29.41677348470976 29.41677348470976 29.372825489837027 29.328877494964292 29.306903497527927 29.262955502655192 29.240981505218826 29.175059512909723 29.131111518036988 29.087163523164257 29.043215528291523 29.021241530855153 28.97729353598242 28.955319538546053 28.933345541109688 28.933345541109688 28.933345541109688 28.933345541109688 28.933345541109688 28.933345541109688 28.933345541109688 28.933345541109688 28.933345541109688 28.933345541109688 28.933345541109688 28.933345541109688 28.933345541109688 28.933345541109688 28.933345541109688 28.933345541109688 28.933345541109688 28.933345541109688 28.933345541109688 28.933345541109688 28.933345541109688 28.933345541109688 28.955319538546053 28.933345541109688 28.933345541109688 28.933345541109688 28.933345541109688 28.955319538546053 28.933345541109688 28.933345541109688 28.933345541109688 28.933345541109688 28.933345541109688 28.91137154367332 28.933345541109688 28.933345541109688 28.933345541109688 28.91137154367332 28.91137154367332 28.889397546236953 28.889397546236953 28.867423548800588 28.867423548800588 28.867423548800588 28.867423548800588 28.867423548800588 28.867423548800588 28.84544955136422 28.84544955136422 28.84544955136422 28.84544955136422 28.84544955136422 28.84544955136422 28.84544955136422 28.84544955136422 28.823475553927853 28.84544955136422 28.84544955136422 28.84544955136422 28.84544955136422 28.84544955136422 28.823475553927853 28.823475553927853 28.84544955136422 28.823475553927853 28.84544955136422 28.84544955136422 28.867423548800588 28.91137154367332 28.933345541109688 28.955319538546053 28.97729353598242 28.97729353598242 28.97729353598242 28.97729353598242 28.97729353598242 28.955319538546053 28.955319538546053 28.933345541109688 28.91137154367332 28.889397546236953 28.867423548800588 28.867423548800588 28.84544955136422 28.84544955136422 28.823475553927853 28.823475553927853 28.823475553927853 28.823475553927853 28.823475553927853 28.823475553927853 28.867423548800588 28.97729353598242 29.087163523164257 29.284929500091557 29.570591466764327 29.944149423182566 30.251785387291704 30.58139534883721 31.15271928218275 31.72404321552829 32.185497161692 32.800769089910276 33.48196301043765 33.83354696941952 34.40487090276506 34.7784288591833 35.23988280534701 35.72331074894708 36.00897271561985 36.536348654092656 36.822010620765425 37.1076725874382 37.61307452847464 37.94268449002014 38.40413843618385 38.90954037722029 39.32704632851126 39.722578282365866 40.052188243911374 40.535616187511444 41.12891411829335 41.59036806445706 42.18366599523897 42.798937923457245 43.304339864493684 43.897637795275585 44.38106573887566 45.06225965940304 45.78740157480315 46.402673503021425 47.30360739791247 48.00677531587621 48.55612525178539 49.2812671671855 49.76469511078557 50.248123054385644 51.12708295184032 51.83025086980406 52.15986083134957 52.75315876213148 53.214612708295185 53.698040651895255 54.09357260574986 54.64292254165903 55.19227247756821 55.58780443142282 56.15912836476836 56.70847830067753 57.34572422633217 57.91704815967771 58.35652810840505 58.77403405969603 59.433253982787036 59.938655923823475 60.81761582127815 61.47683574436916 62.00421168284197 62.72935359824208 63.23475553927852 63.762131477751325 64.70701336751512 65.23438930598792 65.95953122138803 66.5088811572972 67.23402307269731 67.95916498809743 68.46456692913387 69.40944881889763 70.11261673686138 70.35433070866142 71.1014466214979 71.60684856253434 72.57370444973449 73.21095037538913 73.6943783189892 74.30965024720747 74.72715619849845 75.21058414209853 75.73796008057133 76.3532320087896 76.90258194469877 77.62772386009888 78.02325581395348 78.39681377037172 78.85826771653544 79.23182567295368 79.73722761399011 80.08881157297199 80.63816150888115 81.1435634499176 81.51712140633583 82.22028932429959 82.54989928584509 82.92345724226331 83.4728071781725 83.82439113715438 84.35176707562718 84.85716901666362 85.38454495513642 85.91192089360922 86.30745284746384 86.68101080388207 87.36220472440945 87.73576268082769 88.4609045962278 88.7905145577733 89.14209851675518 89.60355246291888 90.04303241164622 90.328694378319 90.7242263321736 90.94396630653726 91.3175242629555 91.7130562168101 91.91082219373742 92.17451016297382 92.35030214246476 92.48214612708296 92.63596410913752 92.6579381065739 92.6579381065739 92.6579381065739 92.6579381065739 92.54806811939206 92.28438015015564 92.10858817066472 91.7130562168101 91.4493682475737 90.83409631935542 90.52646035524629 90.15290239882806 89.69144845266435 89.27394250137338 88.81248855520967 88.26313861930049 87.86760666544589 87.27430873466398 86.68101080388207 85.9998168833547 85.42849295000916 85.03296099615454 84.63742904229994 84.08807910639078 83.69254715253618 83.01135323200879 82.52792528840871 82.17634132942685 81.67093938839041 81.2754074345358 80.92382347555393 80.26460355246292 79.82512360373559 79.47353964475371 78.99011170115364 78.70444973448086 78.2869437831899 77.78154184215344 77.47390587804432 76.99047793444424 76.4850759934078 76.13349203442593 75.67203808826221 75.07874015748033 74.57333821644387 74.19978026002565 73.6284563266801 73.27687236769822 72.90331441127998 72.2880424830617 71.8925105292071 71.6288225599707 71.2992125984252 71.1014466214979 70.88170664713422 70.61801867789782 70.35433070866142 70.09064273942502 69.84892876762498 69.65116279069767 69.40944881889763 69.16773484709759 68.92602087529757 68.66233290606115 68.46456692913387 68.17890496246109 67.93719099066105 67.58560703167919 67.05823109320637 66.79454312396996 66.26716718549716 65.95953122138803 65.60794726240616 65.14649331624244 64.72898736495148 64.22358542391504 63.828053470060425 63.586339498260394 63.278703534151255 63.01501556491485 62.839223585423916 62.64145760849661 62.39974363669658 62.24592565464201 62.00421168284197 61.7844717084783 61.5207837392419 61.21314777513276 60.99340780076909 60.68577183665995 60.48800585973265 60.158395898187145 59.652993957150706 59.433253982787036 58.94982603918696 58.66416407251419 58.33455411096869 57.76323017762314 57.41164621864127 56.9282182750412 56.378868339132026 56.00531038271379 55.41201245193188 54.70884453396813 54.4671305621681 53.91778062625893 53.52224867240432 52.906976744186046 52.2038088262223 51.8082768723677 51.17103094671306 50.511811023622045 50.116279069767444 49.52298113898553 49.14942318256729 48.38033327229445 48.11664530305805 47.91887932613075 47.56729536714887 47.36952939022157 47.17176341329427 46.776231459439664 46.534517487639626 46.182933528657756 45.78740157480315 45.45779161325764 44.79857169016664 44.46896172862113 44.09540377220289 43.721845815784654 43.436183849111885 43.01867789782091 42.64511994140267 42.20563999267533 41.78813404138436 41.63431605932979 41.17286211316609 40.68943416956601 40.35982420802051 39.722578282365866 39.239150338765796 38.84361838491119 38.31624244643838 37.94268449002014 37.61307452847464 36.975828602819995 36.646218641274494 36.20673869254715 35.78923274125618 35.48159677714705 35.10803882072881 34.7125068668742 34.47079289507416 34.03131294634682 33.92144295916499 33.61380699505585 33.32814502838308 33.04248306171031 32.82274308734664 32.581029115546606 32.42721113349204 32.16352316425563 32.00970518220106 31.81193920527376 31.52627723860099 31.394433253982786 31.24061527192822 31.08679728987365 31.020875297564547 30.86705731550998 30.779161325764512 30.647317341146312 30.471525361655374 30.405603369346274 30.22981138985534 30.119941402673504 29.900201428309835 29.680461453946165 29.48269547701886 29.240981505218826 29.021241530855153 28.84544955136422 28.62570957700055 28.40596960263688 28.230177623145945 28.142281633400476 28.09833363852774 28.03241164621864 28.010437648782275 28.010437648782275 28.010437648782275 27.988463651345906 27.988463651345906 27.944515656473172 27.87859366416407 27.74674967954587 27.614905694927668 27.395165720564 27.153451748763963 27.02160776414576 26.95568577183666 26.911737776963925 26.911737776963925 26.911737776963925 26.911737776963925 26.911737776963925 26.911737776963925 26.911737776963925 26.911737776963925 26.911737776963925 26.911737776963925 26.911737776963925 26.911737776963925 26.911737776963925 26.911737776963925 26.911737776963925 26.911737776963925 26.911737776963925 26.911737776963925 26.88976377952756 26.88976377952756 26.88976377952756 26.88976377952756 26.911737776963925 26.88976377952756 26.88976377952756 26.88976377952756 26.88976377952756 26.88976377952756 26.911737776963925 26.911737776963925 26.88976377952756 26.911737776963925 26.88976377952756 26.88976377952756 26.911737776963925 26.88976377952756 26.911737776963925 26.88976377952756 26.88976377952756 26.88976377952756 26.88976377952756 26.911737776963925 26.911737776963925 26.88976377952756 26.88976377952756 26.88976377952756 26.88976377952756 26.911737776963925 26.88976377952756 26.88976377952756 26.88976377952756 26.88976377952756 26.88976377952756 26.88976377952756 26.88976377952756 26.88976377952756 26.88976377952756 26.88976377952756 26.88976377952756 26.88976377952756 26.88976377952756 26.88976377952756 26.88976377952756 26.88976377952756 26.88976377952756 26.867789782091194 26.867789782091194 26.867789782091194 26.867789782091194 26.867789782091194 26.867789782091194 26.867789782091194 26.867789782091194 26.867789782091194 26.867789782091194 26.867789782091194 26.867789782091194 26.867789782091194 26.867789782091194 26.867789782091194 26.867789782091194 26.867789782091194 26.867789782091194 26.845815784654825 26.845815784654825 26.82384178721846 26.845815784654825 26.82384178721846 26.82384178721846 26.82384178721846 26.82384178721846 26.80186778978209 26.82384178721846 26.80186778978209 26.80186778978209 26.80186778978209 26.80186778978209 26.80186778978209 26.80186778978209 26.779893792345725 26.779893792345725 26.779893792345725 26.779893792345725 26.779893792345725 26.779893792345725 26.779893792345725 26.779893792345725 26.779893792345725 26.779893792345725 26.779893792345725 26.779893792345725 26.779893792345725 26.779893792345725 26.779893792345725 26.779893792345725 26.757919794909355 26.757919794909355 26.779893792345725 26.779893792345725 26.757919794909355 26.757919794909355 26.779893792345725 26.757919794909355 26.757919794909355 26.757919794909355 26.757919794909355 26.757919794909355 26.757919794909355 26.757919794909355 26.757919794909355 26.757919794909355 26.757919794909355 26.757919794909355 26.757919794909355 26.757919794909355 26.757919794909355 26.757919794909355 26.757919794909355 26.757919794909355 26.757919794909355 26.757919794909355 26.757919794909355 26.757919794909355 26.757919794909355 26.757919794909355 26.757919794909355 26.757919794909355 26.757919794909355 26.757919794909355 26.757919794909355 26.757919794909355 26.757919794909355 26.757919794909355 26.757919794909355 26.757919794909355 26.757919794909355 26.757919794909355 26.757919794909355 26.757919794909355 26.757919794909355 26.757919794909355 26.757919794909355 26.757919794909355 26.757919794909355 26.757919794909355 26.757919794909355 26.779893792345725 26.779893792345725 26.779893792345725 26.757919794909355 26.779893792345725 26.779893792345725 26.779893792345725 26.779893792345725 26.779893792345725 26.779893792345725 26.779893792345725 26.80186778978209 26.80186778978209 26.82384178721846 26.867789782091194 26.88976377952756 26.999633766709394 27.10950375389123 27.241347738509432 27.439113715436733 27.74674967954587 28.03241164621864 28.449917597509614 28.84544955136422 29.438747482146127 29.966123420618935 30.537447353964474 31.08679728987365 31.57022523347372 31.89983519501923 32.42721113349204 32.75682109503754 33.196301043764876 33.61380699505585 33.89946896172862 34.29500091558323 34.55868888481963 34.95422083867423 35.30580479765611 35.59146676432888 35.94305072331075 36.294634682292624 36.51437465665629 36.909906610510895 37.1735945797473 37.65702252334737 38.14045046694744 38.64585240798389 39.41494231825673 39.810474272111335 40.27192821827504 40.953122138802414 41.54642006958433 41.98590001831167 42.798937923457245 43.304339864493684 44.02948177989379 44.79857169016664 45.39186962094854 46.09503753891229 46.64438747482146 47.391503387657934 48.13861930049441 48.68796923640359 49.43508514924007 50.006409082585606 51.083134956967584 51.83025086980406 52.46749679545871 53.14869071598608 53.632118659586155 54.22541659036806 55.17029848013185 55.65372642373192 56.356894341695664 57.038088262223035 57.58743819813221 58.09284013916865 58.70811206738693 59.14759201611427 59.76286394433254 60.202343893059876 60.795641823841784 61.38893975462369 62.02618568027834 62.64145760849661 63.080937557223955 63.498443508514924 64.13568943416956 64.66306537264236 65.717817249588 66.39901117011536 66.66269913935176 67.58560703167919 68.11298297015199 68.59641091375207 69.16773484709759 69.6291887932613 70.24446072147958 70.8377586522615 71.32118659586156 71.80461453946164 72.35396447537082 72.72752243178905 73.21095037538913 73.6284563266801 74.04596227797106 74.50741622413477 74.81505218824393 75.45229811389855 75.75993407800769 76.06757004211683 76.52902398828054 76.8806079472624 77.23219190624428 77.84746383446256 78.1550997985717 78.59457974729904 78.92418970884452 79.25379967039004 79.86907159860831 80.22065555759019 80.70408350119027 81.23145943966307 81.69291338582677 82.11041933711775 82.48397729353599 83.03332722944516 83.56070316791798 84.0001831166453 84.50558505768174 85.05493499359092 85.42849295000916 85.97784288591834 86.54916681926387 86.83482878593665 87.27430873466398 87.60391869620949 87.97747665262773 88.13129463468229 88.24116462186413 88.43893059879144 88.54880058597325 88.6586705731551 88.90038454495513 89.03222852957333 89.16407251419155 89.31789049624611 89.38381248855521 89.40578648599158 89.40578648599158 89.38381248855521 89.33986449368247 89.14209851675518 88.7905145577733 88.24116462186413 87.91155466031863 87.60391869620949 87.25233473722761 86.76890679362754 86.2635048525911 85.78007690899102 85.12085698590002 84.54953305255447 84.1320271012635 83.53872917048159 83.12122321919063 82.65976927302691 81.82475737044497 81.38527742171763 80.77000549349935 80.11078557040835 79.62735762680828 78.6824757370445 78.13312580113532 77.62772386009888 76.8806079472624 76.3532320087896 75.67203808826221 75.05676616004395 74.41952023438931 73.8262223036074 73.38674235488006 72.88134041384362 72.24409448818898 71.69474455227981 70.81578465482514 70.28840871635232 69.6291887932613 68.88207288042483 68.09100897271563 67.47573704449735 66.97033510346091 66.39901117011536 65.69584325215162 65.23438930598792 64.48727339315144 63.80607947262406 63.300677531587624 62.26789965207837 61.74052371360557 61.19117377769639 60.48800585973265 59.982603918696206 59.27943600073247 58.35652810840505 57.85112616736861 57.235854239150335 56.796374290423 56.356894341695664 55.82951840322285 55.45596044680461 54.77476652627723 54.335286577549894 54.04962461087713 53.654092657022524 53.302508698040654 53.060794726240616 52.731184764695115 52.51144479033144 52.1378868339132 51.7423548800586 51.41274491851309 50.79747299029482 50.46786302874931 50.138253067203806 49.676799121040105 49.39113715436733 48.95165720563999 48.49020325947629 48.02874931331258 47.58926936458524 47.259659403039734 46.995971433803334 46.468595495330526 46.182933528657756 45.72147958249405 45.28199963376671 45.0183116645303 44.66672770554844 44.31514374656656 44.09540377220289 43.80974180553012 43.633949826039185 43.282365867057315 43.128547885002746 42.95275590551181 42.71104193371177 42.53524995422084 42.293535982420806 42.0298480131844 41.83208203625709 41.45852407983885 41.17286211316609 41.084966123420614 40.68943416956601 40.469694195202344 40.249954220838674 39.876396264420436 39.678630287493135 39.39296832082036 39.08533235671123 38.88756637978392 38.62387841054752 38.38216443874748 38.16242446438381 37.87676249771104 37.7009705182201 37.415308551547334 37.15162058231093 36.843984618201794 36.558322651529025 36.360556674601725 36.16279069767442 35.85515473356528 35.67936275407435 35.34975279252884 35.17396081303791 35.08606482329244 34.9761948361106 34.9102728438015 34.86632484892877 34.8443508514924 34.82237685405603 34.7784288591833 34.7125068668742 34.6465848745651 34.49276689251053 34.22907892327412 34.141182933528654 33.92144295916499 33.74565097967405 33.438015015564915 33.152353048892145 32.84471708478301 32.581029115546606 32.40523713605567 32.22944515656473 31.987731184764694 31.855887200146494 31.614173228346456 31.46035524629189 31.30653726423732 31.108771287310017 30.954953305255447 30.823109320637247 30.58139534883721 30.339681377037174 30.20783739241897 30.032045412928035 29.900201428309835 29.746383446255265 29.658487456509796 29.48269547701886 29.394799487273392 29.306903497527927 29.175059512909723 29.087163523164257 28.933345541109688 28.71360556674602 28.55978758469145 28.296099615455045 28.12030763596411 28.010437648782275 27.81267167185497 27.724775682109502 27.461087712873102 27.197399743636698 27.02160776414576 26.80186778978209 26.691997802600255 26.648049807727524 26.60410181285479 26.60410181285479 26.60410181285479 26.60410181285479 26.60410181285479 26.60410181285479 26.58212781541842 26.58212781541842 26.58212781541842 26.58212781541842 26.560153817982055 26.58212781541842 26.560153817982055 26.560153817982055 26.538179820545686 26.538179820545686 26.538179820545686 26.51620582310932 26.51620582310932 26.494231825672955 26.494231825672955 26.472257828236586 26.472257828236586 26.472257828236586 26.472257828236586 26.45028383080022 26.472257828236586 26.472257828236586 26.45028383080022 26.45028383080022 26.45028383080022 26.45028383080022 26.45028383080022 26.45028383080022 26.45028383080022 26.45028383080022 26.45028383080022 26.45028383080022 26.45028383080022 26.45028383080022 26.42830983336385 26.45028383080022 26.45028383080022 26.45028383080022 26.45028383080022 26.45028383080022 26.45028383080022 26.45028383080022 26.45028383080022 26.45028383080022 26.45028383080022 26.45028383080022 26.45028383080022 26.45028383080022 26.45028383080022 26.45028383080022 26.45028383080022 26.45028383080022 26.45028383080022 26.45028383080022 26.45028383080022 26.45028383080022 26.45028383080022 26.45028383080022 26.45028383080022 26.45028383080022 26.45028383080022 26.45028383080022 26.45028383080022 26.45028383080022 26.45028383080022 26.45028383080022 26.45028383080022 26.45028383080022 26.45028383080022 26.45028383080022 26.45028383080022 26.45028383080022 26.45028383080022 26.45028383080022 26.45028383080022 26.45028383080022 26.45028383080022 26.42830983336385 26.45028383080022 26.45028383080022 26.45028383080022 26.45028383080022 26.45028383080022 26.45028383080022 26.45028383080022 26.45028383080022 26.45028383080022 26.45028383080022 26.45028383080022 26.45028383080022 26.45028383080022 26.45028383080022 26.45028383080022 26.45028383080022 26.45028383080022 26.45028383080022 26.45028383080022 26.45028383080022 26.45028383080022 26.45028383080022 26.472257828236586 26.45028383080022 26.45028383080022 26.45028383080022 26.45028383080022 26.45028383080022 26.45028383080022 26.45028383080022 26.45028383080022 26.45028383080022 26.45028383080022 26.45028383080022 26.45028383080022 26.45028383080022 26.45028383080022 26.45028383080022 26.45028383080022 26.45028383080022 26.45028383080022 26.45028383080022 26.45028383080022 26.45028383080022 26.45028383080022 26.42830983336385 26.42830983336385 26.42830983336385 26.42830983336385 26.42830983336385 26.42830983336385 26.42830983336385 26.42830983336385 26.42830983336385 26.42830983336385 26.42830983336385 26.42830983336385 26.42830983336385 26.42830983336385 26.406335835927486 26.406335835927486 26.42830983336385 26.406335835927486 26.406335835927486 26.406335835927486 26.406335835927486 26.406335835927486 26.406335835927486 26.406335835927486 26.406335835927486 26.406335835927486 26.406335835927486 26.406335835927486 26.406335835927486 26.406335835927486 26.406335835927486 26.38436183849112 26.406335835927486 26.406335835927486 26.406335835927486 26.38436183849112 26.406335835927486 26.406335835927486 26.38436183849112 26.406335835927486 26.406335835927486 26.406335835927486 26.406335835927486 26.38436183849112 26.406335835927486 26.406335835927486 26.406335835927486 26.38436183849112 26.38436183849112 26.406335835927486 26.406335835927486 26.406335835927486 26.406335835927486 26.406335835927486 26.406335835927486 26.42830983336385 26.472257828236586 26.51620582310932 26.58212781541842 26.691997802600255 26.867789782091194 27.04358176158213 27.505035707745833 27.768723676982237 28.05438564365501 28.49386559238235 28.84544955136422 29.350851492400658 30.010071415491666 30.471525361655374 30.889031312946347 31.30653726423732 31.65812122321919 32.42721113349204 32.866691082219376 33.416041018128546 33.96539095403772 34.31697491301959 34.8443508514924 35.21790880791064 35.70133675151071 36.16279069767442 36.51437465665629 37.019776597692726 37.48123054385644 37.8328145028383 38.33821644387475 38.82164438747482 39.173228346456696 39.612708295184035 39.942318256729536 40.601538179820544 40.90917414392968 41.32668009522065 41.81010803882073 42.13971800036623 42.53524995422084 42.996703900384546 43.348287859366415 43.74381981322102 44.05145577733016 44.53488372093023 45.0183116645303 45.36989562351218 45.87529756454862 46.358725508148694 46.93004944149423 47.2816334004761 47.67716535433071 48.49020325947629 49.06152719282183 49.369163156930966 50.182201062076544 50.599707013367514 51.06116095953122 51.96209485442226 52.44552279802234 53.08276872367698 53.785936641640724 54.29133858267717 54.92858450833181 55.58780443142282 56.09320637245926 56.598608313495696 56.972166269913934 57.52151620582311 58.00494414942318 58.51034609045962 59.0596960263688 59.2574620032961 59.521149972532506 59.850759934078006 60.114447903314414 60.597875846914484 60.94945980589635 61.21314777513276 61.6526277238601 61.93828969053287 62.24592565464201 63.124885552096686 63.564365500824024 63.93792345724226 64.42135140084233 64.7729353598242 65.30031129829702 65.89360922907892 66.2451931880608 66.72862113166087 67.12415308551547 67.69547701886101 68.22285295733383 68.8381248855521 69.3655008240249 69.87090276506135 70.31038271378868 70.77183665995238 71.18934261124336 71.78264054202528 72.57370444973449 72.99121040102546 73.562534334371 73.95806628822561 74.28767624977111 74.94689617286213 75.27650613440761 75.71598608313496 76.15546603186229 76.44112799853508 76.8146859549533 77.05639992675334 77.38600988829884 77.71561984984436 77.9573338216444 78.30891778062626 78.63852774217176 78.90221571140816 79.42959164988098 79.75920161142648 80.04486357809925 80.41842153451748 80.70408350119027 81.2754074345358 81.51712140633583 81.89067936275407 82.26423731917231 82.46200329609962 82.72569126533602 82.96740523713606 83.0772752243179 83.23109320637246 83.40688518586339 83.45083318073613 83.51675517304523 83.58267716535434 83.64859915766343 83.67057315509979 83.69254715253618 83.69254715253618 83.69254715253618 83.69254715253618 83.69254715253618 83.67057315509979 83.67057315509979 83.62662516022706 83.49478117560886 83.12122321919063 82.79161325764511 82.52792528840871 82.11041933711775 81.71488738326315 81.42922541659037 80.98974546786303 80.70408350119027 80.26460355246292 79.95696758835379 79.51748763962644 79.03405969602638 78.6165537447354 78.11115180369896 77.53982787035342 77.12232191906244 76.4850759934078 76.02362204724409 75.07874015748033 74.41952023438931 73.91411829335286 73.4306903497528 72.8373924189709 72.37593847280718 71.54092657022522 71.12342061893426 70.53012268815235 69.84892876762498 69.34352682658854 68.79417689067935 68.13495696758835 67.65152902398827 67.03625709577 66.4429591649881 65.8496612342062 65.21241530855156 64.53122138802416 63.93792345724226 63.300677531587624 62.773301593114816 62.33382164438748 61.93828969053287 61.54275773667826 60.83958981871452 60.48800585973265 60.026551913568944 59.718915949459806 59.3893059879143 58.9278520417506 58.37850210584142 57.89507416224135 57.389672221204904 56.950192272477565 56.57663431605933 56.09320637245926 55.76359641091375 55.32411646218641 54.95055850576817 54.55502655191357 54.09357260574986 53.720014649331624 53.060794726240616 52.68723676982238 52.3356528108405 51.8082768723677 51.43471891594946 50.92931697491302 50.270097051822006 49.89653909540377 49.50100714154917 49.2153451748764 48.92968320820363 48.40230726973082 48.18256729536715 47.80900933894891 47.50137337483977 47.259659403039734 47.017945431239696 46.820179454312395 46.51254349020326 46.22688152353049 46.00714154916682 45.78740157480315 45.56766160043948 45.41384361838491 45.17212964658488 44.93041567478484 44.77659769273027 44.5568577183666 44.31514374656656 44.02948177989379 43.74381981322102 43.502105841420985 43.216443874748215 42.996703900384546 42.75498992858451 42.27156198498443 42.00787401574803 41.63431605932979 41.23878410547519 40.90917414392968 40.513642190075075 40.227980223402305 39.810474272111335 39.41494231825673 39.08533235671123 38.73374839772936 38.36019044131112 37.92071049258378 37.635048525911 37.3713605566746 36.997802600256364 36.58029664896539 36.22871268998352 35.89910272843802 35.48159677714705 35.23988280534701 34.95422083867423 34.7784288591833 34.60263687969236 34.31697491301959 34.16315693096502 33.943416956601354 33.701702984801315 33.459989013001284 33.32814502838308 33.04248306171031 32.88866507965574 32.66892510529207 32.49313312580114 32.27339315143747 32.09760117194653 31.767991210401025 31.50430324116462 31.35048525911005 31.08679728987365 30.86705731550998 30.647317341146312 30.317707379600805 30.119941402673504 29.8562534334371 29.570591466764327 29.328877494964292 29.021241530855153 28.669657571873284 28.427943600073245 28.12030763596411 27.87859366416407 27.570957700054933 27.285295733382164 27.087529756454863 26.757919794909355 26.67002380516389 26.626075810291155 26.60410181285479 26.60410181285479 26.60410181285479 26.60410181285479 26.58212781541842 26.51620582310932 26.45028383080022 26.42830983336385 26.406335835927486 26.38436183849112 26.340413843618386 26.318439846182017 26.29646584874565 26.274491851309286 26.252517853872916 26.23054385643655 26.186595861563816 26.14264786669108 26.120673869254716 26.120673869254716 26.098699871818347 26.098699871818347 26.098699871818347 26.07672587438198 26.07672587438198 26.07672587438198 26.07672587438198 26.07672587438198 26.07672587438198 26.07672587438198 26.07672587438198 26.098699871818347 26.098699871818347 26.07672587438198 26.098699871818347 26.098699871818347 26.07672587438198 26.07672587438198 26.07672587438198 26.07672587438198 26.054751876945616 26.054751876945616 26.054751876945616 26.054751876945616 26.054751876945616 26.054751876945616 26.054751876945616 26.054751876945616 26.054751876945616 26.054751876945616 26.054751876945616 26.054751876945616 26.054751876945616 26.054751876945616 26.054751876945616 26.032777879509247 26.032777879509247 26.032777879509247 26.032777879509247 26.032777879509247 26.032777879509247 26.032777879509247 26.032777879509247 26.032777879509247 26.032777879509247 26.032777879509247 26.032777879509247 26.032777879509247 26.032777879509247 26.032777879509247 26.032777879509247 26.032777879509247 26.032777879509247 26.032777879509247 26.032777879509247 26.032777879509247 26.032777879509247 26.032777879509247 26.032777879509247 26.032777879509247 26.01080388207288 26.032777879509247 26.032777879509247 26.032777879509247 26.032777879509247 26.01080388207288 26.032777879509247 26.01080388207288 26.01080388207288 26.01080388207288 26.032777879509247 26.01080388207288 26.01080388207288 26.01080388207288 26.01080388207288 26.01080388207288 26.01080388207288 26.01080388207288 26.01080388207288 26.01080388207288 26.01080388207288 26.01080388207288 26.032777879509247 26.032777879509247 26.032777879509247 26.01080388207288 26.032777879509247 26.032777879509247 26.032777879509247 26.01080388207288 26.01080388207288 26.032777879509247 26.01080388207288 26.01080388207288 26.01080388207288 26.01080388207288 26.032777879509247 26.01080388207288 26.01080388207288 26.032777879509247 26.01080388207288 26.01080388207288 26.032777879509247 26.032777879509247 26.01080388207288 26.01080388207288 26.01080388207288 26.032777879509247 26.01080388207288 26.01080388207288 26.01080388207288 26.01080388207288 26.01080388207288 26.01080388207288 26.01080388207288 26.01080388207288 26.01080388207288 26.01080388207288 26.01080388207288 26.01080388207288 26.01080388207288 26.01080388207288 26.01080388207288 26.01080388207288 26.01080388207288 26.01080388207288 26.01080388207288 26.01080388207288 26.01080388207288 26.01080388207288 26.01080388207288 26.01080388207288 26.01080388207288 26.01080388207288 26.01080388207288 26.01080388207288 26.01080388207288 26.01080388207288 26.01080388207288 26.01080388207288 26.01080388207288 26.01080388207288 26.01080388207288 26.01080388207288 26.01080388207288 26.01080388207288 26.01080388207288 26.01080388207288 26.01080388207288 26.01080388207288 26.01080388207288 26.01080388207288 26.01080388207288 26.01080388207288 26.01080388207288 26.01080388207288 25.988829884636512 26.01080388207288 26.01080388207288 26.01080388207288 26.01080388207288 26.01080388207288 26.01080388207288 26.01080388207288 26.01080388207288 26.01080388207288 26.01080388207288 26.01080388207288 26.01080388207288 26.01080388207288 26.01080388207288 26.01080388207288 26.01080388207288 26.01080388207288 26.01080388207288 26.032777879509247 26.032777879509247 26.032777879509247 26.054751876945616 26.07672587438198 26.120673869254716 26.164621864127447 26.252517853872916 26.318439846182017 26.494231825672955 26.713971800036624 26.933711774400294 27.373191723127633 27.658853689800402 27.944515656473172 28.38399560520051 28.889397546236953 29.19703351034609 29.8562534334371 30.20783739241897 30.669291338582678 30.976927302691813 31.24061527192822 31.57022523347372 31.702069218091925 31.921809192455594 32.1195751693829 32.47115912836477 32.866691082219376 33.152353048892145 33.701702984801315 33.96539095403772 34.25105292071049 34.6465848745651 34.88829884636513 35.13001281816517 35.43764878227431 35.63541475920161 35.94305072331075 36.16279069767442 36.558322651529025 36.997802600256364 37.327412561801864 37.65702252334737 38.18439846182018 38.73374839772936 39.12928035158396 39.656656290056766 40.030214246475005 40.55759018494781 40.90917414392968 41.43655008240249 41.9639260208753 42.38143197216627 43.216443874748215 43.54605383629372 43.96355978758469 44.53488372093023 44.8864676799121 45.67753158762132 46.20490752609412 46.688335469694195 47.10584142098517 47.43545138253067 47.94085332356711 48.44625526460355 48.86376121589453 49.2812671671855 49.808643105658305 50.182201062076544 50.86339498260392 51.19300494414942 51.56656290056766 52.09393883904047 52.44552279802234 52.994872733931516 53.67606665445889 54.071598608313494 54.57700054934993 54.90661051089544 55.30214246475005 55.82951840322285 56.20307635964109 56.9282182750412 57.47756821095037 57.87310016480498 58.44442409815052 58.88390404687786 59.21351400842337 60.004577916132575 60.53195385460538 61.05932979307819 61.67460172129647 62.13605566746017 62.707379600805716 63.388573521333086 63.762131477751325 64.3774034059696 64.81688335469694 65.45412928035158 66.04742721113348 66.46493316242447 67.29994506500641 67.76139901117011 68.15693096502471 68.77220289324299 69.21168284197034 69.80498077275224 70.59604468046146 71.01355063175242 71.6288225599707 72.04632851126168 72.44186046511629 73.25489837026186 73.6943783189892 74.17780626258927 74.94689617286213 75.25453213697125 75.60611609595313 75.957700054935 76.44112799853508 76.90258194469877 77.23219190624428 77.71561984984436 78.13312580113532 78.46273576268084 79.03405969602638 79.34169566013551 79.671305621681 80.08881157297199 80.50631752426295 80.92382347555393 81.18751144479035 81.60501739608131 82.00054934993591 82.24226332173595 82.44002929866325 82.76963926020875 82.92345724226331 83.01135323200879 83.05530122688153 83.0772752243179 83.05530122688153 83.03332722944516 82.96740523713606 82.76963926020875 82.61582127815419 82.35213330891779 82.13239333455411 81.82475737044497 81.53909540377221 81.18751144479035 80.83592748580847 80.61618751144479 80.37447353964475 80.06683757553562 79.91301959348105 79.69327961911739 79.47353964475371 79.29774766526278 79.07800769089911 78.83629371909907 78.63852774217176 78.39681377037172 78.2210217908808 77.91338582677164 77.64969785753524 77.42995788317158 77.18824391137156 76.92455594213514 76.72678996520784 76.46310199597144 76.26533601904413 75.8258560703168 75.47427211133493 75.16663614722579 74.72715619849845 74.41952023438931 74.06793627540745 73.4966123420619 73.01318439846182 72.55173045229812 72.06830250869804 71.7606665445889 71.32118659586156 70.92565464200696 70.59604468046146 70.22248672404322 69.93682475737045 69.51931880607947 69.01391686504303 68.53048892144295 68.02508698040651 67.54165903680644 67.21204907526095 66.9044131111518 66.59677714704267 66.02545321369712 65.62992125984252 65.36623329060612 64.97070133675152 64.66306537264236 64.3774034059696 63.74015748031496 63.388573521333086 62.79527559055118 62.18000366233291 61.74052371360557 61.14722578282366 60.70774583409632 60.070499908441676 59.41127998535067 58.97180003662333 58.33455411096869 57.69730818531404 57.191906244277604 56.33492034425929 55.80754440578649 55.36806445705915 54.86266251602271 54.42318256729537 53.74198864676799 52.906976744186046 52.48947079289508 51.89617286211316 51.4786669108222 51.10510895440396 50.248123054385644 49.852591100531036 49.588903131294636 49.19337117744003 48.92968320820363 48.51217725691265 48.24848928767625 47.87493133125801 47.47939937740341 47.127815418421534 46.886101446621495 46.534517487639626 46.22688152353049 45.853323567112255 45.39186962094854 45.04028566196667 44.6887017029848 44.3590917414393 43.67789782091192 43.282365867057315 42.842885918329976 42.38143197216627 42.0298480131844 41.67826405420253 41.12891411829335 40.84325215162058 40.42574620032961 40.030214246475005 39.722578282365866 39.305072331074896 38.99743636696576 38.57993041567478 38.18439846182018 37.89873649514741 37.52517853872917 37.063724592565464 36.822010620765425 36.624244643838125 36.44845266434719 36.16279069767442 35.96502472074712 35.83318073612892 35.54751876945615 35.39370078740157 35.17396081303791 34.9761948361106 34.86632484892877 34.66855887200147 34.47079289507416 34.31697491301959 34.11920893609229 33.943416956601354 33.74565097967405 33.39406702069218 33.218275041201245 33.04248306171031 32.82274308734664 32.66892510529207 32.40523713605567 32.2514191540011 31.89983519501923 31.65812122321919 31.46035524629189 31.262589269364586 31.130745284746382 30.976927302691813 30.713239333455412 30.537447353964474 30.317707379600805 30.097967405237135 29.900201428309835 29.658487456509796 29.460721479582496 29.219007507782457 28.933345541109688 28.69163156930965 28.47189159494598 28.230177623145945 27.944515656473172 27.724775682109502 27.548983702618568 27.285295733382164 27.131477751327594 26.911737776963925 26.67002380516389 26.560153817982055 26.51620582310932 26.45028383080022 26.45028383080022 26.42830983336385 26.406335835927486 26.406335835927486 26.406335835927486 26.36238784105475 26.340413843618386 26.29646584874565 26.252517853872916 26.23054385643655 26.186595861563816 26.14264786669108 26.07672587438198 25.988829884636512 25.922907892327412 25.835011902581943 25.791063907709212 25.747115912836477 25.703167917963743 25.65921992309101 25.615271928218274 25.593297930781908 25.571323933345543 25.549349935909174 25.549349935909174 25.527375938472808 25.549349935909174 25.549349935909174 25.549349935909174 25.549349935909174 25.549349935909174 25.549349935909174 25.549349935909174 25.527375938472808 25.527375938472808 25.50540194103644 25.483427943600073 25.483427943600073 25.461453946163708 25.43947994872734 25.417505951290973 25.417505951290973 25.395531953854604 25.395531953854604 25.37355795641824 25.37355795641824 25.35158395898187 25.37355795641824 25.35158395898187 25.35158395898187 25.35158395898187 25.35158395898187 25.35158395898187 25.35158395898187 25.35158395898187 25.35158395898187 25.35158395898187 25.35158395898187 25.35158395898187 25.35158395898187 25.35158395898187 25.35158395898187 25.35158395898187 25.35158395898187 25.35158395898187 25.35158395898187 25.35158395898187 25.35158395898187 25.35158395898187 25.37355795641824 25.37355795641824 25.37355795641824 25.37355795641824 25.37355795641824 25.37355795641824 25.35158395898187 25.37355795641824 25.35158395898187 25.35158395898187 25.35158395898187 25.37355795641824 25.37355795641824 25.37355795641824 25.35158395898187 25.35158395898187 25.35158395898187 25.35158395898187 25.35158395898187 25.35158395898187 25.37355795641824 25.37355795641824 25.35158395898187 25.35158395898187 25.35158395898187 25.35158395898187 25.35158395898187 25.35158395898187 25.35158395898187 25.35158395898187 25.35158395898187 25.35158395898187 25.35158395898187 25.35158395898187 25.35158395898187 25.35158395898187 25.35158395898187 25.35158395898187 25.35158395898187 25.35158395898187 25.35158395898187 25.35158395898187 25.35158395898187 25.35158395898187 25.35158395898187 25.35158395898187 25.35158395898187 25.35158395898187 25.35158395898187 25.329609961545504 25.35158395898187 25.35158395898187 25.35158395898187 25.35158395898187 25.35158395898187 25.35158395898187 25.35158395898187 25.329609961545504 25.35158395898187 25.35158395898187 25.35158395898187 25.35158395898187 25.329609961545504 25.35158395898187 25.35158395898187 25.329609961545504 25.35158395898187 25.329609961545504 25.329609961545504 25.35158395898187 25.35158395898187 25.35158395898187 25.35158395898187 25.35158395898187 25.329609961545504 25.35158395898187 25.35158395898187 25.35158395898187 25.35158395898187 25.35158395898187 25.35158395898187 25.35158395898187 25.35158395898187 25.35158395898187 25.35158395898187 25.329609961545504 25.35158395898187 25.35158395898187 25.35158395898187 25.35158395898187 25.35158395898187 25.35158395898187 25.35158395898187 25.35158395898187 25.35158395898187 25.35158395898187 25.35158395898187 25.35158395898187 25.35158395898187 25.35158395898187 25.35158395898187 25.35158395898187 25.35158395898187 25.35158395898187 25.35158395898187 25.35158395898187 25.35158395898187 25.35158395898187 25.35158395898187 25.35158395898187 25.35158395898187 25.35158395898187 25.35158395898187 25.35158395898187 25.35158395898187 25.35158395898187 25.35158395898187 25.35158395898187 25.35158395898187 25.35158395898187 25.35158395898187 25.35158395898187 25.35158395898187 25.35158395898187 25.35158395898187 25.395531953854604 25.43947994872734 25.549349935909174 25.637245925654643 25.791063907709212 25.988829884636512 26.208569859000182 26.648049807727524 26.911737776963925 27.329243728254898 27.592931697491302 27.856619666727706 28.230177623145945 28.55978758469145 28.823475553927853 29.087163523164257 29.372825489837027 29.76835744369163 30.251785387291704 30.625343343709943 31.174693279619117 31.57022523347372 32.1195751693829 32.734847097601175 33.152353048892145 33.92144295916499 34.27302691814686 34.6465848745651 35.19593481047427 35.67936275407435 36.20673869254715 36.822010620765425 37.5032045412928 38.14045046694744 38.55795641823842 39.01941036440212 39.876396264420436 40.35982420802051 41.019044131111514 41.70023805163889 42.293535982420806 42.930781908075446 43.655923823475554 44.205273759384724 44.97436366965757 45.56766160043948 46.402673503021425 47.215711408167 47.87493133125801 48.70994323383995 49.588903131294636 50.204175059512906 51.06116095953122 51.78630287493133 52.775132759567846 53.566196667277055 54.11554660318623 54.92858450833181 55.49990844167735 56.00531038271379 57.038088262223035 57.58743819813221 58.35652810840505 59.10364402124153 59.69694195202344 60.312213880241714 60.795641823841784 61.43288774949643 62.0481596777147 62.46566562900568 63.036989562351216 63.74015748031496 64.1137154367332 64.46529939571508 64.7729353598242 65.30031129829702 65.78373924189708 66.1792711957517 66.81651712140633 67.29994506500641 67.62955502655191 68.13495696758835 68.46456692913387 68.9699688701703 69.47537081120674 69.84892876762498 70.37630470609778 70.88170664713422 71.32118659586156 72.0243545138253 72.55173045229812 72.9692364035891 73.38674235488006 73.78227430873466 74.39754623695293 75.07874015748033 75.45229811389855 75.97967405237137 76.33125801135323 76.66086797289874 77.10034792162608 77.45193188060796 78.02325581395348 78.4847097601172 78.79234572422632 79.23182567295368 79.5394616370628 79.86907159860831 80.44039553195387 80.72605749862663 81.16553744735396 81.58304339864495 81.91265336019043 82.44002929866325 82.79161325764511 83.14319721662699 83.38491118842703 83.64859915766343 84.0001831166453 84.35176707562718 84.61545504486358 84.90111701153634 85.05493499359092 85.18677897820913 85.36257095770006 85.58231093206373 85.71415491668193 85.82402490386376 85.97784288591834 86.06573887566381 86.10968687053654 86.15363486540927 86.17560886284564 86.15363486540927 86.1316608679729 86.08771287310017 85.71415491668193 85.49441494231826 85.23072697308186 84.81322102179088 84.37374107306354 84.02215711408166 83.6046511627907 83.09924922175426 82.72569126533602 82.35213330891779 81.89067936275407 81.45119941402675 81.12158945248123 80.83592748580847 80.26460355246292 79.97894158579015 79.58340963193555 79.18787767808094 78.85826771653544 78.4187877678081 77.9573338216444 77.64969785753524 77.10034792162608 76.72678996520784 76.17744002929867 75.62809009338949 75.21058414209853 74.63926020875297 74.06793627540745 73.65043032411646 73.12305438564366 72.61765244460722 72.11225050357078 71.58487456509798 71.21131660867974 70.46420069584326 70.11261673686138 69.87090276506135 69.21168284197034 68.68430690349753 68.26680095220655 67.69547701886101 67.27797106757004 66.75059512909723 66.22321919062443 65.8496612342062 65.30031129829702 64.92675334187878 64.39937740340596 63.87200146493316 63.300677531587624 62.79527559055118 62.487639626442046 62.09210767258744 61.54275773667826 60.75169382896905 60.356161875114445 59.740889946896175 59.2574620032961 58.57626808276872 58.07086614173228 57.52151620582311 56.70847830067753 56.049258377586526 55.30214246475005 54.37923457242263 53.91778062625893 53.52224867240432 52.994872733931516 52.68723676982238 52.22578282365867 51.9401208569859 51.5445889031313 51.21497894158579 50.84142098516755 50.48983702618568 50.248123054385644 49.89653909540377 49.69877311847647 49.45705914667643 49.08350119025819 48.55612525178539 48.27046328511261 47.87493133125801 47.58926936458524 47.30360739791247 46.73228346456693 46.380699505585056 45.96319355429409 45.52371360556674 45.17212964658488 44.71067570042116 44.33711774400293 43.91961179271196 43.48013184398462 43.150521882439115 42.68906793627541 42.20563999267533 41.85405603369347 41.39260208752975 40.90917414392968 40.579564182384175 40.140084233656836 39.810474272111335 39.21717634132943 38.75572239516572 38.42611243362022 38.14045046694744 37.87676249771104 37.61307452847464 37.1735945797473 36.931880607947264 36.712140633583594 36.558322651529025 36.294634682292624 36.07489470792895 35.89910272843802 35.70133675151071 35.43764878227431 35.19593481047427 35.02014283098333 34.8443508514924 34.47079289507416 34.25105292071049 34.03131294634682 33.67972898736495 33.48196301043765 33.306171030946714 32.97656106940121 32.800769089910276 32.581029115546606 32.36128914118294 32.20747115912837 31.987731184764694 31.74601721296466 31.50430324116462 31.262589269364586 31.064823292437282 30.779161325764512 30.405603369346274 30.185863394982604 29.966123420618935 29.592565464200696 29.19703351034609 28.97729353598242 28.735579564182384 28.31807361289141 28.03241164621864 27.834645669291337 27.592931697491302 27.439113715436733 27.285295733382164 26.97765976927303 26.73594579747299 26.58212781541842 26.560153817982055 26.51620582310932 26.472257828236586 26.45028383080022 26.42830983336385 26.406335835927486 26.340413843618386 26.29646584874565 26.208569859000182 26.164621864127447 26.120673869254716 26.098699871818347 26.07672587438198 26.032777879509247 26.01080388207288 25.944881889763778 25.922907892327412 25.878959897454678 25.835011902581943 25.791063907709212 25.747115912836477 25.703167917963743 25.637245925654643 25.593297930781908 25.571323933345543 25.549349935909174 25.527375938472808 25.527375938472808 25.527375938472808 25.527375938472808 25.527375938472808 25.527375938472808 25.527375938472808 25.549349935909174 25.527375938472808 25.527375938472808 25.527375938472808 25.527375938472808 25.527375938472808 25.527375938472808 25.527375938472808 25.527375938472808 25.527375938472808 25.527375938472808 25.527375938472808 25.527375938472808 25.527375938472808 25.50540194103644 25.50540194103644 25.483427943600073 25.483427943600073 25.483427943600073 25.483427943600073 25.483427943600073 25.461453946163708 25.483427943600073 25.461453946163708 25.461453946163708 25.461453946163708 25.461453946163708 25.461453946163708 25.461453946163708 25.461453946163708 25.461453946163708 25.461453946163708 25.461453946163708 25.461453946163708 25.461453946163708 25.461453946163708 25.461453946163708 25.461453946163708 25.461453946163708 25.461453946163708 25.461453946163708 25.461453946163708 25.461453946163708 25.461453946163708 25.461453946163708 25.461453946163708 25.461453946163708 25.461453946163708 25.461453946163708 25.461453946163708 25.461453946163708 25.461453946163708 25.461453946163708 25.43947994872734 25.43947994872734 25.43947994872734 25.461453946163708 25.461453946163708 25.461453946163708 25.43947994872734 25.461453946163708 25.43947994872734 25.43947994872734 25.461453946163708 25.43947994872734 25.461453946163708 25.461453946163708 25.461453946163708 25.461453946163708 25.461453946163708 25.461453946163708 25.461453946163708 25.461453946163708 25.461453946163708 25.461453946163708 25.461453946163708 25.461453946163708 25.461453946163708 25.461453946163708 25.461453946163708 25.461453946163708 25.461453946163708 25.461453946163708 25.461453946163708 25.461453946163708 25.461453946163708 25.461453946163708 25.461453946163708 25.461453946163708 25.461453946163708 25.461453946163708 25.461453946163708 25.461453946163708 25.461453946163708 25.461453946163708 25.461453946163708 25.461453946163708 25.461453946163708 25.461453946163708 25.461453946163708 25.461453946163708 25.461453946163708 25.461453946163708 25.461453946163708 25.461453946163708 25.461453946163708 25.461453946163708 25.461453946163708 25.461453946163708 25.461453946163708 25.461453946163708 25.461453946163708 25.461453946163708 25.461453946163708 25.461453946163708 25.461453946163708 25.461453946163708 25.461453946163708 25.461453946163708 25.461453946163708 25.461453946163708 25.461453946163708 25.461453946163708 25.461453946163708 25.461453946163708 25.461453946163708 25.461453946163708 25.461453946163708 25.461453946163708 25.461453946163708 25.461453946163708 25.461453946163708 25.43947994872734 25.461453946163708 25.461453946163708 25.461453946163708 25.461453946163708 25.461453946163708 25.461453946163708 25.461453946163708 25.461453946163708 25.461453946163708 25.461453946163708 25.461453946163708 25.461453946163708 25.461453946163708 25.461453946163708 25.461453946163708 25.461453946163708 25.461453946163708 25.461453946163708 25.461453946163708 25.461453946163708 25.461453946163708 25.461453946163708 25.461453946163708 25.461453946163708 25.461453946163708 25.461453946163708 25.461453946163708 25.461453946163708 25.461453946163708 25.461453946163708 25.461453946163708 25.461453946163708 25.461453946163708 25.461453946163708 25.483427943600073 25.527375938472808 25.571323933345543 25.65921992309101 25.791063907709212 25.944881889763778 26.36238784105475 26.648049807727524 26.999633766709394 27.570957700054933 28.010437648782275 28.64768357443692 29.460721479582496 29.812305438564366 30.251785387291704 30.537447353964474 30.779161325764512 31.130745284746382 31.43838124885552 32.22944515656473 32.47115912836477 32.75682109503754 33.152353048892145 33.503937007874015 33.74565097967405 34.141182933528654 34.40487090276506 34.80040285661967 35.21790880791064 35.56949276689251 36.07489470792895 36.58029664896539 36.975828602819995 37.59110053103827 37.92071049258378 38.51400842336568 39.06335835927486 39.48086431056583 40.33785021058414 40.77733015931148 41.26075810291155 41.76616004394799 42.1616919978026 42.71104193371177 43.414209851675515 43.787767808093754 44.33711774400293 44.820545687603 45.30397363120308 45.89727156198498 46.314777513275956 46.908075444057864 47.47939937740341 47.91887932613075 48.53415125434902 49.12744918513093 49.588903131294636 50.182201062076544 50.62168101080388 51.23695293902216 51.83025086980406 52.2697308185314 52.88500274674968 53.566196667277055 54.071598608313494 54.5989745467863 55.01648049807727 55.85149240065922 56.312946346822926 56.9282182750412 57.58743819813221 58.13678813404138 58.64219007507782 59.2574620032961 59.740889946896175 60.422083867423545 61.10327778795092 61.586705731551 62.20197765976927 62.66343160593298 63.300677531587624 63.915949459805894 64.35542940853324 64.94872733931514 65.73979124702436 66.20124519318806 66.59677714704267 67.01428309833364 67.65152902398827 68.28877494964291 68.72825489837027 69.6291887932613 70.28840871635232 70.74986266251602 71.38710858817066 71.87053653177074 72.4198864676799 73.01318439846182 73.45266434718917 74.0239882805347 74.55136421900751 74.94689617286213 75.60611609595313 75.91375206006227 76.2213880241714 76.66086797289874 76.99047793444424 77.38600988829884 77.89141182933528 78.1550997985717 78.52865775498992 78.81431972166271 79.07800769089911 79.45156564731734 79.71525361655375 80.22065555759019 80.61618751144479 80.87987548068119 81.29738143197216 81.67093938839041 82.00054934993591 82.44002929866325 82.74766526277239 83.2091192089361 83.53872917048159 83.97820911920894 84.46163706280902 84.92309100897272 85.36257095770006 85.64823292437282 85.97784288591834 86.41732283464567 86.7908807910639 87.25233473722761 87.66984068851858 87.95550265519137 88.39498260391869 88.6586705731551 88.94433253982787 89.38381248855521 89.73539644753708 90.06500640908259 90.35066837575536 90.48251236037356 90.57040835011902 90.5923823475554 90.5923823475554 90.5923823475554 90.57040835011902 90.4605383629372 90.19685039370079 89.99908441677348 89.55960446804615 89.36183849111885 89.09815052188245 88.7245925654642 88.30708661417323 88.04339864493683 87.64786669108221 87.18641274491851 86.72495879875481 86.41732283464567 86.08771287310017 85.38454495513642 85.03296099615454 84.50558505768174 84.04413111151804 83.67057315509979 83.2091192089361 82.76963926020875 82.48397729353599 82.06647134224502 81.73686138069951 81.38527742171763 80.9457974729903 80.57223951657207 80.26460355246292 79.80314960629921 79.49551364219008 79.03405969602638 78.5506317524263 78.06720380882624 77.58377586522616 77.21021790880792 76.70481596777148 76.33125801135323 75.97967405237137 75.23255813953489 74.77110419337117 74.08991027284381 73.3647683574437 72.74949642922542 72.04632851126168 71.51895257278886 70.77183665995238 70.04669474455227 69.54129280351583 68.90404687786119 68.09100897271563 67.71745101629739 67.23402307269731 67.05823109320637 66.53085515473356 66.2451931880608 65.95953122138803 65.62992125984252 65.34425929316976 65.14649331624244 64.83885735213332 64.61911737776964 64.35542940853324 63.87200146493316 63.564365500824024 63.10291155466032 62.59750961362388 62.20197765976927 61.38893975462369 60.94945980589635 60.48800585973265 59.806811939205275 59.3233839956052 58.64219007507782 57.93902215711408 57.21388024171397 56.466764328877495 55.96136238784105 55.47793444424098 54.77476652627723 54.269364585240794 53.346456692913385 52.64328877494964 52.2038088262223 51.5445889031313 51.12708295184032 50.665629005676614 49.984435085149244 49.654825123603736 49.2153451748764 48.79783922358543 48.51217725691265 48.20454129280351 47.98480131843985 47.63321735945797 47.30360739791247 47.10584142098517 46.79820545687603 46.600439479948726 46.292803515839594 45.919245559421356 45.72147958249405 45.47976561069402 45.28199963376671 45.0842336568394 44.86449368247574 44.77659769273027 44.4909357260575 44.271195751693824 44.09540377220289 43.85368980040286 43.590001831166454 43.414209851675515 43.128547885002746 42.90880791063908 42.57919794909357 42.20563999267533 41.91997802600257 41.52444607214796 41.084966123420614 40.75535616187511 40.29390221571141 39.986266251602274 39.370994323384 39.04138436183849 38.51400842336568 37.8328145028383 37.65702252334737 37.195568577183664 36.690166636147225 36.338582677165356 35.83318073612892 35.34975279252884 34.9761948361106 34.42684490020143 33.98736495147409 33.657754989928584 33.174327046328514 32.866691082219376 32.49313312580114 31.987731184764694 31.68009522065556 31.43838124885552 31.21864127449185 31.020875297564547 30.735213330891778 30.537447353964474 30.163889397546235 29.8562534334371 29.658487456509796 29.438747482146127 29.19703351034609 29.065189525727888 28.889397546236953 28.801501556491484 28.69163156930965 28.581761582127815 28.53781358725508 28.449917597509614 28.40596960263688 28.362021607764145 28.27412561801868 28.208203625709576 28.12030763596411 27.988463651345906 27.87859366416407 27.81267167185497 27.74674967954587 27.658853689800402 27.570957700054933 27.483061710309467 27.351217725691264 27.263321735945798 27.219373741073063 27.153451748763963 27.131477751327594 27.10950375389123 27.087529756454863 27.087529756454863 27.087529756454863 27.10950375389123 27.10950375389123 27.131477751327594 27.153451748763963 27.17542574620033 27.197399743636698 27.197399743636698 27.197399743636698 27.197399743636698 27.17542574620033 27.153451748763963 27.153451748763963 27.131477751327594 27.10950375389123 27.10950375389123 27.087529756454863 27.065555759018494 27.065555759018494 27.065555759018494 27.065555759018494 27.065555759018494 27.065555759018494 27.065555759018494 27.065555759018494 27.065555759018494 27.065555759018494 27.065555759018494 27.087529756454863 27.087529756454863 27.087529756454863 27.065555759018494 27.065555759018494 27.04358176158213 27.04358176158213 27.04358176158213 27.04358176158213 27.04358176158213 27.02160776414576 27.04358176158213 27.04358176158213 27.04358176158213 27.04358176158213 27.04358176158213 27.04358176158213 27.02160776414576 27.02160776414576 27.02160776414576 27.02160776414576 27.02160776414576 27.02160776414576 27.02160776414576 27.02160776414576 27.02160776414576 27.02160776414576 27.02160776414576 27.02160776414576 27.02160776414576 27.02160776414576 27.02160776414576 27.02160776414576 27.02160776414576 27.02160776414576 27.02160776414576 27.02160776414576 26.999633766709394 26.999633766709394 26.999633766709394 26.999633766709394 26.999633766709394 26.97765976927303 26.97765976927303 26.97765976927303 26.97765976927303 26.97765976927303 26.97765976927303 26.95568577183666 26.95568577183666 26.95568577183666 26.95568577183666 26.933711774400294 26.933711774400294 26.933711774400294 26.933711774400294 26.933711774400294 26.933711774400294 26.911737776963925 26.933711774400294 26.911737776963925 26.911737776963925 26.911737776963925 26.911737776963925 26.911737776963925 26.911737776963925 26.911737776963925 26.911737776963925 26.911737776963925 26.911737776963925 26.911737776963925 26.911737776963925 26.911737776963925 26.911737776963925 26.911737776963925 26.88976377952756 26.88976377952756 26.88976377952756 26.88976377952756 26.88976377952756 26.911737776963925 26.88976377952756 26.88976377952756 26.88976377952756 26.88976377952756 26.88976377952756 26.88976377952756 26.88976377952756 26.911737776963925 26.88976377952756 26.88976377952756 26.88976377952756 26.88976377952756 26.88976377952756 26.88976377952756 26.88976377952756 26.88976377952756 26.88976377952756 26.88976377952756 26.867789782091194 26.867789782091194 26.867789782091194 26.867789782091194 26.867789782091194 26.867789782091194 26.867789782091194 26.867789782091194 26.867789782091194 26.867789782091194 26.867789782091194 26.867789782091194 26.867789782091194 26.845815784654825 26.845815784654825 26.845815784654825 26.845815784654825 26.845815784654825 26.845815784654825 26.845815784654825 26.82384178721846 26.82384178721846 26.82384178721846 26.82384178721846 26.845815784654825 26.82384178721846 26.82384178721846 26.82384178721846 26.82384178721846 26.82384178721846 26.82384178721846 26.82384178721846 26.82384178721846 26.82384178721846 26.82384178721846 26.82384178721846 26.82384178721846 26.82384178721846 26.82384178721846 26.82384178721846 26.82384178721846 26.82384178721846 26.82384178721846 26.82384178721846 26.845815784654825 26.845815784654825 26.845815784654825 26.845815784654825 26.867789782091194 26.88976377952756 26.933711774400294 26.999633766709394 27.065555759018494 27.17542574620033 27.285295733382164 27.373191723127633 27.548983702618568 27.724775682109502 27.90056766160044 28.18622962827321 28.449917597509614 28.735579564182384 29.262955502655192 29.592565464200696 30.07599340780077 30.42757736678264 30.801135323200878 31.548251236037355 31.921809192455594 32.5151071232375 33.262223036073976 33.569859000183115 33.83354696941952 34.11920893609229 34.40487090276506 34.93224684123787 35.26185680278337 35.61344076176525 36.00897271561985 36.294634682292624 36.80003662332906 37.28346456692913 37.65702252334737 38.22834645669291 38.60190441311115 39.21717634132943 39.810474272111335 40.42574620032961 40.99707013367515 41.39260208752975 41.76616004394799 42.51327595678447 42.842885918329976 43.282365867057315 44.05145577733016 44.5568577183666 45.04028566196667 45.47976561069402 46.13898553378502 46.776231459439664 47.325581395348834 47.94085332356711 48.64402124153085 49.105475187694566 49.808643105658305 50.314045046694744 50.97326496978575 51.63248489287676 52.11591283647684 52.75315876213148 53.368430690349754 53.829884636513455 54.68687053653177 55.14832448269547 55.63175242629555 56.20307635964109 56.906244277604834 57.54349020325947 58.15876213147775 58.73008606482329 59.23548800585973 59.69694195202344 60.356161875114445 61.01538179820545 61.54275773667826 62.15802966489654 62.81724958798755 63.366599523896724 64.26753341878776 64.4433253982787 65.08057132393334 65.67386925471524 66.20124519318806 66.68467313678813 67.29994506500641 67.62955502655191 67.93719099066105 68.24482695477019 68.66233290606115 69.05786485991577 69.45339681377037 69.8269547701886 70.24446072147958 70.57407068302508 70.94762863944334 71.25526460355246 71.73869254715254 72.26606848562534 72.66160043947995 73.2329243728255 73.80424830617103 74.22175425746201 75.01281816517121 75.40835011902581 75.75993407800769 76.30928401391687 76.79271195751694 77.16626991393517 77.67167185497162 78.1550997985717 78.59457974729904 78.90221571140816 79.20985167551731 79.58340963193555 80.00091558322652 80.37447353964475 80.63816150888115 80.98974546786303 81.34132942684491 81.60501739608131 82.08844533968139 82.33015931148142 82.57187328328145 82.90148324482695 83.16517121406336 83.53872917048159 84.02215711408166 84.30781908075444 84.70335103460906 85.01098699871818 85.29664896539094 85.6042849295001 85.8679728987365 86.28547885002747 86.54916681926387 86.70298480131844 86.85680278337301 86.94469877311849 86.96667277055485 86.98864676799121 86.98864676799121 86.94469877311849 86.76890679362754 86.54916681926387 86.21955685771837 85.84599890130013 85.49441494231826 85.09888298846366 84.81322102179088 84.3297930781908 83.84636513459074 83.4728071781725 82.79161325764511 82.33015931148142 81.95660135506317 81.42922541659037 80.79197949093573 80.41842153451748 79.64933162424464 79.23182567295368 78.63852774217176 78.19904779344444 77.62772386009888 77.05639992675334 76.57297198315328 76.00164804980773 75.38637612158945 74.99084416773485 74.37557223951657 73.93609229078925 73.38674235488006 72.81541842153452 72.44186046511629 71.82658853689802 71.18934261124336 70.70591466764328 70.04669474455227 69.27760483427943 68.68430690349753 68.04706097784288 67.25599707013367 66.5748031496063 65.82768723676982 65.34425929316976 64.66306537264236 63.89397546236953 63.454495513642186 62.773301593114816 62.26789965207837 61.586705731551 60.92748580845999 60.444057864859914 59.76286394433254 59.301409998168836 58.66416407251419 57.82915216993224 57.235854239150335 56.8622962827321 56.181102362204726 55.71964841604102 55.12635048525911 54.64292254165903 54.269364585240794 53.74198864676799 53.104742721113354 52.57736678264054 52.02801684673137 51.6764328877495 51.23695293902216 50.92931697491302 50.445889031312944 50.028383080021975 49.63285112616737 48.99560520051273 48.66599523896723 48.33638527742171 47.69913935176707 47.325581395348834 47.039919428676065 46.64438747482146 46.380699505585056 46.051089544039556 45.61160959531222 45.39186962094854 45.06225965940304 44.77659769273027 44.46896172862113 43.941585790148324 43.787767808093754 43.216443874748215 42.95275590551181 42.62314594396631 42.31550997985717 42.0957700054935 41.78813404138436 41.48049807727523 41.23878410547519 40.93114814136605 40.667460172129644 40.381798205456874 40.096136238784105 39.788500274674966 39.524812305438566 39.34902032594763 39.173228346456696 38.90954037722029 38.73374839772936 38.40413843618385 38.16242446438381 37.96465848745651 37.74491851309284 37.5691265336019 37.28346456692913 37.019776597692726 36.843984618201794 36.536348654092656 36.250686687419886 35.986998718183486 35.74528474638345 35.48159677714705 35.28383080021974 34.9761948361106 34.75645486174693 34.49276689251053 34.207104925837754 34.009338948910454 33.723676982237684 33.39406702069218 33.174327046328514 32.866691082219376 32.646951107855706 32.185497161692 31.96575718732833 31.52627723860099 31.15271928218275 30.911005310382713 30.493499359091743 30.119941402673504 29.834279436000735 29.460721479582496 29.109137520600623 28.823475553927853 28.49386559238235 28.142281633400476 27.87859366416407 27.483061710309467 27.153451748763963 26.845815784654825 26.648049807727524 26.58212781541842 26.538179820545686 26.494231825672955 26.472257828236586 26.472257828236586 26.472257828236586 26.42830983336385 26.38436183849112 26.36238784105475 26.340413843618386 26.318439846182017 26.318439846182017 26.318439846182017 26.318439846182017 26.318439846182017 26.318439846182017 26.318439846182017 26.29646584874565 26.29646584874565 26.29646584874565 26.274491851309286 26.274491851309286 26.274491851309286 26.274491851309286 26.274491851309286 26.274491851309286 26.274491851309286 26.274491851309286 26.252517853872916 26.23054385643655 26.164621864127447 26.120673869254716 26.07672587438198 26.032777879509247 25.988829884636512 25.944881889763778 25.922907892327412 25.900933894891047 25.900933894891047 25.900933894891047 25.922907892327412 25.922907892327412 25.900933894891047 25.900933894891047 25.900933894891047 25.922907892327412 25.922907892327412 25.922907892327412 25.922907892327412 25.900933894891047 25.922907892327412 25.922907892327412 25.900933894891047 25.922907892327412 25.900933894891047 25.922907892327412 25.922907892327412 25.922907892327412 25.922907892327412 25.900933894891047 25.900933894891047 25.922907892327412 25.900933894891047 25.922907892327412 25.900933894891047 25.922907892327412 25.922907892327412 25.900933894891047 25.900933894891047 25.900933894891047 25.900933894891047 25.900933894891047 25.900933894891047 25.900933894891047 25.900933894891047 25.900933894891047 25.900933894891047 25.900933894891047 25.900933894891047 25.900933894891047 25.900933894891047 25.900933894891047 25.900933894891047 25.900933894891047 25.900933894891047 25.900933894891047 25.900933894891047 25.900933894891047 25.900933894891047 25.900933894891047 25.900933894891047 25.900933894891047 25.900933894891047 25.900933894891047 25.900933894891047 25.900933894891047 25.900933894891047 25.900933894891047 25.900933894891047 25.900933894891047 25.900933894891047 25.900933894891047 25.900933894891047 25.900933894891047 25.900933894891047 25.900933894891047 25.922907892327412 25.900933894891047 25.922907892327412 25.900933894891047 25.900933894891047 25.900933894891047 25.900933894891047 25.900933894891047 25.900933894891047 25.900933894891047 25.900933894891047 25.900933894891047 25.900933894891047 25.900933894891047 25.900933894891047 25.900933894891047 25.900933894891047 25.900933894891047 25.900933894891047 25.900933894891047 25.900933894891047 25.900933894891047 25.900933894891047 25.900933894891047 25.900933894891047 25.900933894891047 25.900933894891047 25.900933894891047 25.900933894891047 25.900933894891047 25.900933894891047 25.900933894891047 25.900933894891047 25.900933894891047 25.900933894891047 25.900933894891047 25.900933894891047 25.922907892327412 25.900933894891047 25.900933894891047 25.922907892327412 25.900933894891047 25.900933894891047 25.922907892327412 25.900933894891047 25.900933894891047 25.922907892327412 25.900933894891047 25.900933894891047 25.900933894891047 25.900933894891047 25.922907892327412 25.900933894891047 25.900933894891047 25.900933894891047 25.900933894891047 25.900933894891047 25.922907892327412 25.900933894891047 25.900933894891047 25.900933894891047 25.900933894891047 25.900933894891047 25.900933894891047 25.900933894891047 25.900933894891047 25.900933894891047 25.900933894891047 25.900933894891047 25.900933894891047 25.900933894891047 25.900933894891047 25.900933894891047 25.900933894891047 25.922907892327412 25.900933894891047 25.900933894891047 25.900933894891047 25.900933894891047 25.922907892327412 25.900933894891047 25.922907892327412 25.922907892327412 25.944881889763778 25.944881889763778 25.944881889763778 25.966855887200147 26.01080388207288 26.098699871818347 26.208569859000182 26.36238784105475 26.60410181285479 26.88976377952756 27.131477751327594 27.527009705182202 27.81267167185497 28.230177623145945 28.823475553927853 29.043215528291523 29.372825489837027 29.746383446255265 30.010071415491666 30.339681377037174 30.713239333455412 31.042849295000916 31.35048525911005 31.50430324116462 31.833913202710125 32.1195751693829 32.646951107855706 33.064457059146676 33.372093023255815 33.855520966855885 34.27302691814686 34.62461087712873 34.99816883354697 35.43764878227431 35.76725874381981 36.22871268998352 36.58029664896539 37.1076725874382 37.85478850027467 38.29426844900202 38.93151437465666 39.32704632851126 39.788500274674966 40.447720197765975 41.17286211316609 41.83208203625709 42.44735396447537 42.864859915766345 43.436183849111885 44.09540377220289 44.66672770554844 45.26002563633034 45.83134956967588 46.44662149789416 47.10584142098517 47.63321735945797 48.51217725691265 49.12744918513093 49.588903131294636 50.116279069767444 50.55575901849478 51.21497894158579 51.85222486724043 52.48947079289508 53.14869071598608 53.588170664713424 53.961728621131655 54.5989745467863 55.06042849295001 55.65372642373192 56.488738326313864 56.906244277604834 57.52151620582311 57.91704815967771 58.53232008789599 59.0596960263688 59.433253982787036 60.004577916132575 60.55392785204175 60.92748580845999 61.49880974180553 61.8503937007874 62.33382164438748 62.839223585423916 63.16883354696942 63.696209485442225 64.20161142647866 64.59714338033328 65.27833730086064 65.62992125984252 66.00347921626076 66.55282915216993 67.1681010803882 67.71745101629739 68.28877494964291 68.68430690349753 69.25563083684307 69.67313678813403 70.24446072147958 70.81578465482514 71.21131660867974 71.82658853689802 72.33199047793445 72.74949642922542 73.29884636513458 73.65043032411646 74.17780626258927 74.68320820362571 75.01281816517121 75.47427211133493 76.02362204724409 76.3532320087896 76.59494598058964 77.03442592931697 77.32008789598976 77.69364585240798 78.11115180369896 78.50668375755356 78.85826771653544 79.16590368064458 79.51748763962644 79.78117560886285 80.13275956784472 80.48434352682659 80.70408350119027 81.03369346273576 81.25343343709943 81.60501739608131 82.13239333455411 82.46200329609962 82.76963926020875 83.09924922175426 83.42885918329976 83.8683391320271 84.35176707562718 84.79124702435452 85.18677897820913 85.49441494231826 85.8679728987365 86.10968687053654 86.5271928218275 86.87877678080937 87.18641274491851 87.55997070133675 87.77971067570043 87.99945065006409 88.37300860648233 88.63669657571873 88.83446255264604 88.96630653726424 89.09815052188245 89.25196850393701 89.47170847830067 89.47170847830067 89.49368247573705 89.49368247573705 89.47170847830067 89.36183849111885 89.12012451931881 88.54880058597325 88.10932063724593 87.75773667826405 87.27430873466398 86.94469877311849 86.3953488372093 85.88994689617286 85.4724409448819 85.01098699871818 84.50558505768174 84.1320271012635 83.6046511627907 83.05530122688153 82.76963926020875 82.28621131660869 81.95660135506317 81.58304339864495 81.20948544222671 80.83592748580847 80.48434352682659 80.28657754989928 80.06683757553562 79.73722761399011 79.34169566013551 79.05603369346274 78.57260574986266 78.2869437831899 77.84746383446256 77.49587987548068 76.9465299395715 76.37520600622597 75.86980406518953 75.23255813953489 74.55136421900751 74.0239882805347 73.18897637795277 72.57370444973449 71.78264054202528 70.9036806445706 70.28840871635232 69.45339681377037 68.57443691631569 68.00311298297015 67.19007507782457 66.26716718549716 65.45412928035158 64.9047793444424 64.06976744186046 63.388573521333086 62.64145760849661 61.96026368796924 61.43288774949643 60.92748580845999 60.26826588536898 59.56509796740524 59.1256180186779 58.46639809558689 57.82915216993224 57.36769822376854 56.70847830067753 56.20307635964109 55.63175242629555 54.99450650064091 54.55502655191357 53.91778062625893 53.03882072880425 52.423548800585976 51.7423548800586 51.34682292620399 50.48983702618568 49.544955136421905 48.53415125434902 47.63321735945797 46.820179454312395 46.314777513275956 45.63358359274858 45.17212964658488 44.6227797106757 44.11737776963926 43.721845815784654 43.348287859366415 43.040651895257284 42.667093938839045 42.18366599523897 41.94195202343893 41.67826405420253 41.32668009522065 41.019044131111514 40.601538179820544 40.315876213147774 39.898370261856805 39.546786302874935 39.305072331074896 38.95348837209302 38.71177440029299 38.49203442592932 38.03058047976561 37.7668925105292 37.4372825489837 37.1076725874382 36.865958615638164 36.536348654092656 36.20673869254715 35.986998718183486 35.72331074894708 35.50357077458341 35.19593481047427 34.88829884636513 34.60263687969236 34.29500091558323 34.03131294634682 33.81157297198315 33.591832997619484 33.372093023255815 32.97656106940121 32.69089910272844 32.47115912836477 32.185497161692 32.03167917963743 31.767991210401025 31.59219923091009 31.46035524629189 31.328511261673686 31.174693279619117 31.064823292437282 30.932979307819082 30.845083318073613 30.779161325764512 30.691265336019043 30.58139534883721 30.44955136421901 30.317707379600805 30.22981138985534 30.032045412928035 29.8562534334371 29.724409448818896 29.570591466764327 29.372825489837027 29.240981505218826 28.889397546236953 28.69163156930965 28.449917597509614 28.27412561801868 28.05438564365501 27.81267167185497 27.636879692364037 27.417139718000367 27.219373741073063 27.153451748763963 27.087529756454863 27.065555759018494 27.065555759018494 27.065555759018494 27.065555759018494 27.04358176158213 26.97765976927303 26.95568577183666 26.88976377952756 26.82384178721846 26.757919794909355 26.713971800036624 26.648049807727524 26.60410181285479 26.538179820545686 26.494231825672955 26.42830983336385 26.38436183849112 26.340413843618386 26.29646584874565 26.274491851309286 26.23054385643655 26.23054385643655 26.23054385643655 26.208569859000182 26.23054385643655 26.23054385643655 26.23054385643655 26.23054385643655 26.23054385643655 26.23054385643655 26.208569859000182 26.208569859000182 26.208569859000182 26.186595861563816 26.186595861563816 26.186595861563816 26.164621864127447 26.14264786669108 26.14264786669108 26.120673869254716 26.14264786669108 26.120673869254716 26.120673869254716 26.120673869254716 26.120673869254716 26.120673869254716 26.120673869254716 26.120673869254716 26.098699871818347 26.098699871818347 26.098699871818347 26.07672587438198 26.054751876945616 26.054751876945616 26.032777879509247 26.032777879509247 26.01080388207288 25.988829884636512 25.988829884636512 25.966855887200147 25.966855887200147 25.966855887200147 25.966855887200147 25.966855887200147 25.966855887200147 25.966855887200147 25.966855887200147 25.944881889763778 25.944881889763778 25.944881889763778 25.944881889763778 25.944881889763778 25.944881889763778 25.944881889763778 25.944881889763778 25.944881889763778 25.944881889763778 25.966855887200147 25.944881889763778 25.944881889763778 25.944881889763778 25.944881889763778 25.944881889763778 25.944881889763778 25.944881889763778 25.944881889763778 25.944881889763778 25.944881889763778 25.922907892327412 25.922907892327412 25.922907892327412 25.922907892327412 25.900933894891047 25.900933894891047 25.900933894891047 25.900933894891047 25.900933894891047 25.878959897454678 25.900933894891047 25.900933894891047 25.878959897454678 25.878959897454678 25.878959897454678 25.878959897454678 25.900933894891047 25.878959897454678 25.878959897454678 25.878959897454678 25.878959897454678 25.878959897454678 25.878959897454678 25.878959897454678 25.878959897454678 25.878959897454678 25.878959897454678 25.878959897454678 25.878959897454678 25.878959897454678 25.878959897454678 25.878959897454678 25.878959897454678 25.878959897454678 25.856985900018312 25.856985900018312 25.856985900018312 25.878959897454678 25.856985900018312 25.856985900018312 25.878959897454678 25.856985900018312 25.856985900018312 25.856985900018312 25.856985900018312 25.856985900018312 25.856985900018312 25.856985900018312 25.856985900018312 25.856985900018312 25.856985900018312 25.856985900018312 25.856985900018312 25.856985900018312 25.856985900018312 25.856985900018312 25.856985900018312 25.856985900018312 25.856985900018312 25.856985900018312 25.856985900018312 25.856985900018312 25.856985900018312 25.856985900018312 25.856985900018312 25.856985900018312 25.856985900018312 25.835011902581943 25.835011902581943 25.856985900018312 25.856985900018312 25.856985900018312 25.835011902581943 25.856985900018312 25.856985900018312 25.856985900018312 25.835011902581943 25.835011902581943 25.835011902581943 25.835011902581943 25.835011902581943 25.835011902581943 25.835011902581943 25.835011902581943 25.835011902581943 25.835011902581943 25.835011902581943 25.835011902581943 25.835011902581943 25.835011902581943 25.835011902581943 25.835011902581943 25.835011902581943 25.835011902581943 25.835011902581943 25.835011902581943 25.835011902581943 25.835011902581943 25.835011902581943 25.835011902581943 25.835011902581943 25.835011902581943 25.835011902581943 25.835011902581943 25.835011902581943 25.835011902581943 25.835011902581943 25.835011902581943 25.835011902581943 25.835011902581943 25.835011902581943 25.856985900018312 25.856985900018312 25.856985900018312 25.856985900018312 25.878959897454678 25.922907892327412 25.966855887200147 26.054751876945616 26.14264786669108 26.36238784105475 26.626075810291155 26.845815784654825 27.263321735945798 27.724775682109502 28.05438564365501 28.581761582127815 29.131111518036988 29.70243545138253 30.251785387291704 30.603369346273574 31.130745284746382 31.52627723860099 32.00970518220106 32.53708112067387 32.866691082219376 33.32814502838308 33.767624977110415 34.09723493865592 34.60263687969236 35.13001281816517 35.48159677714705 36.00897271561985 36.338582677165356 36.887932613074526 37.52517853872917 37.87676249771104 38.31624244643838 38.62387841054752 38.95348837209302 39.4369163156931 39.942318256729536 40.513642190075075 41.06299212598425 41.48049807727523 42.27156198498443 42.49130195934811 43.040651895257284 43.655923823475554 44.09540377220289 44.77659769273027 45.43581761582128 45.89727156198498 46.79820545687603 47.2816334004761 47.74308734663981 48.46822926203992 48.90770921076726 49.63285112616737 50.511811023622045 50.97326496978575 51.65445889031313 52.11591283647684 52.57736678264054 53.214612708295185 53.654092657022524 54.51107855704083 55.12635048525911 55.56583043398645 56.247024354513826 56.796374290423 57.323750228895804 57.98297015198681 58.42245010071415 59.08167002380517 59.718915949459806 60.180369895623514 60.86156381615089 61.34499175975096 62.07013367515107 62.72935359824208 63.300677531587624 63.915949459805894 64.59714338033328 65.10254532136972 66.09137520600623 66.46493316242447 66.94836110602454 67.56363303424281 68.00311298297015 68.81615088811573 69.38747482146127 69.80498077275224 70.31038271378868 70.8377586522615 71.167368613807 71.65079655740706 71.95843252151622 72.39791247024354 72.72752243178905 73.1010803882073 73.4966123420619 73.78227430873466 74.35359824208021 74.59531221388025 74.90294817798939 75.32045412928035 75.71598608313496 76.15546603186229 76.59494598058964 76.90258194469877 77.34206189342612 77.64969785753524 78.13312580113532 78.6165537447354 78.96813770371728 79.45156564731734 79.95696758835379 80.33052554477202 80.79197949093573 81.2754074345358 81.60501739608131 82.08844533968139 82.39608130379051 82.85753524995422 83.45083318073613 83.71452114997254 84.11005310382714 84.59348104742722 84.92309100897272 85.38454495513642 85.8679728987365 86.32942684490021 86.76890679362754 87.12049075260941 87.60391869620949 87.91155466031863 88.43893059879144 88.87841054751877 89.20802050906427 89.69144845266435 90.15290239882806 90.52646035524629 91.1197582860282 91.40542025270096 91.73503021424648 92.10858817066472 92.41622413477386 92.76780809375572 93.22926203991943 93.42702801684673 93.71268998351951 93.88848196301043 94.04229994506501 94.19611792711957 94.30598791430141 94.37190990661051 94.41585790148325 94.39388390404687 94.41585790148325 94.39388390404687 94.37190990661051 94.26203991942867 94.13019593481047 93.88848196301043 93.6467679912104 93.47097601171946 93.2512360373558 92.9875480681194 92.7897820911921 92.61399011170116 92.48214612708296 92.19648416041018 92.02069218091924 91.86687419886468 91.69108221937374 91.5812122321919 91.4493682475737 91.2516022706464 91.09778428859184 90.83409631935542 90.61435634499176 90.43856436550082 90.19685039370079 90.02105841420986 89.75737044497345 89.42776048342795 89.16407251419155 88.7905145577733 88.35103460904597 88.04339864493683 87.58194469877311 87.25233473722761 86.76890679362754 86.24153085515474 85.9338948910456 85.4065189525728 84.87914301409998 84.41768906793627 83.7364951474089 83.14319721662699 82.76963926020875 82.35213330891779 81.80278337300861 81.20948544222671 80.63816150888115 80.22065555759019 79.62735762680828 79.20985167551731 78.63852774217176 78.02325581395348 77.60574986266252 77.03442592931697 76.44112799853508 75.957700054935 75.43032411646219 75.01281816517121 74.46346822926205 73.71635231642557 73.4966123420619 72.9692364035891 72.37593847280718 71.80461453946164 71.40908258560702 70.81578465482514 70.20051272660686 69.73905878044314 69.14576084966123 68.57443691631569 68.20087895989745 67.67350302142464 67.1681010803882 66.79454312396996 66.3111151803699 65.8496612342062 65.54202527009704 65.10254532136972 64.79490935726056 64.3114814136605 63.652261490569494 63.212781541842155 62.86119758286028 62.44369163156931 62.07013367515107 61.56473173411463 60.88353781358725 60.55392785204175 60.092473905878045 59.76286394433254 59.301409998168836 58.97180003662333 58.59824208020509 58.18073612891412 57.80717817249588 57.45559421351401 57.038088262223035 56.752426295550265 56.13715436733199 55.85149240065922 55.49990844167735 55.01648049807727 54.62094854422267 54.15949459805896 53.500274674967955 53.104742721113354 52.64328877494964 52.24775682109504 51.96209485442226 51.39077092107672 51.01721296465848 50.226149056949275 49.610877128731005 49.171397180003666 48.57809924922175 48.11664530305805 47.2816334004761 46.79820545687603 46.314777513275956 45.76542757736678 45.12818165171214 44.71067570042116 44.18329976194836 43.61197582860282 43.326313861930046 42.842885918329976 42.51327595678447 42.07379600805713 41.67826405420253 41.41457608496612 40.90917414392968 40.645486174693275 40.403772202893244 40.008240249038636 39.5687603003113 39.26112433620216 38.71177440029299 38.38216443874748 37.89873649514741 37.5691265336019 37.1076725874382 36.668192638710856 36.294634682292624 36.00897271561985 35.63541475920161 35.30580479765611 35.08606482329244 34.7784288591833 34.58066288225599 34.29500091558323 34.075260941219554 33.74565097967405 33.284197033510345 32.998535066837576 32.646951107855706 32.33931514374657 32.0536531770738 31.636147225782825 31.064823292437282 30.845083318073613 30.471525361655374 30.22981138985534 29.9221754257462 29.746383446255265 29.504669474455227 29.284929500091557 29.087163523164257 28.91137154367332 28.64768357443692 28.449917597509614 28.16425563083684 27.96648965390954 27.74674967954587 27.439113715436733 27.241347738509432 26.88976377952756 26.51620582310932 26.406335835927486 26.318439846182017 26.274491851309286 26.186595861563816 26.14264786669108 26.098699871818347 26.054751876945616 26.032777879509247 26.032777879509247 26.01080388207288 26.01080388207288 26.01080388207288 25.988829884636512 25.966855887200147 25.944881889763778 25.944881889763778 25.900933894891047 25.856985900018312 25.835011902581943 25.791063907709212 25.747115912836477 25.703167917963743 25.681193920527377 25.637245925654643 25.593297930781908 25.549349935909174 25.527375938472808 25.527375938472808 25.527375938472808 25.527375938472808 25.527375938472808 25.527375938472808 25.527375938472808 25.527375938472808 25.527375938472808 25.527375938472808 25.50540194103644 25.483427943600073 25.483427943600073 25.483427943600073 25.461453946163708 25.461453946163708 25.461453946163708 25.461453946163708 25.461453946163708 25.461453946163708 25.461453946163708 25.461453946163708 25.461453946163708 25.461453946163708 25.461453946163708 25.461453946163708 25.461453946163708 25.461453946163708 25.461453946163708 25.461453946163708 25.461453946163708 25.461453946163708 25.461453946163708 25.461453946163708 25.461453946163708 25.461453946163708 25.461453946163708 25.461453946163708 25.461453946163708 25.461453946163708 25.461453946163708 25.461453946163708 25.461453946163708 25.461453946163708 25.461453946163708 25.461453946163708 25.461453946163708 25.461453946163708 25.461453946163708 25.461453946163708 25.461453946163708 25.461453946163708 25.461453946163708 25.461453946163708 25.461453946163708 25.461453946163708 25.461453946163708 25.461453946163708 25.43947994872734 25.43947994872734 25.43947994872734 25.43947994872734 25.43947994872734 25.417505951290973 25.417505951290973 25.417505951290973 25.417505951290973 25.417505951290973 25.417505951290973 25.417505951290973 25.417505951290973 25.417505951290973 25.417505951290973 25.417505951290973 25.417505951290973 25.417505951290973 25.417505951290973 25.417505951290973 25.417505951290973 25.417505951290973 25.417505951290973 25.417505951290973 25.417505951290973 25.417505951290973 25.417505951290973 25.417505951290973 25.417505951290973 25.417505951290973 25.417505951290973 25.417505951290973 25.417505951290973 25.417505951290973 25.417505951290973 25.417505951290973 25.417505951290973 25.417505951290973 25.417505951290973 25.417505951290973 25.417505951290973 25.417505951290973 25.417505951290973 25.417505951290973 25.417505951290973 25.417505951290973 25.395531953854604 25.417505951290973 25.417505951290973 25.417505951290973 25.417505951290973 25.417505951290973 25.417505951290973 25.417505951290973 25.417505951290973 25.417505951290973 25.417505951290973 25.417505951290973 25.417505951290973 25.417505951290973 25.417505951290973 25.417505951290973 25.417505951290973 25.417505951290973 25.417505951290973 25.417505951290973 25.417505951290973 25.417505951290973 25.417505951290973 25.417505951290973 25.417505951290973 25.417505951290973 25.417505951290973 25.417505951290973 25.417505951290973 25.417505951290973 25.417505951290973 25.417505951290973 25.417505951290973 25.417505951290973 25.417505951290973 25.417505951290973 25.417505951290973 25.417505951290973 25.417505951290973 25.417505951290973 25.417505951290973 25.417505951290973 25.417505951290973 25.417505951290973 25.417505951290973 25.417505951290973 25.417505951290973 25.417505951290973 25.417505951290973 25.417505951290973 25.417505951290973 25.417505951290973 25.417505951290973 25.417505951290973 25.417505951290973 25.417505951290973 25.417505951290973 25.395531953854604 25.417505951290973 25.417505951290973 25.395531953854604 25.417505951290973 25.417505951290973 25.417505951290973 25.417505951290973 25.417505951290973 25.417505951290973 25.417505951290973 25.417505951290973 25.417505951290973 25.417505951290973 25.417505951290973 25.417505951290973 25.417505951290973 25.417505951290973 25.417505951290973 25.417505951290973 25.417505951290973 25.417505951290973 25.417505951290973 25.417505951290973 25.417505951290973 25.417505951290973 25.417505951290973 25.417505951290973 25.417505951290973 25.417505951290973 25.417505951290973 25.417505951290973 25.417505951290973 25.417505951290973 25.417505951290973 25.417505951290973 25.417505951290973 25.417505951290973 25.417505951290973 25.417505951290973 25.417505951290973 25.395531953854604 25.417505951290973 25.417505951290973 25.417505951290973 25.417505951290973 25.417505951290973 25.395531953854604 25.395531953854604 25.395531953854604 25.395531953854604 25.395531953854604 25.395531953854604 25.395531953854604 25.37355795641824 25.37355795641824 25.37355795641824 25.37355795641824 25.37355795641824 25.37355795641824 25.37355795641824 25.37355795641824 25.37355795641824 25.37355795641824 25.37355795641824 25.37355795641824 25.37355795641824 25.37355795641824 25.37355795641824 25.37355795641824 25.37355795641824 25.37355795641824 25.37355795641824 25.37355795641824 25.37355795641824 25.37355795641824 25.395531953854604 25.37355795641824 25.37355795641824 25.37355795641824 25.37355795641824 25.37355795641824 25.37355795641824 25.37355795641824 25.37355795641824 25.37355795641824 25.37355795641824 25.37355795641824 25.37355795641824 25.37355795641824 25.37355795641824 25.37355795641824 25.37355795641824 25.37355795641824 25.37355795641824 25.37355795641824 25.37355795641824 25.37355795641824 25.37355795641824 25.37355795641824 25.37355795641824 25.37355795641824 25.37355795641824 25.37355795641824 25.37355795641824 25.37355795641824 25.37355795641824 25.37355795641824 25.37355795641824 25.37355795641824 25.37355795641824 25.37355795641824 25.37355795641824 25.37355795641824 25.37355795641824 25.37355795641824 25.37355795641824 25.37355795641824 25.37355795641824 25.37355795641824 25.37355795641824 25.37355795641824 