25.0 25.0 25.0 25.0 25.0 25.0 25.0 25.0 25.0 25.0 25.0 25.0 25.0 25.0 25.0 25.0 25.0 25.0 25.0 25.0 25.0 25.0 25.0 25.0 25.0 25.0 25.0 25.0 25.0 25.0 25.0 25.0 25.0 25.0 25.0 25.0 25.0 25.0 25.0 25.0 25.0 25.0 25.0 25.0 25.0 25.0 25.0 25.0 25.0 25.0 25.0 25.0 25.0 25.0 25.0 25.0 25.0 25.0 25.0 25.0 25.0 25.0 25.0 25.0 25.0 25.0 24.978026002563634 25.0 25.0 25.0 25.0 25.0 25.0 24.978026002563634 25.0 25.0 25.0 24.978026002563634 24.978026002563634 24.978026002563634 24.978026002563634 24.978026002563634 24.978026002563634 24.978026002563634 24.978026002563634 24.956052005127265 24.978026002563634 24.956052005127265 24.956052005127265 24.978026002563634 24.956052005127265 24.956052005127265 24.978026002563634 24.956052005127265 24.956052005127265 24.956052005127265 24.978026002563634 24.956052005127265 24.956052005127265 24.956052005127265 24.956052005127265 24.956052005127265 24.978026002563634 24.956052005127265 24.956052005127265 24.956052005127265 24.956052005127265 24.978026002563634 24.956052005127265 24.978026002563634 24.956052005127265 24.956052005127265 24.978026002563634 24.978026002563634 24.956052005127265 24.956052005127265 24.956052005127265 24.956052005127265 24.978026002563634 24.978026002563634 24.978026002563634 24.978026002563634 24.978026002563634 24.978026002563634 24.978026002563634 24.956052005127265 24.978026002563634 24.978026002563634 24.956052005127265 24.978026002563634 24.956052005127265 24.978026002563634 24.978026002563634 24.978026002563634 24.978026002563634 24.978026002563634 24.978026002563634 24.978026002563634 24.978026002563634 24.978026002563634 24.978026002563634 24.978026002563634 24.978026002563634 24.978026002563634 24.978026002563634 24.956052005127265 24.978026002563634 24.978026002563634 24.978026002563634 24.978026002563634 24.978026002563634 24.978026002563634 24.978026002563634 24.978026002563634 24.978026002563634 24.978026002563634 24.978026002563634 24.978026002563634 24.978026002563634 24.978026002563634 24.978026002563634 24.978026002563634 24.978026002563634 24.978026002563634 24.978026002563634 24.978026002563634 24.978026002563634 24.978026002563634 24.978026002563634 24.978026002563634 24.978026002563634 24.978026002563634 24.978026002563634 24.978026002563634 24.956052005127265 24.978026002563634 24.978026002563634 24.978026002563634 24.978026002563634 24.978026002563634 24.978026002563634 24.978026002563634 24.956052005127265 24.978026002563634 24.978026002563634 24.978026002563634 24.978026002563634 24.956052005127265 24.978026002563634 24.978026002563634 24.978026002563634 24.956052005127265 24.978026002563634 24.978026002563634 24.978026002563634 24.978026002563634 24.956052005127265 24.978026002563634 24.978026002563634 24.978026002563634 24.978026002563634 24.978026002563634 24.978026002563634 24.978026002563634 24.956052005127265 24.978026002563634 24.978026002563634 24.978026002563634 24.956052005127265 24.956052005127265 24.978026002563634 24.978026002563634 24.978026002563634 24.978026002563634 24.978026002563634 24.978026002563634 24.978026002563634 24.978026002563634 24.978026002563634 24.978026002563634 24.978026002563634 24.978026002563634 24.978026002563634 24.978026002563634 24.978026002563634 24.978026002563634 24.978026002563634 24.978026002563634 24.978026002563634 24.978026002563634 24.978026002563634 24.978026002563634 24.978026002563634 24.978026002563634 24.978026002563634 24.978026002563634 24.978026002563634 24.978026002563634 24.978026002563634 24.978026002563634 24.978026002563634 24.978026002563634 24.978026002563634 24.978026002563634 24.978026002563634 24.978026002563634 24.978026002563634 24.978026002563634 24.956052005127265 24.978026002563634 24.978026002563634 24.978026002563634 24.978026002563634 24.978026002563634 24.978026002563634 24.978026002563634 24.978026002563634 24.956052005127265 24.978026002563634 24.978026002563634 24.978026002563634 24.978026002563634 24.978026002563634 24.978026002563634 24.978026002563634 24.978026002563634 24.978026002563634 24.978026002563634 24.978026002563634 24.956052005127265 24.978026002563634 24.978026002563634 24.978026002563634 24.978026002563634 24.978026002563634 24.978026002563634 24.978026002563634 24.978026002563634 24.978026002563634 24.978026002563634 24.978026002563634 24.978026002563634 24.978026002563634 24.978026002563634 24.978026002563634 24.978026002563634 24.978026002563634 24.978026002563634 24.978026002563634 24.978026002563634 24.978026002563634 24.978026002563634 24.978026002563634 24.978026002563634 24.978026002563634 24.978026002563634 24.956052005127265 24.978026002563634 24.978026002563634 24.978026002563634 24.978026002563634 24.978026002563634 24.956052005127265 24.978026002563634 24.978026002563634 24.978026002563634 24.978026002563634 24.978026002563634 24.978026002563634 24.978026002563634 24.978026002563634 24.978026002563634 24.978026002563634 24.978026002563634 24.978026002563634 24.978026002563634 24.978026002563634 24.978026002563634 24.978026002563634 24.978026002563634 24.978026002563634 24.978026002563634 24.978026002563634 24.978026002563634 24.978026002563634 24.978026002563634 24.978026002563634 24.978026002563634 24.978026002563634 24.978026002563634 24.978026002563634 24.978026002563634 24.978026002563634 24.978026002563634 24.978026002563634 24.956052005127265 24.978026002563634 24.978026002563634 24.978026002563634 24.978026002563634 24.978026002563634 24.978026002563634 24.978026002563634 24.978026002563634 24.978026002563634 24.978026002563634 24.978026002563634 24.978026002563634 24.978026002563634 24.978026002563634 24.978026002563634 24.978026002563634 24.978026002563634 24.978026002563634 24.978026002563634 24.978026002563634 24.978026002563634 24.978026002563634 24.978026002563634 24.978026002563634 24.978026002563634 24.978026002563634 24.978026002563634 24.978026002563634 24.978026002563634 24.978026002563634 24.978026002563634 24.978026002563634 24.978026002563634 24.978026002563634 24.978026002563634 24.978026002563634 24.978026002563634 24.978026002563634 24.978026002563634 24.978026002563634 24.978026002563634 24.978026002563634 24.978026002563634 24.978026002563634 24.978026002563634 24.978026002563634 24.978026002563634 24.978026002563634 24.978026002563634 24.978026002563634 24.978026002563634 24.978026002563634 24.978026002563634 24.978026002563634 24.978026002563634 24.978026002563634 24.978026002563634 24.978026002563634 24.978026002563634 24.978026002563634 24.978026002563634 24.978026002563634 24.978026002563634 24.978026002563634 24.978026002563634 24.978026002563634 24.978026002563634 24.978026002563634 24.978026002563634 24.978026002563634 24.978026002563634 24.978026002563634 24.978026002563634 24.978026002563634 24.978026002563634 24.978026002563634 24.978026002563634 24.978026002563634 24.978026002563634 24.978026002563634 24.978026002563634 24.978026002563634 24.978026002563634 24.978026002563634 24.978026002563634 24.978026002563634 24.978026002563634 24.978026002563634 24.978026002563634 24.978026002563634 24.978026002563634 24.978026002563634 24.978026002563634 24.978026002563634 24.978026002563634 24.978026002563634 24.978026002563634 24.978026002563634 24.978026002563634 24.978026002563634 24.978026002563634 24.978026002563634 24.978026002563634 24.978026002563634 24.978026002563634 24.978026002563634 24.978026002563634 24.978026002563634 24.978026002563634 24.978026002563634 24.978026002563634 24.978026002563634 24.978026002563634 24.978026002563634 24.978026002563634 24.978026002563634 24.978026002563634 24.978026002563634 24.978026002563634 24.978026002563634 24.978026002563634 24.978026002563634 24.978026002563634 24.978026002563634 24.978026002563634 24.978026002563634 24.978026002563634 24.978026002563634 24.978026002563634 24.978026002563634 24.978026002563634 24.978026002563634 24.978026002563634 24.978026002563634 24.978026002563634 24.978026002563634 24.978026002563634 24.978026002563634 24.978026002563634 24.978026002563634 24.978026002563634 24.978026002563634 24.978026002563634 24.978026002563634 24.978026002563634 24.978026002563634 24.978026002563634 24.978026002563634 24.978026002563634 24.978026002563634 24.978026002563634 24.978026002563634 24.978026002563634 24.978026002563634 24.978026002563634 24.978026002563634 24.978026002563634 24.978026002563634 24.978026002563634 24.978026002563634 24.978026002563634 24.978026002563634 24.978026002563634 24.978026002563634 24.978026002563634 24.978026002563634 24.978026002563634 24.978026002563634 24.978026002563634 24.978026002563634 24.978026002563634 24.978026002563634 24.978026002563634 24.978026002563634 24.978026002563634 24.978026002563634 24.978026002563634 24.978026002563634 24.978026002563634 24.978026002563634 24.978026002563634 24.978026002563634 24.978026002563634 24.978026002563634 24.978026002563634 24.978026002563634 24.978026002563634 24.978026002563634 24.978026002563634 24.978026002563634 24.978026002563634 24.978026002563634 24.978026002563634 24.978026002563634 24.978026002563634 24.978026002563634 24.978026002563634 24.978026002563634 24.978026002563634 24.978026002563634 24.978026002563634 24.978026002563634 24.978026002563634 24.978026002563634 24.978026002563634 24.978026002563634 24.978026002563634 24.978026002563634 25.0 25.0 25.021973997436366 25.021973997436366 25.043947994872735 25.043947994872735 25.0659219923091 25.0659219923091 25.0659219923091 25.0659219923091 25.08789598974547 25.109869987181835 25.109869987181835 25.1318439846182 25.15381798205457 25.175791979490935 25.21973997436367 25.263687969236404 25.30763596410914 25.395531953854604 25.50540194103644 25.65921992309101 25.835011902581943 26.07672587438198 26.318439846182017 26.560153817982055 26.80186778978209 26.999633766709394 27.17542574620033 27.329243728254898 27.461087712873102 27.570957700054933 27.702801684673137 27.81267167185497 27.96648965390954 28.12030763596411 28.296099615455045 28.47189159494598 28.71360556674602 28.955319538546053 29.219007507782457 29.54861746932796 29.944149423182566 30.339681377037174 30.735213330891778 31.21864127449185 31.702069218091925 32.22944515656473 32.778795092473906 33.350119025819446 33.855520966855885 34.42684490020143 34.95422083867423 35.45962277971068 35.89910272843802 36.360556674601725 36.80003662332906 37.08569859000183 37.48123054385644 37.85478850027467 38.18439846182018 38.57993041567478 39.06335835927486 39.5687603003113 40.118110236220474 40.62351217725691 41.12891411829335 41.61234206189343 42.13971800036623 42.57919794909357 43.062625892693646 43.61197582860282 44.16132576451199 44.7546236952939 45.34792162607581 45.94121955685772 46.424647500457795 47.061893426112434 47.74308734663981 48.29243728254899 48.92968320820363 49.50100714154917 50.160227064640175 50.81944698773118 51.4786669108222 52.15986083134957 52.81908075444058 53.478300677531585 54.11554660318623 54.84068851858634 55.54385643655009 56.29097234938656 57.060062259659404 57.85112616736861 58.59824208020509 59.367331990477936 60.026551913568944 60.81761582127815 61.586705731551 62.35579564182384 63.058963559787585 63.67423548800586 64.3774034059696 65.10254532136972 65.89360922907892 66.68467313678813 67.47573704449735 68.24482695477019 69.01391686504303 69.78300677531587 70.46420069584326 71.18934261124336 71.80461453946164 72.55173045229812 73.27687236769822 74.04596227797106 74.70518220106207 75.40835011902581 76.0895440395532 76.7487639626442 77.42995788317158 78.0891778062626 78.79234572422632 79.4076176524446 80.04486357809925 80.63816150888115 81.1435634499176 81.69291338582677 82.22028932429959 82.74766526277239 83.23109320637246 83.71452114997254 84.1979490935726 84.65940303973632 85.03296099615454 85.42849295000916 85.75810291155466 86.04376487822742 86.21955685771837 86.41732283464567 86.5271928218275 86.59311481413661 86.61508881157297 86.61508881157297 86.61508881157297 86.61508881157297 86.46127082951841 86.24153085515474 85.95586888848196 85.6702069218092 85.36257095770006 85.03296099615454 84.65940303973632 84.30781908075444 83.95623512177258 83.56070316791798 83.12122321919063 82.37410730635415 81.95660135506317 81.51712140633583 80.87987548068119 80.57223951657207 79.91301959348105 78.83629371909907 78.33089177806264 77.49587987548068 76.83665995238968 76.00164804980773 75.14466214978941 74.57333821644387 73.7603003112983 72.9692364035891 72.33199047793445 71.45303058047976 70.85973264969786 69.65116279069767 69.05786485991577 68.50851492400659 67.65152902398827 66.75059512909723 65.80571323933346 64.9047793444424 64.3114814136605 63.432521516205824 62.487639626442046 61.82841970335103 60.86156381615089 60.114447903314414 59.1256180186779 58.20271012635048 57.49954220838674 56.532686321186596 55.28016846731368 54.62094854422267 53.98370261856803 53.412378685222485 52.57736678264054 51.63248489287676 50.665629005676614 49.76469511078557 48.92968320820363 48.35835927485809 47.83098333638527 47.259659403039734 45.78740157480315 45.17212964658488 44.64475370811206 44.09540377220289 43.392235854239146 42.842885918329976 42.18366599523897 41.56839406702069 41.04101812854789 40.403772202893244 39.964292254165905 39.305072331074896 38.77769639260209 38.36019044131112 37.74491851309284 37.15162058231093 36.822010620765425 36.20673869254715 35.921076725874386 35.61344076176525 35.23988280534701 35.0421168284197 34.8443508514924 34.66855887200147 34.36092290789233 33.92144295916499 33.67972898736495 33.32814502838308 32.91063907709211 32.60300311298297 32.27339315143747 31.767991210401025 31.262589269364586 30.779161325764512 30.471525361655374 30.032045412928035 29.460721479582496 29.350851492400658 29.175059512909723 29.021241530855153 28.889397546236953 28.77952755905512 28.69163156930965 28.62570957700055 28.581761582127815 28.53781358725508 28.449917597509614 28.40596960263688 28.34004761032778 28.18622962827321 28.09833363852774 27.944515656473172 27.90056766160044 27.856619666727706 27.834645669291337 27.834645669291337 27.856619666727706 27.856619666727706 27.856619666727706 27.856619666727706 27.856619666727706 27.834645669291337 27.834645669291337 27.834645669291337 27.834645669291337 27.834645669291337 27.81267167185497 27.790697674418606 27.790697674418606 27.768723676982237 27.74674967954587 27.724775682109502 27.724775682109502 27.724775682109502 27.702801684673137 27.702801684673137 27.702801684673137 27.702801684673137 27.702801684673137 27.702801684673137 27.702801684673137 27.702801684673137 27.702801684673137 27.702801684673137 27.68082768723677 27.68082768723677 27.658853689800402 27.658853689800402 27.636879692364037 27.614905694927668 27.592931697491302 27.527009705182202 27.505035707745833 27.461087712873102 27.417139718000367 27.395165720564 27.373191723127633 27.329243728254898 27.307269730818533 27.285295733382164 27.263321735945798 27.263321735945798 27.241347738509432 27.241347738509432 27.241347738509432 27.241347738509432 27.241347738509432 27.241347738509432 27.241347738509432 27.241347738509432 27.241347738509432 27.241347738509432 27.241347738509432 27.241347738509432 27.241347738509432 27.241347738509432 27.241347738509432 27.241347738509432 27.241347738509432 27.241347738509432 27.241347738509432 27.241347738509432 27.241347738509432 27.241347738509432 27.241347738509432 27.241347738509432 27.241347738509432 27.241347738509432 27.241347738509432 27.241347738509432 27.241347738509432 27.241347738509432 27.241347738509432 27.241347738509432 27.241347738509432 27.241347738509432 27.241347738509432 27.241347738509432 27.241347738509432 27.241347738509432 27.241347738509432 27.241347738509432 27.241347738509432 27.241347738509432 27.241347738509432 27.241347738509432 27.241347738509432 27.241347738509432 27.241347738509432 27.241347738509432 27.241347738509432 27.241347738509432 27.241347738509432 27.241347738509432 27.241347738509432 27.219373741073063 27.219373741073063 27.241347738509432 27.219373741073063 27.219373741073063 27.219373741073063 27.219373741073063 27.219373741073063 27.241347738509432 27.219373741073063 27.219373741073063 27.219373741073063 27.219373741073063 27.219373741073063 27.219373741073063 27.241347738509432 27.219373741073063 27.219373741073063 27.219373741073063 27.219373741073063 27.219373741073063 27.219373741073063 27.241347738509432 27.219373741073063 27.219373741073063 27.219373741073063 27.219373741073063 27.219373741073063 27.219373741073063 27.219373741073063 27.241347738509432 27.219373741073063 27.219373741073063 27.219373741073063 27.219373741073063 27.219373741073063 27.219373741073063 27.241347738509432 27.219373741073063 27.241347738509432 27.241347738509432 27.219373741073063 27.241347738509432 27.241347738509432 27.219373741073063 27.219373741073063 27.219373741073063 27.219373741073063 27.241347738509432 27.219373741073063 27.219373741073063 27.219373741073063 27.219373741073063 27.219373741073063 27.219373741073063 27.219373741073063 27.219373741073063 27.219373741073063 27.219373741073063 27.241347738509432 27.219373741073063 27.219373741073063 27.219373741073063 27.219373741073063 27.219373741073063 27.219373741073063 27.219373741073063 27.219373741073063 27.219373741073063 27.197399743636698 27.17542574620033 27.17542574620033 27.17542574620033 27.17542574620033 27.153451748763963 27.153451748763963 27.131477751327594 27.153451748763963 27.153451748763963 27.131477751327594 27.131477751327594 27.131477751327594 27.131477751327594 27.131477751327594 27.131477751327594 27.131477751327594 27.131477751327594 27.131477751327594 27.131477751327594 27.131477751327594 27.131477751327594 27.131477751327594 27.131477751327594 27.131477751327594 27.131477751327594 27.131477751327594 27.131477751327594 27.131477751327594 27.131477751327594 27.131477751327594 27.131477751327594 27.131477751327594 27.131477751327594 27.131477751327594 27.131477751327594 27.131477751327594 27.131477751327594 27.131477751327594 27.131477751327594 27.131477751327594 27.131477751327594 27.131477751327594 27.131477751327594 27.131477751327594 27.131477751327594 27.131477751327594 27.131477751327594 27.131477751327594 27.131477751327594 27.131477751327594 27.131477751327594 27.131477751327594 27.131477751327594 27.131477751327594 27.131477751327594 27.131477751327594 27.131477751327594 27.131477751327594 27.131477751327594 27.131477751327594 27.131477751327594 27.131477751327594 27.131477751327594 27.131477751327594 27.131477751327594 27.131477751327594 27.131477751327594 27.131477751327594 27.131477751327594 27.131477751327594 27.131477751327594 27.131477751327594 27.131477751327594 27.131477751327594 27.131477751327594 27.131477751327594 27.131477751327594 27.131477751327594 27.131477751327594 27.131477751327594 27.131477751327594 27.131477751327594 27.131477751327594 27.131477751327594 27.131477751327594 27.131477751327594 27.131477751327594 27.131477751327594 27.131477751327594 27.131477751327594 27.131477751327594 27.131477751327594 27.131477751327594 27.131477751327594 27.131477751327594 27.131477751327594 27.131477751327594 27.131477751327594 27.153451748763963 27.153451748763963 27.17542574620033 27.219373741073063 27.351217725691264 27.439113715436733 27.570957700054933 27.658853689800402 27.790697674418606 27.96648965390954 28.16425563083684 28.31807361289141 28.49386559238235 28.64768357443692 28.889397546236953 29.131111518036988 29.350851492400658 29.61453946163706 29.944149423182566 30.273759384728073 30.647317341146312 30.889031312946347 31.24061527192822 31.614173228346456 31.89983519501923 32.3173411463102 32.66892510529207 33.218275041201245 33.943416956601354 34.38289690532869 35.17396081303791 36.00897271561985 36.536348654092656 37.393334554110965 37.98663248489288 38.86559238234756 40.074162241347736 40.75535616187511 41.34865409265702 41.9639260208753 42.53524995422084 43.392235854239146 43.91961179271196 44.6227797106757 45.41384361838491 46.00714154916682 46.622413477385095 47.215711408167 47.61124336202161 48.18256729536715 48.60007324665812 49.19337117744003 49.786669108221936 50.182201062076544 50.79747299029482 51.65445889031313 51.78630287493133 52.44552279802234 52.906976744186046 53.588170664713424 54.335286577549894 55.12635048525911 55.96136238784105 56.70847830067753 57.235854239150335 57.74125618018678 58.26863211865959 59.03772202893243 60.070499908441676 60.61984984435085 61.43288774949643 62.28987364951474 62.81724958798755 63.454495513642186 64.1796374290423 65.01464933162424 66.1792711957517 66.68467313678813 67.47573704449735 68.24482695477019 68.81615088811573 69.38747482146127 69.91485075993407 70.81578465482514 71.56290056766161 72.13422450100714 73.2329243728255 73.91411829335286 74.68320820362571 75.27650613440761 75.75993407800769 76.77073796008057 77.29811389855337 77.9573338216444 78.83629371909907 79.03405969602638 79.671305621681 80.26460355246292 80.68210950375389 81.23145943966307 81.78080937557223 82.15436733199049 82.8135872550815 82.98937923457243 83.3409631935543 83.71452114997254 83.8683391320271 83.95623512177258 84.02215711408166 84.02215711408166 84.02215711408166 84.02215711408166 83.97820911920894 83.802417139718 83.62662516022706 83.36293719099066 83.05530122688153 82.79161325764511 82.39608130379051 81.93462735762681 81.60501739608131 81.12158945248123 80.48434352682659 79.89104559604468 79.45156564731734 78.96813770371728 78.26496978575352 77.49587987548068 76.9465299395715 76.2213880241714 75.62809009338949 74.85900018311665 74.04596227797106 73.25489837026186 72.59567844717085 71.84856253433438 71.2992125984252 70.11261673686138 69.71708478300678 69.21168284197034 68.26680095220655 67.67350302142464 66.94836110602454 66.48690715986083 65.717817249588 65.05859732649698 64.3114814136605 63.87200146493316 63.410547518769455 62.707379600805716 61.76249771104193 61.25709577000549 60.509979857169014 59.960629921259844 59.4552279802234 58.64219007507782 57.96099615455045 57.14795824940487 55.87346639809559 55.19227247756821 54.22541659036806 53.280534700604285 52.66526277238601 52.04999084416774 51.32484892876762 50.46786302874931 49.69877311847647 48.86376121589453 48.11664530305805 47.457425379967034 46.952023438930595 46.51254349020326 46.051089544039556 45.43581761582128 44.820545687603 44.24922175425746 43.348287859366415 43.260391869620946 42.68906793627541 42.55722395165721 42.27156198498443 41.83208203625709 41.32668009522065 41.04101812854789 40.62351217725691 40.27192821827504 39.986266251602274 39.612708295184035 39.34902032594763 38.86559238234756 38.60190441311115 38.38216443874748 37.87676249771104 37.635048525911 37.3054385643655 37.063724592565464 36.822010620765425 36.426478666910825 35.96502472074712 35.63541475920161 35.06409082585607 34.60263687969236 34.25105292071049 33.855520966855885 33.525911005310384 32.91063907709211 32.55905511811024 32.2514191540011 31.921809192455594 31.702069218091925 31.46035524629189 31.28456326680095 31.174693279619117 31.042849295000916 30.911005310382713 30.779161325764512 30.58139534883721 30.42757736678264 30.163889397546235 29.76835744369163 29.63651345907343 29.262955502655192 28.933345541109688 28.669657571873284 28.31807361289141 27.96648965390954 27.87859366416407 27.81267167185497 27.790697674418606 27.768723676982237 27.74674967954587 27.74674967954587 27.74674967954587 27.74674967954587 27.74674967954587 27.724775682109502 27.724775682109502 27.702801684673137 27.702801684673137 27.724775682109502 27.702801684673137 27.724775682109502 27.702801684673137 27.68082768723677 27.68082768723677 27.68082768723677 27.68082768723677 27.68082768723677 27.658853689800402 27.658853689800402 27.68082768723677 27.658853689800402 27.658853689800402 27.658853689800402 27.636879692364037 27.614905694927668 27.614905694927668 27.614905694927668 27.614905694927668 27.592931697491302 27.592931697491302 27.592931697491302 27.592931697491302 27.592931697491302 27.592931697491302 27.570957700054933 27.570957700054933 27.570957700054933 27.570957700054933 27.570957700054933 27.570957700054933 27.570957700054933 27.570957700054933 27.570957700054933 27.570957700054933 27.570957700054933 27.548983702618568 27.570957700054933 27.570957700054933 27.570957700054933 27.548983702618568 27.548983702618568 27.548983702618568 27.548983702618568 27.548983702618568 27.570957700054933 27.570957700054933 27.570957700054933 27.548983702618568 27.570957700054933 27.570957700054933 27.570957700054933 27.570957700054933 27.570957700054933 27.570957700054933 27.548983702618568 27.570957700054933 27.548983702618568 27.570957700054933 27.570957700054933 27.570957700054933 27.548983702618568 27.570957700054933 27.548983702618568 27.570957700054933 27.548983702618568 27.570957700054933 27.570957700054933 27.570957700054933 27.570957700054933 27.548983702618568 27.570957700054933 27.570957700054933 27.570957700054933 27.570957700054933 27.548983702618568 27.548983702618568 27.548983702618568 27.548983702618568 27.548983702618568 27.527009705182202 27.527009705182202 27.527009705182202 27.527009705182202 27.505035707745833 27.505035707745833 27.505035707745833 27.505035707745833 27.505035707745833 27.505035707745833 27.505035707745833 27.505035707745833 27.505035707745833 27.505035707745833 27.505035707745833 27.505035707745833 27.505035707745833 27.505035707745833 27.505035707745833 27.505035707745833 27.505035707745833 27.483061710309467 27.483061710309467 27.483061710309467 27.483061710309467 27.461087712873102 27.461087712873102 27.461087712873102 27.483061710309467 27.461087712873102 27.461087712873102 27.461087712873102 27.461087712873102 27.461087712873102 27.461087712873102 27.461087712873102 27.461087712873102 27.461087712873102 27.461087712873102 27.461087712873102 27.461087712873102 27.461087712873102 27.461087712873102 27.461087712873102 27.461087712873102 27.461087712873102 27.461087712873102 27.461087712873102 27.461087712873102 27.461087712873102 27.461087712873102 27.461087712873102 27.461087712873102 27.461087712873102 27.461087712873102 27.461087712873102 27.461087712873102 27.461087712873102 27.461087712873102 27.461087712873102 27.461087712873102 27.461087712873102 27.461087712873102 27.461087712873102 27.461087712873102 27.461087712873102 27.461087712873102 27.461087712873102 27.461087712873102 27.461087712873102 27.461087712873102 27.461087712873102 27.461087712873102 27.461087712873102 27.461087712873102 27.461087712873102 27.461087712873102 27.461087712873102 27.461087712873102 27.461087712873102 27.461087712873102 27.461087712873102 27.461087712873102 27.461087712873102 27.461087712873102 27.461087712873102 27.461087712873102 27.461087712873102 27.461087712873102 27.461087712873102 27.461087712873102 27.461087712873102 27.461087712873102 27.461087712873102 27.461087712873102 27.461087712873102 27.461087712873102 27.461087712873102 27.461087712873102 27.461087712873102 27.461087712873102 27.461087712873102 27.461087712873102 27.461087712873102 27.461087712873102 27.461087712873102 27.461087712873102 27.461087712873102 27.461087712873102 27.461087712873102 27.461087712873102 27.461087712873102 27.461087712873102 27.461087712873102 27.461087712873102 27.461087712873102 27.461087712873102 27.461087712873102 27.461087712873102 27.461087712873102 27.461087712873102 27.461087712873102 27.461087712873102 27.461087712873102 27.461087712873102 27.461087712873102 27.461087712873102 27.461087712873102 27.461087712873102 27.461087712873102 27.461087712873102 27.461087712873102 27.461087712873102 27.461087712873102 27.461087712873102 27.461087712873102 27.461087712873102 27.461087712873102 27.461087712873102 27.461087712873102 27.461087712873102 27.461087712873102 27.461087712873102 27.461087712873102 27.461087712873102 27.461087712873102 27.461087712873102 27.461087712873102 27.461087712873102 27.461087712873102 27.461087712873102 27.461087712873102 27.461087712873102 27.461087712873102 27.461087712873102 27.461087712873102 27.461087712873102 27.461087712873102 27.461087712873102 27.461087712873102 27.461087712873102 27.461087712873102 27.461087712873102 27.461087712873102 27.461087712873102 27.461087712873102 27.461087712873102 27.461087712873102 27.461087712873102 27.461087712873102 27.483061710309467 27.483061710309467 27.483061710309467 27.483061710309467 27.548983702618568 27.592931697491302 27.658853689800402 27.768723676982237 27.922541659036806 28.076359641091376 28.47189159494598 28.71360556674602 29.131111518036988 29.61453946163706 30.032045412928035 30.42757736678264 31.130745284746382 31.50430324116462 31.855887200146494 32.185497161692 32.75682109503754 33.306171030946714 33.701702984801315 34.31697491301959 34.73448086431057 35.39370078740157 36.09686870536532 36.843984618201794 37.34938655923823 38.38216443874748 38.93151437465666 39.524812305438566 40.29390221571141 40.82127815418421 41.61234206189343 42.31550997985717 43.392235854239146 43.96355978758469 44.53488372093023 45.30397363120308 45.83134956967588 46.73228346456693 47.87493133125801 48.16059329793078 49.01757919794909 49.786669108221936 50.35799304156748 51.21497894158579 52.0719648416041 52.64328877494964 53.54422266984069 54.51107855704083 55.17029848013185 56.09320637245926 56.7304522981139 57.71928218275041 58.48837209302326 59.41127998535067 60.70774583409632 61.38893975462369 62.35579564182384 63.366599523896724 64.15766343160593 65.01464933162424 65.717817249588 66.94836110602454 67.58560703167919 68.24482695477019 69.34352682658854 70.81578465482514 71.01355063175242 71.87053653177074 72.46383446255265 73.3647683574437 74.33162424464385 75.14466214978941 76.0895440395532 76.90258194469877 77.45193188060796 78.06720380882624 78.50668375755356 79.36366965757188 80.46236952939023 81.0776414576085 81.89067936275407 82.46200329609962 83.6046511627907 84.1320271012635 84.68137703717268 85.71415491668193 86.1316608679729 86.59311481413661 87.34023072697309 87.82365867057317 88.19721662699139 88.57077458340964 88.6586705731551 88.9223585423915 88.96630653726424 88.94433253982787 88.7905145577733 88.50485259110053 88.06537264237319 87.38417872184581 87.25233473722761 86.61508881157297 85.7361289141183 85.23072697308186 84.5275590551181 83.89031312946346 83.09924922175426 82.26423731917231 81.58304339864495 80.85790148324483 80.06683757553562 79.47353964475371 78.63852774217176 78.0891778062626 77.0124519318806 76.24336202160777 75.91375206006227 75.12268815235305 74.28767624977111 73.6943783189892 72.55173045229812 71.8925105292071 71.05749862662516 70.13459073429775 69.80498077275224 68.42061893426111 67.82732100347921 67.19007507782457 66.22321919062443 65.56399926753342 64.5092473905878 63.564365500824024 62.94909357260575 61.9822376854056 61.08130379051456 60.33418787767808 59.4552279802234 58.79600805713239 57.85112616736861 56.884270280168465 56.00531038271379 55.43398644936825 54.79674052371361 53.91778062625893 52.81908075444058 51.6105108954404 51.43471891594946 50.48983702618568 49.808643105658305 49.06152719282183 48.40230726973082 47.58926936458524 46.820179454312395 46.314777513275956 45.56766160043948 44.60080571323933 44.073429774766524 43.61197582860282 43.172495879875484 42.68906793627541 42.11774400292987 41.52444607214796 40.77733015931148 40.42574620032961 40.249954220838674 39.788500274674966 39.5028383080022 39.107306354147596 38.64585240798389 38.36019044131112 38.09650247207471 37.7668925105292 37.5691265336019 37.34938655923823 37.019776597692726 36.58029664896539 36.316608679728986 36.09686870536532 35.56949276689251 35.19593481047427 34.86632484892877 34.60263687969236 34.33894891045596 34.075260941219554 33.74565097967405 33.459989013001284 33.174327046328514 32.95458707196484 32.866691082219376 32.734847097601175 32.60300311298297 32.42721113349204 32.22944515656473 32.00970518220106 31.81193920527376 31.57022523347372 31.41640725141915 31.196667277055482 30.954953305255447 30.823109320637247 30.625343343709943 30.471525361655374 30.339681377037174 30.29573338216444 30.119941402673504 30.032045412928035 29.944149423182566 29.878227430873466 29.790331441127996 29.70243545138253 29.592565464200696 29.460721479582496 29.328877494964292 29.131111518036988 29.021241530855153 28.867423548800588 28.75755356161875 28.581761582127815 28.362021607764145 28.230177623145945 28.142281633400476 28.12030763596411 28.12030763596411 28.12030763596411 28.12030763596411 28.12030763596411 28.12030763596411 28.12030763596411 28.12030763596411 28.09833363852774 28.09833363852774 28.09833363852774 28.09833363852774 28.09833363852774 28.09833363852774 28.076359641091376 28.076359641091376 28.076359641091376 28.076359641091376 28.076359641091376 28.076359641091376 28.05438564365501 28.05438564365501 28.05438564365501 28.05438564365501 28.05438564365501 28.05438564365501 28.05438564365501 28.05438564365501 28.03241164621864 28.05438564365501 28.03241164621864 28.03241164621864 28.03241164621864 28.03241164621864 28.03241164621864 28.010437648782275 28.010437648782275 28.010437648782275 28.010437648782275 27.988463651345906 28.010437648782275 27.988463651345906 27.988463651345906 27.988463651345906 27.988463651345906 27.988463651345906 27.988463651345906 27.988463651345906 27.988463651345906 27.988463651345906 27.988463651345906 27.988463651345906 27.96648965390954 27.988463651345906 27.96648965390954 27.96648965390954 27.96648965390954 27.96648965390954 27.96648965390954 27.96648965390954 27.96648965390954 27.96648965390954 27.96648965390954 27.988463651345906 27.988463651345906 27.96648965390954 27.96648965390954 27.96648965390954 27.944515656473172 27.944515656473172 27.944515656473172 27.944515656473172 27.944515656473172 27.944515656473172 27.944515656473172 27.944515656473172 27.944515656473172 27.944515656473172 27.922541659036806 27.922541659036806 27.922541659036806 27.922541659036806 27.922541659036806 27.922541659036806 27.90056766160044 27.90056766160044 27.90056766160044 27.90056766160044 27.90056766160044 27.922541659036806 27.90056766160044 27.90056766160044 27.90056766160044 27.90056766160044 27.90056766160044 27.90056766160044 27.90056766160044 27.90056766160044 27.922541659036806 27.90056766160044 27.90056766160044 27.90056766160044 27.90056766160044 27.90056766160044 27.90056766160044 27.87859366416407 27.87859366416407 27.87859366416407 27.87859366416407 27.87859366416407 27.856619666727706 27.856619666727706 27.87859366416407 27.856619666727706 27.87859366416407 27.856619666727706 27.856619666727706 27.856619666727706 27.856619666727706 27.856619666727706 27.856619666727706 27.856619666727706 27.856619666727706 27.856619666727706 27.856619666727706 27.856619666727706 27.856619666727706 27.856619666727706 27.856619666727706 27.856619666727706 27.856619666727706 27.856619666727706 27.856619666727706 27.856619666727706 27.856619666727706 27.856619666727706 27.856619666727706 27.856619666727706 27.856619666727706 27.856619666727706 27.856619666727706 27.834645669291337 27.834645669291337 27.834645669291337 27.856619666727706 27.834645669291337 27.856619666727706 27.834645669291337 27.834645669291337 27.834645669291337 27.834645669291337 27.834645669291337 27.834645669291337 27.834645669291337 27.834645669291337 27.834645669291337 27.834645669291337 27.834645669291337 27.834645669291337 27.834645669291337 27.834645669291337 27.834645669291337 27.834645669291337 27.834645669291337 27.834645669291337 27.834645669291337 27.834645669291337 27.81267167185497 27.81267167185497 27.81267167185497 27.81267167185497 27.81267167185497 27.81267167185497 27.81267167185497 27.81267167185497 27.81267167185497 27.81267167185497 27.81267167185497 27.81267167185497 27.81267167185497 27.81267167185497 27.81267167185497 27.81267167185497 27.81267167185497 27.81267167185497 27.81267167185497 27.81267167185497 27.81267167185497 27.81267167185497 27.81267167185497 27.81267167185497 27.81267167185497 27.81267167185497 27.81267167185497 27.834645669291337 27.81267167185497 27.81267167185497 27.81267167185497 27.81267167185497 27.81267167185497 27.81267167185497 27.81267167185497 27.81267167185497 27.81267167185497 27.81267167185497 27.81267167185497 27.81267167185497 27.81267167185497 27.81267167185497 27.81267167185497 27.81267167185497 27.81267167185497 27.81267167185497 27.81267167185497 27.81267167185497 27.81267167185497 27.81267167185497 27.81267167185497 27.81267167185497 27.81267167185497 27.81267167185497 27.81267167185497 27.81267167185497 27.81267167185497 27.81267167185497 27.81267167185497 27.81267167185497 27.81267167185497 27.81267167185497 27.81267167185497 27.81267167185497 27.81267167185497 27.81267167185497 27.81267167185497 27.81267167185497 27.81267167185497 27.81267167185497 27.81267167185497 27.81267167185497 27.81267167185497 27.81267167185497 27.81267167185497 27.81267167185497 27.81267167185497 27.81267167185497 27.81267167185497 27.81267167185497 27.81267167185497 27.81267167185497 27.81267167185497 27.81267167185497 27.81267167185497 27.81267167185497 27.81267167185497 27.81267167185497 27.81267167185497 27.81267167185497 27.81267167185497 27.81267167185497 27.81267167185497 27.81267167185497 27.81267167185497 27.81267167185497 27.81267167185497 27.81267167185497 27.81267167185497 27.81267167185497 27.81267167185497 27.81267167185497 27.81267167185497 27.81267167185497 27.790697674418606 27.81267167185497 27.790697674418606 27.81267167185497 27.81267167185497 27.81267167185497 27.81267167185497 27.790697674418606 27.81267167185497 27.81267167185497 27.81267167185497 27.81267167185497 27.81267167185497 27.81267167185497 27.81267167185497 27.81267167185497 27.81267167185497 27.81267167185497 27.790697674418606 27.81267167185497 27.790697674418606 27.81267167185497 27.81267167185497 27.81267167185497 27.790697674418606 27.81267167185497 27.81267167185497 27.834645669291337 27.988463651345906 28.09833363852774 28.230177623145945 28.49386559238235 28.71360556674602 29.065189525727888 29.460721479582496 29.746383446255265 30.185863394982604 30.823109320637247 31.196667277055482 31.50430324116462 31.89983519501923 32.66892510529207 33.108405054019414 33.74565097967405 34.38289690532869 35.02014283098333 35.50357077458341 36.118842702801686 36.668192638710856 37.195568577183664 37.7668925105292 38.16242446438381 38.73374839772936 39.26112433620216 40.030214246475005 40.315876213147774 40.62351217725691 41.06299212598425 41.59036806445706 42.38143197216627 42.667093938839045 43.655923823475554 44.31514374656656 44.4909357260575 45.0183116645303 45.67753158762132 46.402673503021425 46.86412744918513 47.523347372276135 48.40230726973082 48.92968320820363 49.3471891594946 49.742721113349205 50.270097051822006 50.88536898004028 51.36879692364036 52.31367881340414 52.797106757004215 53.324482695477016 54.137520600622594 54.70884453396813 55.49990844167735 56.33492034425929 57.21388024171397 58.33455411096869 58.62021607764146 59.521149972532506 60.26826588536898 60.90551181102362 61.80644570591467 62.79527559055118 63.542391503387655 64.26753341878776 64.94872733931514 65.8496612342062 66.79454312396996 67.47573704449735 68.31074894707929 69.25563083684307 69.95879875480682 70.9036806445706 71.58487456509798 73.21095037538913 74.41952023438931 74.88097418055301 75.47427211133493 76.04559604468047 76.616919978026 77.40798388573522 77.9573338216444 78.72642373191724 79.34169566013551 79.82512360373559 80.28657754989928 81.2754074345358 81.62699139351767 82.30818531404505 82.52792528840871 83.12122321919063 83.7364951474089 84.1979490935726 84.74729902948178 85.51638893975462 85.91192089360922 86.59311481413661 86.96667277055485 87.51602270646401 88.02142464750045 88.28511261673685 88.8564365500824 89.16407251419155 89.40578648599158 89.77934444240981 90.06500640908259 90.24079838857352 90.37264237319172 90.48251236037356 90.57040835011902 90.63633034242812 90.70225233473722 90.7242263321736 90.74620032960996 90.7242263321736 90.7242263321736 90.65830433986449 90.43856436550082 90.24079838857352 90.04303241164622 89.77934444240981 89.51565647317341 89.12012451931881 88.39498260391869 87.99945065006409 87.69181468595497 87.31825672953671 86.96667277055485 86.46127082951841 86.21955685771837 85.538362937191 84.98901300128182 84.59348104742722 84.1979490935726 83.58267716535434 82.98937923457243 82.30818531404505 81.51712140633583 80.98974546786303 80.13275956784472 79.42959164988098 78.63852774217176 78.02325581395348 77.10034792162608 76.06757004211683 75.01281816517121 73.95806628822561 73.16700238051638 72.04632851126168 70.79381065738875 70.00274674967955 69.16773484709759 68.13495696758835 67.03625709577 66.06940120856986 65.43215528291522 64.7729353598242 63.850027467496794 62.839223585423916 62.0481596777147 61.30104376487823 60.663797839223584 59.740889946896175 58.48837209302326 57.80717817249588 57.191906244277604 56.488738326313864 55.52188243911371 54.5330525544772 53.412378685222485 52.53341878776781 51.69840688518586 50.90734297747665 50.29207104925838 49.4131111518037 48.62204724409449 47.83098333638527 47.3475553927852 46.73228346456693 46.292803515839594 45.26002563633034 44.84251968503937 44.4250137337484 43.96355978758469 43.414209851675515 42.776963926020876 42.31550997985717 41.87603003112983 40.601538179820544 40.33785021058414 39.920344259293174 39.5687603003113 39.21717634132943 38.88756637978392 38.36019044131112 38.07452847463834 37.7668925105292 37.45925654642007 37.34938655923823 37.041750595129095 36.887932613074526 36.690166636147225 36.492400659219925 36.316608679728986 36.00897271561985 35.87712873100165 35.65738875663798 35.32777879509247 34.99816883354697 34.73448086431057 34.38289690532869 34.11920893609229 33.723676982237684 33.196301043764876 32.932613074528476 32.712873100164806 32.36128914118294 32.185497161692 32.00970518220106 31.74601721296466 31.52627723860099 31.30653726423732 31.24061527192822 30.954953305255447 30.779161325764512 30.669291338582678 30.493499359091743 30.339681377037174 30.22981138985534 30.07599340780077 29.9880974180553 29.8562534334371 29.76835744369163 29.63651345907343 29.48269547701886 29.328877494964292 29.175059512909723 29.065189525727888 28.889397546236953 28.735579564182384 28.603735579564184 28.449917597509614 28.296099615455045 28.18622962827321 28.05438564365501 27.922541659036806 27.856619666727706 27.834645669291337 27.81267167185497 27.834645669291337 27.834645669291337 27.834645669291337 27.81267167185497 27.81267167185497 27.81267167185497 27.790697674418606 27.768723676982237 27.74674967954587 27.74674967954587 27.724775682109502 27.68082768723677 27.658853689800402 27.658853689800402 27.636879692364037 27.614905694927668 27.570957700054933 27.570957700054933 27.570957700054933 27.548983702618568 27.527009705182202 27.527009705182202 27.505035707745833 27.483061710309467 27.461087712873102 27.461087712873102 27.439113715436733 27.417139718000367 27.373191723127633 27.351217725691264 27.351217725691264 27.351217725691264 27.307269730818533 27.285295733382164 27.285295733382164 27.263321735945798 27.263321735945798 27.241347738509432 27.241347738509432 27.241347738509432 27.241347738509432 27.241347738509432 27.241347738509432 27.241347738509432 27.241347738509432 27.241347738509432 27.219373741073063 27.219373741073063 27.219373741073063 27.219373741073063 27.219373741073063 27.219373741073063 27.219373741073063 27.219373741073063 27.219373741073063 27.219373741073063 27.219373741073063 27.219373741073063 27.219373741073063 27.219373741073063 27.219373741073063 27.219373741073063 27.219373741073063 27.219373741073063 27.219373741073063 27.219373741073063 27.219373741073063 27.219373741073063 27.219373741073063 27.219373741073063 27.219373741073063 27.219373741073063 27.219373741073063 27.219373741073063 27.219373741073063 27.219373741073063 27.219373741073063 27.219373741073063 27.219373741073063 27.219373741073063 27.219373741073063 27.219373741073063 27.219373741073063 27.219373741073063 27.219373741073063 27.219373741073063 27.219373741073063 27.219373741073063 27.219373741073063 27.219373741073063 27.219373741073063 27.219373741073063 27.219373741073063 27.219373741073063 27.219373741073063 27.219373741073063 27.219373741073063 27.219373741073063 27.219373741073063 27.219373741073063 27.219373741073063 27.219373741073063 27.219373741073063 27.219373741073063 27.219373741073063 27.219373741073063 27.197399743636698 27.197399743636698 27.197399743636698 27.17542574620033 27.17542574620033 27.17542574620033 27.197399743636698 27.17542574620033 27.17542574620033 27.17542574620033 27.17542574620033 27.17542574620033 27.17542574620033 27.17542574620033 27.17542574620033 27.17542574620033 27.17542574620033 27.17542574620033 27.17542574620033 27.17542574620033 27.17542574620033 27.17542574620033 27.17542574620033 27.17542574620033 27.17542574620033 27.17542574620033 27.17542574620033 27.17542574620033 27.17542574620033 27.17542574620033 27.17542574620033 27.17542574620033 27.17542574620033 27.17542574620033 27.17542574620033 27.17542574620033 27.17542574620033 27.17542574620033 27.17542574620033 27.17542574620033 27.17542574620033 27.17542574620033 27.197399743636698 27.17542574620033 27.17542574620033 27.17542574620033 27.17542574620033 27.17542574620033 27.17542574620033 27.17542574620033 27.17542574620033 27.17542574620033 27.17542574620033 27.17542574620033 27.17542574620033 27.17542574620033 27.17542574620033 27.17542574620033 27.17542574620033 27.17542574620033 27.17542574620033 27.17542574620033 27.17542574620033 27.17542574620033 27.17542574620033 27.17542574620033 27.17542574620033 27.17542574620033 27.17542574620033 27.17542574620033 27.17542574620033 27.17542574620033 27.17542574620033 27.17542574620033 27.17542574620033 27.17542574620033 27.17542574620033 27.17542574620033 27.17542574620033 27.17542574620033 27.17542574620033 27.17542574620033 27.17542574620033 27.17542574620033 27.17542574620033 27.17542574620033 27.17542574620033 27.17542574620033 27.17542574620033 27.17542574620033 27.17542574620033 27.17542574620033 27.17542574620033 27.17542574620033 27.17542574620033 27.17542574620033 27.17542574620033 27.17542574620033 27.17542574620033 27.17542574620033 27.17542574620033 27.17542574620033 27.17542574620033 27.17542574620033 27.17542574620033 27.17542574620033 27.17542574620033 27.17542574620033 27.17542574620033 27.17542574620033 27.17542574620033 27.17542574620033 27.17542574620033 27.17542574620033 27.17542574620033 27.17542574620033 27.17542574620033 27.17542574620033 27.17542574620033 27.17542574620033 27.17542574620033 27.17542574620033 27.17542574620033 27.17542574620033 27.17542574620033 27.17542574620033 27.17542574620033 27.17542574620033 27.17542574620033 27.17542574620033 27.17542574620033 27.17542574620033 27.17542574620033 27.17542574620033 27.17542574620033 27.17542574620033 27.17542574620033 27.197399743636698 27.197399743636698 27.219373741073063 27.219373741073063 27.241347738509432 27.307269730818533 27.373191723127633 27.527009705182202 27.702801684673137 27.988463651345906 28.362021607764145 28.669657571873284 29.131111518036988 29.658487456509796 30.29573338216444 30.713239333455412 31.174693279619117 31.87786119758286 32.53708112067387 33.240249038637614 33.877494964292254 34.53671488738326 35.17396081303791 35.37172678996521 35.74528474638345 36.44845266434719 37.1076725874382 37.195568577183664 37.74491851309284 38.22834645669291 38.57993041567478 39.01941036440212 39.305072331074896 39.722578282365866 40.33785021058414 40.447720197765975 40.88720014649331 41.32668009522065 41.67826405420253 42.13971800036623 42.44735396447537 43.128547885002746 43.48013184398462 44.09540377220289 44.44698773118476 45.0842336568394 45.94121955685772 46.117011536348656 46.754257462003295 47.4134773850943 48.77586522614906 48.90770921076726 49.4131111518037 49.940487090276505 50.46786302874931 51.28090093389489 52.02801684673137 52.68723676982238 53.302508698040654 53.851858633949824 54.68687053653177 55.67570042116829 55.983336385277426 57.060062259659404 57.34572422633217 58.18073612891412 59.0596960263688 59.982603918696206 60.86156381615089 61.80644570591467 62.37776963926021 63.256729536714886 63.564365500824024 64.70701336751512 65.56399926753342 66.20124519318806 67.21204907526095 67.87126899835195 68.86009888298847 69.8269547701886 70.48617469327962 71.47500457791614 72.39791247024354 72.92528840871636 73.6943783189892 74.48544222669841 75.23255813953489 75.957700054935 76.2213880241714 76.96850393700788 77.62772386009888 78.352865775499 79.20985167551731 79.51748763962644 80.17670756271745 80.9457974729903 81.18751144479035 82.13239333455411 82.83556125251786 83.36293719099066 84.0661051089544 85.07690899102728 85.45046694744553 85.9998168833547 86.32942684490021 86.68101080388207 86.94469877311849 87.20838674235489 87.34023072697309 87.36220472440945 87.36220472440945 87.27430873466398 87.14246475004578 86.9227247756821 86.76890679362754 86.50521882439114 85.9338948910456 85.58231093206373 85.12085698590002 84.48361106024538 84.17597509613624 83.7364951474089 83.36293719099066 82.76963926020875 81.93462735762681 81.62699139351767 81.0776414576085 80.37447353964475 79.84709760117195 79.12195568577184 78.52865775498992 77.73759384728072 76.99047793444424 76.44112799853508 75.60611609595313 74.50741622413477 73.65043032411646 73.2329243728255 72.63962644204358 71.65079655740706 70.59604468046146 70.31038271378868 69.25563083684307 68.72825489837027 68.20087895989745 67.62955502655191 67.21204907526095 66.53085515473356 65.82768723676982 65.14649331624244 64.68503937007874 63.981871452114994 63.498443508514924 62.75132759567845 61.9822376854056 61.5207837392419 60.77366782640542 59.69694195202344 58.9278520417506 58.42245010071415 57.87310016480498 57.36769822376854 56.752426295550265 56.00531038271379 55.28016846731368 54.70884453396813 54.02765061344076 53.52224867240432 52.775132759567846 51.72038088262223 51.41274491851309 50.577733015931145 49.19337117744003 49.105475187694566 48.18256729536715 47.47939937740341 47.127815418421534 46.73228346456693 46.358725508148694 45.54568760300312 45.30397363120308 44.90844167734847 44.4250137337484 44.05145577733016 43.54605383629372 43.08459989013001 42.71104193371177 42.07379600805713 41.54642006958433 41.15088811572972 40.68943416956601 40.33785021058414 39.854422266984066 39.34902032594763 39.239150338765796 38.90954037722029 38.51400842336568 38.36019044131112 38.16242446438381 37.98663248489288 37.67899652078374 37.4372825489837 37.2395165720564 37.041750595129095 36.756088628456325 36.536348654092656 36.00897271561985 35.72331074894708 35.48159677714705 35.06409082585607 35.02014283098333 34.62461087712873 34.29500091558323 33.943416956601354 33.723676982237684 33.503937007874015 33.196301043764876 32.932613074528476 32.734847097601175 32.49313312580114 32.36128914118294 32.27339315143747 32.16352316425563 32.07562717451016 31.96575718732833 31.87786119758286 31.81193920527376 31.767991210401025 31.68009522065556 31.548251236037355 31.37245925654642 31.28456326680095 31.108771287310017 30.932979307819082 30.757187328328143 30.537447353964474 30.383629371909905 30.119941402673504 29.834279436000735 29.63651345907343 29.306903497527927 29.043215528291523 28.823475553927853 28.55978758469145 28.38399560520051 28.16425563083684 28.03241164621864 27.988463651345906 27.96648965390954 27.96648965390954 27.96648965390954 27.96648965390954 27.96648965390954 27.944515656473172 27.90056766160044 27.90056766160044 27.87859366416407 27.87859366416407 27.856619666727706 27.834645669291337 27.834645669291337 27.834645669291337 27.81267167185497 27.81267167185497 27.81267167185497 27.790697674418606 27.790697674418606 27.790697674418606 27.790697674418606 27.768723676982237 27.74674967954587 27.724775682109502 27.702801684673137 27.702801684673137 27.658853689800402 27.658853689800402 27.636879692364037 27.592931697491302 27.570957700054933 27.570957700054933 27.548983702618568 27.527009705182202 27.527009705182202 27.505035707745833 27.505035707745833 27.505035707745833 27.505035707745833 27.505035707745833 27.483061710309467 27.483061710309467 27.461087712873102 27.461087712873102 27.461087712873102 27.439113715436733 27.439113715436733 27.439113715436733 27.439113715436733 27.439113715436733 27.439113715436733 27.439113715436733 27.439113715436733 27.439113715436733 27.439113715436733 27.439113715436733 27.439113715436733 27.439113715436733 27.439113715436733 27.439113715436733 27.439113715436733 27.439113715436733 27.439113715436733 27.439113715436733 27.439113715436733 27.439113715436733 27.439113715436733 27.439113715436733 27.439113715436733 27.439113715436733 27.439113715436733 27.439113715436733 27.439113715436733 27.439113715436733 27.439113715436733 27.439113715436733 27.439113715436733 27.439113715436733 27.439113715436733 27.439113715436733 27.417139718000367 27.439113715436733 27.439113715436733 27.439113715436733 27.439113715436733 27.439113715436733 27.439113715436733 27.417139718000367 27.439113715436733 27.439113715436733 27.439113715436733 27.439113715436733 27.439113715436733 27.439113715436733 27.439113715436733 27.439113715436733 27.439113715436733 27.439113715436733 27.439113715436733 27.439113715436733 27.439113715436733 27.439113715436733 27.439113715436733 27.439113715436733 27.439113715436733 27.439113715436733 27.439113715436733 27.439113715436733 27.439113715436733 27.439113715436733 27.439113715436733 27.439113715436733 27.439113715436733 27.439113715436733 27.439113715436733 27.439113715436733 27.439113715436733 27.439113715436733 27.439113715436733 27.439113715436733 27.439113715436733 27.439113715436733 27.439113715436733 27.439113715436733 27.439113715436733 27.439113715436733 27.439113715436733 27.439113715436733 27.439113715436733 27.439113715436733 27.439113715436733 27.439113715436733 27.439113715436733 27.439113715436733 27.439113715436733 27.439113715436733 27.439113715436733 27.417139718000367 27.439113715436733 27.439113715436733 27.439113715436733 27.439113715436733 27.439113715436733 27.439113715436733 27.417139718000367 27.439113715436733 27.439113715436733 27.439113715436733 27.439113715436733 27.417139718000367 27.417139718000367 27.439113715436733 27.439113715436733 27.439113715436733 27.439113715436733 27.417139718000367 27.439113715436733 27.417139718000367 27.439113715436733 27.439113715436733 27.439113715436733 27.417139718000367 27.417139718000367 27.439113715436733 27.439113715436733 27.439113715436733 27.439113715436733 27.439113715436733 27.417139718000367 27.439113715436733 27.439113715436733 27.439113715436733 27.439113715436733 27.439113715436733 27.417139718000367 27.439113715436733 27.439113715436733 27.417139718000367 27.439113715436733 27.439113715436733 27.439113715436733 27.417139718000367 27.417139718000367 27.417139718000367 27.417139718000367 27.417139718000367 27.417139718000367 27.439113715436733 27.417139718000367 27.417139718000367 27.417139718000367 27.417139718000367 27.417139718000367 27.417139718000367 27.417139718000367 27.417139718000367 27.417139718000367 27.417139718000367 27.417139718000367 27.417139718000367 27.417139718000367 27.417139718000367 27.417139718000367 27.417139718000367 27.417139718000367 27.417139718000367 27.417139718000367 27.417139718000367 27.417139718000367 27.417139718000367 27.417139718000367 27.417139718000367 27.417139718000367 27.417139718000367 27.417139718000367 27.417139718000367 27.417139718000367 27.417139718000367 27.417139718000367 27.417139718000367 27.417139718000367 27.417139718000367 27.417139718000367 27.417139718000367 27.439113715436733 27.417139718000367 27.417139718000367 27.417139718000367 27.417139718000367 27.417139718000367 27.417139718000367 27.417139718000367 27.417139718000367 27.417139718000367 27.417139718000367 27.417139718000367 27.417139718000367 27.417139718000367 27.417139718000367 27.417139718000367 27.439113715436733 27.417139718000367 27.417139718000367 27.439113715436733 27.439113715436733 27.461087712873102 27.483061710309467 27.505035707745833 27.527009705182202 27.570957700054933 27.636879692364037 27.724775682109502 27.856619666727706 27.988463651345906 28.142281633400476 28.27412561801868 28.47189159494598 28.91137154367332 29.262955502655192 29.63651345907343 30.032045412928035 30.493499359091743 30.86705731550998 31.46035524629189 31.81193920527376 32.36128914118294 32.932613074528476 33.284197033510345 33.81157297198315 34.33894891045596 34.86632484892877 35.30580479765611 35.70133675151071 36.14081670023805 36.690166636147225 37.1076725874382 37.94268449002014 38.60190441311115 39.06335835927486 39.524812305438566 39.986266251602274 40.953122138802414 41.56839406702069 42.18366599523897 42.776963926020876 43.304339864493684 44.02948177989379 44.77659769273027 45.26002563633034 45.96319355429409 46.908075444057864 47.4134773850943 47.89690532869437 48.35835927485809 49.08350119025819 50.028383080021975 50.40194103644021 50.99523896722212 51.6764328877495 52.44552279802234 52.994872733931516 53.720014649331624 54.4671305621681 55.21424647500458 56.07123237502289 56.818348287859365 57.43362021607764 57.93902215711408 58.59824208020509 59.1256180186779 60.378135872550814 60.641823841787215 61.16919978026002 62.26789965207837 62.905145577733016 63.542391503387655 64.2455594213514 64.88280534700604 65.717817249588 66.59677714704267 67.36586705731551 68.11298297015199 68.99194286760667 69.93682475737045 70.79381065738875 71.40908258560702 72.20014649331624 73.1010803882073 73.25489837026186 74.04596227797106 74.74913019593481 75.34242812671673 76.2213880241714 76.4850759934078 77.1442959164988 77.84746383446256 78.24299578831716 78.83629371909907 79.47353964475371 79.89104559604468 80.44039553195387 81.0117194652994 81.51712140633583 82.02252334737227 82.19831532686322 82.68174327046329 83.01135323200879 83.62662516022706 84.02215711408166 84.30781908075444 84.63742904229994 84.90111701153634 85.05493499359092 85.2087529756455 85.25270097051822 85.29664896539094 85.29664896539094 85.29664896539094 85.27467496795458 85.05493499359092 84.85716901666362 84.65940303973632 84.37374107306354 84.1320271012635 83.7364951474089 83.05530122688153 82.70371726789965 82.19831532686322 81.80278337300861 81.38527742171763 80.92382347555393 80.22065555759019 79.09998168833548 78.57260574986266 77.73759384728072 76.92455594213514 76.28731001648049 75.34242812671673 74.63926020875297 73.95806628822561 72.85936641640725 72.50778245742538 71.65079655740706 70.48617469327962 69.87090276506135 69.32155282915217 68.72825489837027 67.78337300860647 67.10217908807911 66.53085515473356 65.43215528291522 64.61911737776964 63.95989745467863 63.476469511078555 62.905145577733016 61.74052371360557 60.83958981871452 60.202343893059876 59.27943600073247 58.40047610327779 57.76323017762314 56.796374290423 56.15912836476836 55.17029848013185 54.335286577549894 53.720014649331624 52.55539278520418 52.15986083134957 51.5445889031313 50.81944698773118 50.226149056949275 49.544955136421905 48.22651529023988 47.89690532869437 47.3475553927852 46.842153451748764 46.09503753891229 45.39186962094854 45.12818165171214 44.271195751693824 43.67789782091192 43.260391869620946 42.46932796191174 42.24958798754807 41.72221204907526 41.21681010803882 40.88720014649331 40.35982420802051 39.8324482695477 39.48086431056583 39.21717634132943 38.75572239516572 38.64585240798389 38.25032045412928 38.05255447720198 37.7009705182201 37.21754257462003 36.931880607947264 36.558322651529025 36.316608679728986 35.94305072331075 35.61344076176525 35.48159677714705 34.9761948361106 34.7784288591833 34.55868888481963 34.11920893609229 33.98736495147409 33.74565097967405 33.372093023255815 33.152353048892145 32.97656106940121 32.69089910272844 32.55905511811024 32.33931514374657 32.16352316425563 32.03167917963743 31.89983519501923 31.78996520783739 31.702069218091925 31.57022523347372 31.37245925654642 31.15271928218275 30.998901300128182 30.757187328328143 30.537447353964474 30.339681377037174 30.185863394982604 30.010071415491666 29.834279436000735 29.680461453946165 29.592565464200696 29.48269547701886 29.372825489837027 29.306903497527927 29.240981505218826 29.19703351034609 29.109137520600623 28.999267533418788 28.91137154367332 28.71360556674602 28.53781358725508 28.427943600073245 28.296099615455045 28.18622962827321 28.09833363852774 28.076359641091376 28.076359641091376 28.076359641091376 28.076359641091376 28.076359641091376 28.05438564365501 28.03241164621864 28.03241164621864 28.03241164621864 28.03241164621864 28.03241164621864 28.03241164621864 28.03241164621864 28.010437648782275 28.010437648782275 28.03241164621864 28.010437648782275 28.010437648782275 27.988463651345906 27.988463651345906 27.988463651345906 27.988463651345906 27.988463651345906 27.988463651345906 27.96648965390954 27.96648965390954 27.96648965390954 27.944515656473172 27.944515656473172 27.922541659036806 27.922541659036806 27.922541659036806 27.90056766160044 27.90056766160044 27.87859366416407 27.87859366416407 27.856619666727706 27.856619666727706 27.856619666727706 27.834645669291337 27.834645669291337 27.834645669291337 27.834645669291337 27.834645669291337 27.834645669291337 27.834645669291337 27.834645669291337 27.834645669291337 27.834645669291337 27.834645669291337 27.834645669291337 27.834645669291337 27.834645669291337 27.834645669291337 27.81267167185497 27.81267167185497 27.834645669291337 27.834645669291337 27.834645669291337 27.81267167185497 27.81267167185497 27.81267167185497 27.834645669291337 27.834645669291337 27.834645669291337 27.834645669291337 27.834645669291337 27.81267167185497 27.834645669291337 27.81267167185497 27.81267167185497 27.81267167185497 27.790697674418606 27.790697674418606 27.790697674418606 27.790697674418606 27.790697674418606 27.790697674418606 27.790697674418606 27.790697674418606 27.790697674418606 27.790697674418606 27.790697674418606 27.790697674418606 27.790697674418606 27.790697674418606 27.790697674418606 27.790697674418606 27.768723676982237 27.790697674418606 27.768723676982237 27.768723676982237 27.768723676982237 27.768723676982237 27.768723676982237 27.768723676982237 27.768723676982237 27.768723676982237 27.768723676982237 27.768723676982237 27.768723676982237 27.768723676982237 27.768723676982237 27.768723676982237 27.74674967954587 27.74674967954587 27.74674967954587 27.74674967954587 27.74674967954587 27.74674967954587 27.724775682109502 27.74674967954587 27.74674967954587 27.74674967954587 27.74674967954587 27.74674967954587 27.724775682109502 27.724775682109502 27.724775682109502 27.74674967954587 27.74674967954587 27.74674967954587 27.724775682109502 27.74674967954587 27.74674967954587 27.74674967954587 27.724775682109502 27.74674967954587 27.74674967954587 27.724775682109502 27.74674967954587 27.724775682109502 27.724775682109502 27.724775682109502 27.724775682109502 27.724775682109502 27.74674967954587 27.724775682109502 27.724775682109502 27.74674967954587 27.724775682109502 27.724775682109502 27.724775682109502 27.724775682109502 27.724775682109502 27.724775682109502 27.724775682109502 27.724775682109502 27.724775682109502 27.724775682109502 27.724775682109502 27.724775682109502 27.724775682109502 27.74674967954587 27.724775682109502 27.724775682109502 27.724775682109502 27.724775682109502 27.724775682109502 27.724775682109502 27.724775682109502 27.74674967954587 27.724775682109502 27.724775682109502 27.724775682109502 27.724775682109502 27.702801684673137 27.702801684673137 27.702801684673137 27.702801684673137 27.702801684673137 27.702801684673137 27.68082768723677 27.68082768723677 27.68082768723677 27.658853689800402 27.658853689800402 27.658853689800402 27.68082768723677 27.68082768723677 27.68082768723677 27.658853689800402 27.658853689800402 27.658853689800402 27.658853689800402 27.658853689800402 27.68082768723677 27.68082768723677 27.658853689800402 27.658853689800402 27.68082768723677 27.68082768723677 27.658853689800402 27.658853689800402 27.658853689800402 27.658853689800402 27.68082768723677 27.658853689800402 27.658853689800402 27.658853689800402 27.658853689800402 27.658853689800402 27.68082768723677 27.658853689800402 27.68082768723677 27.658853689800402 27.658853689800402 27.658853689800402 27.658853689800402 27.658853689800402 27.658853689800402 27.658853689800402 27.658853689800402 27.68082768723677 27.658853689800402 27.658853689800402 27.658853689800402 27.68082768723677 27.658853689800402 27.658853689800402 27.658853689800402 27.658853689800402 27.658853689800402 27.658853689800402 27.658853689800402 27.658853689800402 27.658853689800402 27.658853689800402 27.658853689800402 27.658853689800402 27.658853689800402 27.658853689800402 27.658853689800402 27.68082768723677 27.68082768723677 27.658853689800402 27.658853689800402 27.658853689800402 27.658853689800402 27.658853689800402 27.658853689800402 27.658853689800402 27.658853689800402 27.658853689800402 27.658853689800402 27.658853689800402 27.658853689800402 27.658853689800402 27.658853689800402 27.658853689800402 27.658853689800402 27.658853689800402 27.658853689800402 27.658853689800402 27.658853689800402 27.658853689800402 27.658853689800402 27.658853689800402 27.658853689800402 27.658853689800402 27.658853689800402 27.68082768723677 27.68082768723677 27.68082768723677 27.68082768723677 27.68082768723677 27.68082768723677 27.68082768723677 27.68082768723677 27.68082768723677 27.702801684673137 27.702801684673137 27.702801684673137 27.702801684673137 27.724775682109502 27.768723676982237 27.856619666727706 27.944515656473172 28.09833363852774 28.296099615455045 28.449917597509614 28.69163156930965 28.91137154367332 29.219007507782457 29.570591466764327 29.834279436000735 30.273759384728073 30.58139534883721 31.24061527192822 31.614173228346456 31.987731184764694 32.55905511811024 33.130379051455776 33.503937007874015 34.25105292071049 34.66855887200147 35.15198681560154 35.61344076176525 35.81120673869255 36.426478666910825 36.865958615638164 37.1735945797473 37.635048525911 38.03058047976561 38.38216443874748 38.79967039003846 39.239150338765796 39.546786302874935 39.986266251602274 40.55759018494781 40.84325215162058 41.19483611060245 41.72221204907526 42.2276139901117 42.68906793627541 43.128547885002746 43.568027833730085 44.2931697491302 44.8864676799121 45.58963559787585 46.051089544039556 46.995971433803334 47.457425379967034 48.02874931331258 49.08350119025819 49.720747115912836 50.29207104925838 50.88536898004028 51.58853689800403 52.423548800585976 53.258560703167916 53.829884636513455 54.62094854422267 55.17029848013185 56.20307635964109 56.598608313495696 57.191906244277604 58.22468412378685 58.81798205456876 59.367331990477936 60.026551913568944 60.86156381615089 61.6526277238601 62.24592565464201 63.036989562351216 63.828053470060425 64.94872733931514 65.14649331624244 65.78373924189708 66.5748031496063 67.43178904962461 68.00311298297015 68.7062809009339 69.7610327778795 70.37630470609778 71.25526460355246 71.56290056766161 72.33199047793445 73.21095037538913 73.98004028566197 75.03479216260759 75.60611609595313 76.11151803698957 76.66086797289874 77.18824391137156 78.04522981138985 78.72642373191724 79.47353964475371 79.89104559604468 80.52829152169933 80.96777147042667 81.64896539095403 82.13239333455411 82.48397729353599 83.05530122688153 83.45083318073613 84.11005310382714 84.59348104742722 84.94506500640908 85.2087529756455 85.51638893975462 85.88994689617286 86.15363486540927 86.43929683208204 86.63706280900934 86.81285478850029 86.87877678080937 86.94469877311849 86.96667277055485 86.96667277055485 86.96667277055485 86.96667277055485 86.94469877311849 86.90075077824574 86.85680278337301 86.76890679362754 86.70298480131844 86.50521882439114 86.3953488372093 86.21955685771837 86.08771287310017 85.82402490386376 85.49441494231826 85.31862296282733 85.23072697308186 84.92309100897272 84.61545504486358 84.2638710858817 83.89031312946346 83.4728071781725 83.16517121406336 82.87950924739059 82.59384728071782 82.06647134224502 81.75883537813587 81.20948544222671 80.92382347555393 80.57223951657207 79.97894158579015 79.69327961911739 79.36366965757188 78.90221571140816 78.37483977293536 77.97930781908076 77.51785387291704 77.16626991393517 76.63889397546237 75.93572605749863 75.73796008057133 75.23255813953489 74.63926020875297 74.00201428309833 73.38674235488006 72.90331441127998 72.20014649331624 71.51895257278886 71.21131660867974 70.09064273942502 69.67313678813403 69.18970884453397 68.44259293169749 67.93719099066105 66.94836110602454 66.4429591649881 66.00347921626076 65.32228529573338 64.59714338033328 64.13568943416956 62.66343160593298 62.53158762131478 62.00421168284197 61.45486174693279 60.90551181102362 60.158395898187145 59.3893059879143 58.51034609045962 57.71928218275041 57.125984251968504 56.15912836476836 55.34609045962278 54.99450650064091 53.895806628822555 53.126716718549716 52.3356528108405 51.8741988646768 51.43471891594946 50.81944698773118 50.182201062076544 49.786669108221936 49.2153451748764 48.79783922358543 48.13861930049441 47.457425379967034 47.017945431239696 46.64438747482146 46.16095953122139 45.80937557223952 45.52371360556674 45.0183116645303 44.5568577183666 44.09540377220289 43.74381981322102 43.304339864493684 42.842885918329976 42.20563999267533 41.98590001831167 41.39260208752975 41.26075810291155 40.601538179820544 40.184032228529574 39.590734297747666 39.19520234389306 38.90954037722029 38.60190441311115 38.31624244643838 38.03058047976561 37.7009705182201 37.45925654642007 36.931880607947264 36.404504669474456 36.118842702801686 35.94305072331075 35.70133675151071 35.48159677714705 35.10803882072881 34.9102728438015 34.62461087712873 34.36092290789233 34.16315693096502 33.855520966855885 33.569859000183115 33.218275041201245 33.020509064273945 32.800769089910276 32.42721113349204 31.921809192455594 31.57022523347372 31.30653726423732 31.020875297564547 30.713239333455412 30.317707379600805 30.032045412928035 29.592565464200696 29.131111518036988 28.889397546236953 28.669657571873284 28.47189159494598 28.12030763596411 27.96648965390954 27.90056766160044 27.856619666727706 27.856619666727706 27.834645669291337 27.834645669291337 27.834645669291337 27.81267167185497 27.81267167185497 27.790697674418606 27.768723676982237 27.768723676982237 27.768723676982237 27.768723676982237 27.768723676982237 27.768723676982237 27.768723676982237 27.768723676982237 27.768723676982237 27.768723676982237 27.74674967954587 27.74674967954587 27.768723676982237 27.768723676982237 27.74674967954587 27.74674967954587 27.74674967954587 27.724775682109502 27.702801684673137 27.68082768723677 27.68082768723677 27.658853689800402 27.636879692364037 27.592931697491302 27.570957700054933 27.548983702618568 27.548983702618568 27.527009705182202 27.527009705182202 27.527009705182202 27.527009705182202 27.527009705182202 27.527009705182202 27.527009705182202 27.527009705182202 27.527009705182202 27.527009705182202 27.527009705182202 27.527009705182202 27.527009705182202 27.527009705182202 27.527009705182202 27.527009705182202 27.527009705182202 27.527009705182202 27.527009705182202 27.527009705182202 27.527009705182202 27.527009705182202 27.527009705182202 27.527009705182202 27.527009705182202 27.527009705182202 27.527009705182202 27.527009705182202 27.527009705182202 27.505035707745833 27.505035707745833 27.505035707745833 27.505035707745833 27.505035707745833 27.505035707745833 27.505035707745833 27.505035707745833 27.505035707745833 27.505035707745833 27.505035707745833 27.505035707745833 27.505035707745833 27.505035707745833 27.505035707745833 27.505035707745833 27.505035707745833 27.505035707745833 27.505035707745833 27.505035707745833 27.505035707745833 27.505035707745833 27.505035707745833 27.505035707745833 27.505035707745833 27.505035707745833 27.505035707745833 27.505035707745833 27.505035707745833 27.505035707745833 27.505035707745833 27.483061710309467 27.505035707745833 27.483061710309467 27.505035707745833 27.505035707745833 27.505035707745833 27.505035707745833 27.505035707745833 27.505035707745833 27.483061710309467 27.505035707745833 27.505035707745833 27.505035707745833 27.505035707745833 27.505035707745833 27.483061710309467 27.483061710309467 27.505035707745833 27.483061710309467 27.505035707745833 27.505035707745833 27.505035707745833 27.483061710309467 27.505035707745833 27.505035707745833 27.505035707745833 27.505035707745833 27.505035707745833 27.483061710309467 27.505035707745833 27.505035707745833 27.505035707745833 27.505035707745833 27.505035707745833 27.505035707745833 27.505035707745833 27.505035707745833 27.505035707745833 27.505035707745833 27.505035707745833 27.505035707745833 27.505035707745833 27.505035707745833 27.505035707745833 27.505035707745833 27.505035707745833 27.505035707745833 27.505035707745833 27.505035707745833 27.483061710309467 27.483061710309467 27.483061710309467 27.483061710309467 27.483061710309467 27.483061710309467 27.483061710309467 27.483061710309467 27.483061710309467 27.483061710309467 27.483061710309467 27.483061710309467 27.483061710309467 27.483061710309467 27.483061710309467 27.483061710309467 27.483061710309467 27.483061710309467 27.483061710309467 27.483061710309467 27.483061710309467 27.483061710309467 27.483061710309467 27.483061710309467 27.483061710309467 27.483061710309467 27.483061710309467 27.483061710309467 27.483061710309467 27.461087712873102 27.483061710309467 27.483061710309467 27.483061710309467 27.483061710309467 27.483061710309467 27.483061710309467 27.483061710309467 27.483061710309467 27.483061710309467 27.483061710309467 27.483061710309467 27.483061710309467 27.461087712873102 27.483061710309467 27.483061710309467 27.483061710309467 27.483061710309467 27.483061710309467 27.483061710309467 27.483061710309467 27.483061710309467 27.483061710309467 27.483061710309467 27.483061710309467 27.483061710309467 27.483061710309467 27.483061710309467 27.483061710309467 27.483061710309467 27.483061710309467 27.483061710309467 27.483061710309467 27.483061710309467 27.483061710309467 27.483061710309467 27.483061710309467 27.483061710309467 27.483061710309467 27.483061710309467 27.483061710309467 27.483061710309467 27.483061710309467 27.483061710309467 27.483061710309467 27.483061710309467 27.483061710309467 27.505035707745833 27.483061710309467 27.483061710309467 27.483061710309467 27.505035707745833 27.505035707745833 27.527009705182202 27.527009705182202 27.527009705182202 27.548983702618568 27.570957700054933 27.614905694927668 27.658853689800402 27.790697674418606 27.87859366416407 28.03241164621864 28.16425563083684 28.49386559238235 28.735579564182384 28.999267533418788 29.284929500091557 29.944149423182566 30.29573338216444 30.889031312946347 31.52627723860099 31.96575718732833 32.62497711041934 33.108405054019414 33.591832997619484 34.27302691814686 35.13001281816517 35.32777879509247 35.87712873100165 36.316608679728986 37.15162058231093 37.7668925105292 37.98663248489288 39.04138436183849 39.28309833363853 39.722578282365866 40.27192821827504 40.88720014649331 41.48049807727523 42.0298480131844 42.2276139901117 42.733015931148145 43.260391869620946 43.61197582860282 44.2931697491302 44.6887017029848 45.19410364402124 45.69950558505768 45.985167551730456 46.424647500457795 47.10584142098517 47.47939937740341 47.98480131843985 48.35835927485809 48.86376121589453 49.39113715436733 49.808643105658305 50.35799304156748 50.81944698773118 51.28090093389489 51.7423548800586 52.1378868339132 52.863028749313315 53.368430690349754 53.588170664713424 54.09357260574986 54.5989745467863 55.19227247756821 55.65372642373192 55.983336385277426 56.466764328877495 56.972166269913934 57.257828236586704 58.29060611609595 58.44442409815052 58.81798205456876 59.3893059879143 59.784837941768906 60.33418787767808 61.03735579564182 61.23512177256912 61.7844717084783 62.18000366233291 62.72935359824208 63.476469511078555 63.652261490569494 64.20161142647866 64.97070133675152 65.34425929316976 65.76176524446072 66.13532320087896 66.83849111884271 67.32191906244277 67.60758102911555 68.11298297015199 68.64035890862479 69.05786485991577 69.65116279069767 70.24446072147958 70.61801867789782 71.14539461637062 71.73869254715254 72.1561984984435 72.79344442409815 72.9692364035891 73.47463834462553 73.8262223036074 74.35359824208021 74.79307819080753 75.45229811389855 75.91375206006227 76.11151803698957 76.57297198315328 76.8806079472624 77.25416590368064 77.91338582677164 78.44076176524446 78.79234572422632 79.31972166269914 79.84709760117195 80.19868156015382 80.68210950375389 81.05566746017213 81.56106940120857 82.04449734480863 82.39608130379051 82.85753524995422 83.53872917048159 83.8683391320271 84.24189708844534 84.59348104742722 84.87914301409998 85.2087529756455 85.51638893975462 85.75810291155466 85.91192089360922 85.9998168833547 86.06573887566381 86.10968687053654 86.10968687053654 86.10968687053654 86.10968687053654 86.10968687053654 86.06573887566381 85.95586888848196 85.84599890130013 85.69218091924556 85.49441494231826 85.25270097051822 85.03296099615454 84.74729902948178 84.50558505768174 84.15400109869987 83.8683391320271 83.64859915766343 83.40688518586339 82.9454312396997 82.63779527559055 82.30818531404505 82.04449734480863 81.64896539095403 81.23145943966307 80.87987548068119 80.46236952939023 79.97894158579015 79.60538362937191 79.07800769089911 78.6824757370445 78.1550997985717 77.58377586522616 77.16626991393517 76.5509979857169 75.957700054935 75.49624610877129 74.83702618568029 74.33162424464385 73.40871635231643 72.68357443691632 72.17817249587988 71.65079655740706 70.9036806445706 69.87090276506135 69.32155282915217 68.64035890862479 67.80534700604285 66.92638710858817 66.3111151803699 65.12451931880608 64.53122138802416 63.93792345724226 63.01501556491485 62.37776963926021 61.43288774949643 60.48800585973265 59.850759934078006 58.88390404687786 57.93902215711408 57.27980223402307 55.983336385277426 55.32411646218641 54.68687053653177 53.698040651895255 52.70921076725874 52.09393883904047 51.4786669108222 50.314045046694744 49.479033144112805 48.88573521333089 48.13861930049441 47.43545138253067 47.017945431239696 46.380699505585056 46.02911554660319 45.45779161325764 44.93041567478484 44.57883171580296 43.91961179271196 43.54605383629372 43.216443874748215 42.798937923457245 42.49130195934811 41.85405603369347 41.34865409265702 40.99707013367515 40.469694195202344 39.898370261856805 39.4369163156931 39.06335835927486 38.64585240798389 37.81084050540194 37.261490569492764 36.865958615638164 36.316608679728986 35.81120673869255 35.48159677714705 35.13001281816517 34.75645486174693 34.36092290789233 33.943416956601354 33.67972898736495 33.350119025819446 32.95458707196484 32.734847097601175 32.49313312580114 32.3173411463102 32.00970518220106 31.636147225782825 31.43838124885552 30.976927302691813 30.58139534883721 30.493499359091743 30.251785387291704 30.054019410364404 29.724409448818896 29.175059512909723 29.087163523164257 28.867423548800588 28.669657571873284 28.55978758469145 28.40596960263688 28.296099615455045 28.18622962827321 28.142281633400476 28.09833363852774 28.076359641091376 28.03241164621864 27.988463651345906 27.96648965390954 27.922541659036806 27.90056766160044 27.834645669291337 27.790697674418606 27.724775682109502 27.68082768723677 27.636879692364037 27.570957700054933 27.548983702618568 27.483061710309467 27.417139718000367 27.417139718000367 27.395165720564 27.373191723127633 27.351217725691264 27.351217725691264 27.351217725691264 27.351217725691264 27.351217725691264 27.329243728254898 27.329243728254898 27.329243728254898 27.329243728254898 27.329243728254898 27.329243728254898 27.329243728254898 27.329243728254898 27.329243728254898 27.329243728254898 27.329243728254898 27.329243728254898 27.329243728254898 27.329243728254898 27.329243728254898 27.329243728254898 27.329243728254898 27.329243728254898 27.329243728254898 27.329243728254898 27.329243728254898 27.329243728254898 27.329243728254898 27.329243728254898 27.329243728254898 27.329243728254898 27.329243728254898 27.329243728254898 27.329243728254898 27.307269730818533 27.329243728254898 27.307269730818533 27.307269730818533 27.307269730818533 27.307269730818533 27.307269730818533 27.307269730818533 27.307269730818533 27.307269730818533 27.307269730818533 27.307269730818533 27.307269730818533 27.307269730818533 27.329243728254898 27.307269730818533 27.307269730818533 27.307269730818533 27.307269730818533 27.307269730818533 27.307269730818533 27.307269730818533 27.307269730818533 27.307269730818533 27.307269730818533 27.307269730818533 27.285295733382164 27.285295733382164 27.307269730818533 27.307269730818533 27.307269730818533 27.285295733382164 27.307269730818533 27.307269730818533 27.285295733382164 27.285295733382164 27.285295733382164 27.285295733382164 27.285295733382164 27.285295733382164 27.285295733382164 27.285295733382164 27.285295733382164 27.285295733382164 27.285295733382164 27.285295733382164 27.285295733382164 27.285295733382164 27.285295733382164 27.285295733382164 27.285295733382164 27.285295733382164 27.285295733382164 27.285295733382164 27.285295733382164 27.285295733382164 27.285295733382164 27.285295733382164 27.285295733382164 27.285295733382164 27.263321735945798 27.285295733382164 27.285295733382164 27.285295733382164 27.285295733382164 27.285295733382164 27.263321735945798 27.263321735945798 27.263321735945798 27.263321735945798 27.263321735945798 27.263321735945798 27.263321735945798 27.285295733382164 27.285295733382164 27.285295733382164 27.263321735945798 27.263321735945798 27.263321735945798 27.285295733382164 27.285295733382164 27.263321735945798 27.285295733382164 27.263321735945798 27.263321735945798 27.263321735945798 27.263321735945798 27.263321735945798 27.263321735945798 27.263321735945798 27.285295733382164 27.263321735945798 27.263321735945798 27.263321735945798 27.263321735945798 27.263321735945798 27.285295733382164 27.263321735945798 27.263321735945798 27.263321735945798 27.285295733382164 27.263321735945798 27.263321735945798 27.285295733382164 27.263321735945798 27.263321735945798 27.263321735945798 27.263321735945798 27.263321735945798 27.263321735945798 27.263321735945798 27.263321735945798 27.263321735945798 27.263321735945798 27.263321735945798 27.263321735945798 27.263321735945798 27.263321735945798 27.263321735945798 27.263321735945798 27.263321735945798 27.263321735945798 27.263321735945798 27.263321735945798 27.263321735945798 27.263321735945798 27.263321735945798 27.263321735945798 27.263321735945798 27.263321735945798 27.263321735945798 27.263321735945798 27.263321735945798 27.263321735945798 27.263321735945798 27.263321735945798 27.263321735945798 27.263321735945798 27.263321735945798 27.263321735945798 27.263321735945798 27.263321735945798 27.263321735945798 27.263321735945798 27.263321735945798 27.263321735945798 27.263321735945798 27.263321735945798 27.263321735945798 27.263321735945798 27.263321735945798 27.263321735945798 27.263321735945798 27.263321735945798 27.263321735945798 27.263321735945798 27.263321735945798 27.263321735945798 27.263321735945798 27.263321735945798 27.263321735945798 27.263321735945798 27.285295733382164 27.263321735945798 27.263321735945798 27.263321735945798 27.263321735945798 27.285295733382164 27.263321735945798 27.263321735945798 27.263321735945798 27.263321735945798 27.263321735945798 27.285295733382164 27.263321735945798 27.263321735945798 27.263321735945798 27.285295733382164 27.285295733382164 27.285295733382164 27.285295733382164 27.285295733382164 27.307269730818533 27.307269730818533 27.307269730818533 27.351217725691264 27.439113715436733 27.483061710309467 27.592931697491302 27.724775682109502 27.944515656473172 28.142281633400476 28.449917597509614 28.75755356161875 29.131111518036988 29.526643471891596 30.010071415491666 30.273759384728073 30.713239333455412 31.020875297564547 31.614173228346456 31.921809192455594 32.33931514374657 32.62497711041934 32.91063907709211 33.350119025819446 33.81157297198315 34.31697491301959 34.8443508514924 35.23988280534701 36.250686687419886 36.51437465665629 36.975828602819995 37.81084050540194 38.25032045412928 38.75572239516572 39.678630287493135 39.942318256729536 40.77733015931148 41.28273210034792 41.67826405420253 42.13971800036623 42.864859915766345 43.260391869620946 43.831715802966485 44.271195751693824 44.820545687603 45.63358359274858 45.853323567112255 46.27082951840322 46.842153451748764 47.43545138253067 48.00677531587621 48.40230726973082 49.01757919794909 49.676799121040105 49.852591100531036 50.42391503387658 51.01721296465848 51.50064090825856 52.22578282365867 52.731184764695115 53.456326680095216 54.5330525544772 55.01648049807727 55.63175242629555 56.422816334004764 57.016114264786665 57.82915216993224 58.77403405969603 59.587071964841606 60.356161875114445 60.92748580845999 61.5207837392419 62.09210767258744 62.839223585423916 63.87200146493316 64.35542940853324 65.08057132393334 65.76176524446072 66.13532320087896 66.75059512909723 67.25599707013367 68.02508698040651 69.03589086247939 69.2995788317158 70.35433070866142 71.01355063175242 71.95843252151622 72.20014649331624 72.74949642922542 73.45266434718917 74.17780626258927 74.74913019593481 75.62809009338949 76.33125801135323 76.8146859549533 77.276139901117 77.75956784471708 78.70444973448086 79.38564365500824 79.86907159860831 80.48434352682659 81.36330342428127 81.60501739608131 82.26423731917231 82.72569126533602 83.40688518586339 84.04413111151804 84.72532503204542 85.14283098333638 85.75810291155466 86.17560886284564 86.72495879875481 87.09851675517305 87.62589269364585 88.30708661417323 88.63669657571873 89.07617652444607 89.44973448086431 89.82329243728255 89.93316242446438 90.10895440395532 90.41659036806446 90.70225233473722 90.76817432704634 90.9219923091009 91.0538362937191 91.14173228346456 91.2516022706464 91.33949826039188 91.4493682475737 91.51529023988282 91.53726423731918 91.5812122321919 91.5812122321919 91.5812122321919 91.5812122321919 91.55923823475554 91.51529023988282 91.3175242629555 91.0538362937191 90.74620032960996 90.52646035524629 90.15290239882806 89.73539644753708 89.60355246291888 89.03222852957333 88.61472257828237 88.30708661417323 87.82365867057317 87.42812671671855 86.85680278337301 86.06573887566381 85.6042849295001 85.14283098333638 84.35176707562718 84.11005310382714 83.40688518586339 82.63779527559055 81.91265336019043 81.16553744735396 80.87987548068119 80.15473356528108 79.36366965757188 78.0891778062626 77.32008789598976 76.52902398828054 75.91375206006227 74.99084416773485 74.61728621131661 73.1010803882073 72.52975645486175 71.51895257278886 70.88170664713422 69.87090276506135 69.25563083684307 67.98113898553379 67.25599707013367 66.53085515473356 65.76176524446072 65.14649331624244 64.26753341878776 63.630287493133125 62.37776963926021 61.34499175975096 60.48800585973265 59.872733931514375 58.97180003662333 58.31258011353232 57.76323017762314 56.840322285295734 55.983336385277426 55.06042849295001 54.44515656473173 53.61014466214979 52.97289873649515 52.18183482878594 51.25892693645852 50.445889031312944 49.984435085149244 48.97363120307636 48.33638527742171 47.91887932613075 47.4134773850943 46.66636147225783 45.74345357993042 45.54568760300312 44.99633766709394 44.205273759384724 43.721845815784654 43.150521882439115 42.75498992858451 42.05182201062077 41.39260208752975 40.77733015931148 40.381798205456874 39.5687603003113 39.107306354147596 38.73374839772936 38.29426844900202 37.78886650796557 37.28346456692913 36.931880607947264 36.51437465665629 36.184764695110786 35.96502472074712 35.67936275407435 35.45962277971068 35.34975279252884 35.13001281816517 35.02014283098333 34.8443508514924 34.62461087712873 34.42684490020143 34.27302691814686 34.075260941219554 33.61380699505585 33.39406702069218 33.174327046328514 32.82274308734664 32.42721113349204 31.987731184764694 31.72404321552829 31.482329243728255 31.15271928218275 30.889031312946347 30.713239333455412 30.42757736678264 30.097967405237135 29.966123420618935 29.8562534334371 29.724409448818896 29.61453946163706 29.460721479582496 29.372825489837027 29.328877494964292 29.240981505218826 29.153085515473357 29.087163523164257 29.021241530855153 28.91137154367332 28.75755356161875 28.62570957700055 28.427943600073245 28.31807361289141 28.18622962827321 28.142281633400476 28.142281633400476 28.16425563083684 28.18622962827321 28.18622962827321 28.142281633400476 28.12030763596411 28.09833363852774 28.076359641091376 28.076359641091376 28.05438564365501 28.05438564365501 28.05438564365501 28.010437648782275 28.010437648782275 27.988463651345906 27.944515656473172 27.922541659036806 27.922541659036806 27.90056766160044 27.90056766160044 27.90056766160044 27.922541659036806 27.922541659036806 27.90056766160044 27.90056766160044 27.90056766160044 27.87859366416407 27.87859366416407 27.87859366416407 27.87859366416407 27.87859366416407 27.856619666727706 27.856619666727706 27.834645669291337 27.834645669291337 27.81267167185497 27.790697674418606 27.768723676982237 27.74674967954587 27.724775682109502 27.702801684673137 27.68082768723677 27.658853689800402 27.658853689800402 27.636879692364037 27.636879692364037 27.614905694927668 27.592931697491302 27.592931697491302 27.592931697491302 27.592931697491302 27.592931697491302 27.570957700054933 27.570957700054933 27.570957700054933 27.570957700054933 27.570957700054933 27.548983702618568 27.548983702618568 27.548983702618568 27.527009705182202 27.527009705182202 27.505035707745833 27.483061710309467 27.483061710309467 27.461087712873102 27.439113715436733 27.417139718000367 27.395165720564 27.395165720564 27.373191723127633 27.351217725691264 27.351217725691264 27.329243728254898 27.329243728254898 27.307269730818533 27.307269730818533 27.307269730818533 27.285295733382164 27.285295733382164 27.285295733382164 27.285295733382164 27.285295733382164 27.285295733382164 27.285295733382164 27.285295733382164 27.285295733382164 27.285295733382164 27.263321735945798 27.263321735945798 27.285295733382164 27.263321735945798 27.263321735945798 27.263321735945798 27.285295733382164 27.263321735945798 27.263321735945798 27.263321735945798 27.263321735945798 27.263321735945798 27.263321735945798 27.263321735945798 27.263321735945798 27.263321735945798 27.263321735945798 27.263321735945798 27.263321735945798 27.263321735945798 27.263321735945798 27.241347738509432 27.241347738509432 27.241347738509432 27.241347738509432 27.241347738509432 27.241347738509432 27.219373741073063 27.219373741073063 27.219373741073063 27.219373741073063 27.197399743636698 27.197399743636698 27.197399743636698 27.197399743636698 27.197399743636698 27.197399743636698 27.197399743636698 27.197399743636698 27.197399743636698 27.17542574620033 27.17542574620033 27.197399743636698 27.17542574620033 27.17542574620033 27.17542574620033 27.17542574620033 27.17542574620033 27.17542574620033 27.17542574620033 27.17542574620033 27.153451748763963 27.153451748763963 27.131477751327594 27.131477751327594 27.131477751327594 27.10950375389123 27.087529756454863 27.087529756454863 27.087529756454863 27.065555759018494 27.065555759018494 27.087529756454863 27.065555759018494 27.065555759018494 27.065555759018494 27.065555759018494 27.065555759018494 27.087529756454863 27.065555759018494 27.087529756454863 27.065555759018494 27.087529756454863 27.087529756454863 27.087529756454863 27.087529756454863 27.087529756454863 27.087529756454863 27.087529756454863 27.087529756454863 27.087529756454863 27.087529756454863 27.087529756454863 27.087529756454863 27.087529756454863 27.087529756454863 27.087529756454863 27.087529756454863 27.087529756454863 27.087529756454863 27.087529756454863 27.087529756454863 27.087529756454863 27.087529756454863 27.087529756454863 27.087529756454863 27.087529756454863 27.087529756454863 27.087529756454863 27.087529756454863 27.087529756454863 27.065555759018494 27.087529756454863 27.065555759018494 27.065555759018494 27.087529756454863 27.065555759018494 27.065555759018494 27.065555759018494 27.065555759018494 27.065555759018494 27.065555759018494 27.065555759018494 27.065555759018494 27.065555759018494 27.065555759018494 27.065555759018494 27.065555759018494 27.065555759018494 27.065555759018494 27.065555759018494 27.065555759018494 27.065555759018494 27.065555759018494 27.065555759018494 27.065555759018494 27.065555759018494 27.065555759018494 27.087529756454863 27.065555759018494 27.065555759018494 27.065555759018494 27.065555759018494 27.065555759018494 27.065555759018494 27.065555759018494 27.065555759018494 27.065555759018494 27.065555759018494 27.065555759018494 27.065555759018494 27.065555759018494 27.065555759018494 27.065555759018494 27.065555759018494 27.065555759018494 27.065555759018494 27.065555759018494 27.065555759018494 27.065555759018494 27.065555759018494 27.065555759018494 27.065555759018494 27.065555759018494 27.065555759018494 27.087529756454863 27.065555759018494 27.065555759018494 27.065555759018494 27.087529756454863 27.087529756454863 27.087529756454863 27.10950375389123 27.131477751327594 27.131477751327594 27.153451748763963 27.197399743636698 27.263321735945798 27.395165720564 27.570957700054933 27.74674967954587 28.05438564365501 28.18622962827321 28.55978758469145 29.19703351034609 29.54861746932796 30.097967405237135 30.51547335652811 30.976927302691813 31.68009522065556 31.921809192455594 32.734847097601175 33.32814502838308 33.943416956601354 34.62461087712873 35.02014283098333 35.63541475920161 36.07489470792895 36.668192638710856 37.2395165720564 37.61307452847464 38.03058047976561 38.79967039003846 39.26112433620216 39.722578282365866 40.206006225965936 40.403772202893244 40.86522614905695 41.41457608496612 41.85405603369347 42.18366599523897 42.51327595678447 42.82091192089361 43.590001831166454 43.80974180553012 44.11737776963926 44.4909357260575 45.0842336568394 45.45779161325764 45.985167551730456 46.402673503021425 47.17176341329427 47.72111334920344 48.13861930049441 48.53415125434902 49.01757919794909 49.63285112616737 50.48983702618568 50.92931697491302 51.56656290056766 51.96209485442226 52.37960080571324 52.81908075444058 53.412378685222485 54.55502655191357 54.81871452114997 55.32411646218641 55.983336385277426 56.466764328877495 57.34572422633217 57.63138619300494 58.20271012635048 58.81798205456876 59.2574620032961 59.872733931514375 60.46603186229628 61.16919978026002 61.6526277238601 62.15802966489654 62.75132759567845 63.52041750595129 63.95989745467863 64.94872733931514 65.67386925471524 66.20124519318806 66.68467313678813 67.23402307269731 68.26680095220655 69.07983885735213 69.65116279069767 70.44222669840688 71.25526460355246 71.80461453946164 72.61765244460722 73.25489837026186 73.93609229078925 74.79307819080753 75.43032411646219 75.957700054935 76.7487639626442 77.40798388573522 78.2210217908808 78.8802417139718 79.47353964475371 80.77000549349935 81.03369346273576 82.19831532686322 82.57187328328145 83.01135323200879 83.45083318073613 83.91228712689984 84.57150704999086 85.14283098333638 85.62625892693646 86.35140084233657 86.54916681926387 87.12049075260941 87.64786669108221 88.10932063724593 88.52682658853689 89.18604651162791 89.51565647317341 89.99908441677348 90.28474638344626 90.7242263321736 91.03186229628274 91.29555026551914 91.62516022706464 91.95477018861015 92.24043215528292 92.48214612708296 92.6579381065739 92.87767808093756 93.09741805530123 93.2512360373558 93.383080021974 93.47097601171946 93.49295000915583 93.49295000915583 93.49295000915583 93.49295000915583 93.47097601171946 93.4490020142831 93.27321003479217 92.96557407068303 92.7897820911921 92.50412012451932 92.30635414759202 91.97674418604652 91.69108221937374 91.51529023988282 91.22962827321004 90.90001831166454 90.57040835011902 90.26277238600989 90.04303241164622 89.73539644753708 89.40578648599158 89.22999450650065 88.8564365500824 88.52682658853689 88.21919062442777 87.88958066288225 87.64786669108221 87.27430873466398 86.76890679362754 86.30745284746384 85.9338948910456 85.58231093206373 85.23072697308186 84.83519501922726 84.48361106024538 83.802417139718 83.27504120124519 82.87950924739059 82.44002929866325 82.04449734480863 81.20948544222671 80.57223951657207 80.11078557040835 79.49551364219008 78.79234572422632 78.4187877678081 77.80351583958982 77.36403589086248 76.6828419703351 76.19941402673503 75.8258560703168 75.29848013184399 74.72715619849845 74.11188427028017 73.73832631386193 73.38674235488006 72.8373924189709 72.0243545138253 71.71671854971618 71.167368613807 69.91485075993407 69.34352682658854 68.81615088811573 68.28877494964291 67.67350302142464 66.59677714704267 65.8496612342062 65.34425929316976 64.59714338033328 64.04779344442409 63.190807544405786 62.59750961362388 61.74052371360557 60.92748580845999 60.356161875114445 59.47720197765977 58.62021607764146 58.00494414942318 57.169932246841235 56.57663431605933 55.76359641091375 54.22541659036806 53.720014649331624 53.170664713422454 52.02801684673137 51.28090093389489 50.55575901849478 50.072331074894706 49.43508514924007 48.66599523896723 47.91887932613075 47.259659403039734 46.57846548251236 45.94121955685772 45.52371360556674 45.10620765427578 44.5568577183666 44.073429774766524 43.721845815784654 43.238417872184584 42.733015931148145 42.18366599523897 41.83208203625709 41.43655008240249 40.97509613623878 40.27192821827504 39.920344259293174 39.34902032594763 39.01941036440212 38.53598242080205 38.03058047976561 37.87676249771104 37.2395165720564 36.843984618201794 36.58029664896539 36.20673869254715 35.87712873100165 35.56949276689251 35.08606482329244 34.9102728438015 34.62461087712873 34.27302691814686 33.98736495147409 33.591832997619484 33.306171030946714 32.800769089910276 32.4491851309284 32.20747115912837 31.94378318989196 31.65812122321919 31.41640725141915 31.020875297564547 30.823109320637247 30.559421351400843 30.317707379600805 30.20783739241897 29.9221754257462 29.680461453946165 29.41677348470976 29.19703351034609 28.955319538546053 28.69163156930965 28.362021607764145 28.03241164621864 27.922541659036806 27.856619666727706 27.81267167185497 27.724775682109502 27.702801684673137 27.68082768723677 27.658853689800402 27.636879692364037 27.658853689800402 27.658853689800402 27.636879692364037 27.614905694927668 27.592931697491302 27.614905694927668 27.614905694927668 27.614905694927668 27.592931697491302 27.570957700054933 27.548983702618568 27.548983702618568 27.527009705182202 27.483061710309467 27.461087712873102 27.439113715436733 27.395165720564 27.351217725691264 27.329243728254898 27.263321735945798 27.241347738509432 27.219373741073063 27.197399743636698 27.17542574620033 27.17542574620033 27.17542574620033 27.17542574620033 27.17542574620033 27.153451748763963 27.153451748763963 27.153451748763963 27.153451748763963 27.153451748763963 27.153451748763963 27.153451748763963 27.153451748763963 27.131477751327594 27.153451748763963 27.153451748763963 27.131477751327594 27.131477751327594 27.131477751327594 27.131477751327594 27.131477751327594 27.131477751327594 27.10950375389123 27.10950375389123 27.087529756454863 27.087529756454863 27.087529756454863 27.087529756454863 27.087529756454863 27.087529756454863 27.087529756454863 27.087529756454863 27.087529756454863 27.087529756454863 27.087529756454863 27.087529756454863 27.087529756454863 27.087529756454863 27.087529756454863 27.087529756454863 27.087529756454863 27.087529756454863 27.087529756454863 27.087529756454863 27.065555759018494 27.087529756454863 27.087529756454863 27.087529756454863 27.065555759018494 27.087529756454863 27.065555759018494 27.065555759018494 27.065555759018494 27.065555759018494 27.065555759018494 27.087529756454863 27.065555759018494 27.065555759018494 27.065555759018494 27.065555759018494 27.065555759018494 27.065555759018494 27.065555759018494 27.065555759018494 27.065555759018494 27.065555759018494 27.065555759018494 27.065555759018494 27.065555759018494 27.04358176158213 27.065555759018494 27.04358176158213 27.065555759018494 27.04358176158213 27.04358176158213 27.065555759018494 27.04358176158213 27.065555759018494 27.04358176158213 27.065555759018494 27.04358176158213 27.065555759018494 27.04358176158213 27.04358176158213 27.065555759018494 27.065555759018494 27.04358176158213 27.04358176158213 27.04358176158213 27.065555759018494 27.04358176158213 27.065555759018494 27.04358176158213 27.04358176158213 27.04358176158213 27.04358176158213 27.04358176158213 27.04358176158213 27.04358176158213 27.04358176158213 27.04358176158213 27.065555759018494 27.04358176158213 27.04358176158213 27.04358176158213 27.04358176158213 27.04358176158213 27.04358176158213 27.04358176158213 27.04358176158213 27.04358176158213 27.04358176158213 27.04358176158213 27.04358176158213 27.04358176158213 27.04358176158213 27.04358176158213 27.04358176158213 27.04358176158213 27.04358176158213 27.04358176158213 27.04358176158213 27.04358176158213 27.04358176158213 27.04358176158213 27.04358176158213 27.04358176158213 27.04358176158213 27.04358176158213 27.04358176158213 27.04358176158213 27.04358176158213 27.04358176158213 27.04358176158213 27.04358176158213 27.04358176158213 27.04358176158213 27.04358176158213 27.04358176158213 27.04358176158213 27.04358176158213 27.04358176158213 27.04358176158213 27.04358176158213 27.04358176158213 27.04358176158213 27.02160776414576 27.04358176158213 27.04358176158213 27.04358176158213 27.04358176158213 27.04358176158213 27.04358176158213 27.04358176158213 27.04358176158213 27.04358176158213 27.04358176158213 27.04358176158213 27.04358176158213 27.04358176158213 27.04358176158213 27.02160776414576 27.04358176158213 27.02160776414576 27.04358176158213 27.04358176158213 27.04358176158213 27.04358176158213 27.04358176158213 27.04358176158213 27.04358176158213 27.04358176158213 27.04358176158213 27.04358176158213 27.04358176158213 27.04358176158213 27.04358176158213 27.04358176158213 27.04358176158213 27.04358176158213 27.04358176158213 27.065555759018494 27.065555759018494 27.065555759018494 27.065555759018494 27.065555759018494 27.065555759018494 27.065555759018494 27.087529756454863 27.087529756454863 27.131477751327594 27.153451748763963 27.197399743636698 27.263321735945798 27.351217725691264 27.505035707745833 27.68082768723677 27.90056766160044 28.25215162058231 28.449917597509614 29.021241530855153 29.328877494964292 29.658487456509796 30.29573338216444 30.625343343709943 30.976927302691813 31.68009522065556 32.22944515656473 32.91063907709211 33.218275041201245 33.61380699505585 34.09723493865592 34.29500091558323 34.75645486174693 35.26185680278337 35.56949276689251 36.00897271561985 36.316608679728986 36.80003662332906 37.1735945797473 37.54715253616554 37.92071049258378 38.33821644387475 38.62387841054752 39.239150338765796 39.590734297747666 40.096136238784105 40.62351217725691 41.019044131111514 41.34865409265702 42.1616919978026 42.60117194652994 43.128547885002746 43.54605383629372 44.16132576451199 44.84251968503937 45.54568760300312 45.985167551730456 46.776231459439664 47.36952939022157 47.89690532869437 48.40230726973082 49.69877311847647 50.160227064640175 50.709577000549345 51.23695293902216 51.78630287493133 52.55539278520418 53.390404687786116 54.18146859549533 55.08240249038637 55.76359641091375 56.29097234938656 56.796374290423 57.63138619300494 58.35652810840505 59.16956601355063 59.740889946896175 60.53195385460538 61.36696575718733 61.96026368796924 62.839223585423916 63.498443508514924 64.4433253982787 65.34425929316976 65.9815052188244 66.97033510346091 67.89324299578831 68.94799487273393 69.5632668009522 70.15656473173412 70.99157663431606 71.87053653177074 72.44186046511629 73.54056033693463 74.35359824208021 74.90294817798939 75.43032411646219 75.91375206006227 77.32008789598976 77.86943783189892 78.30891778062626 78.72642373191724 79.09998168833548 79.75920161142648 80.19868156015382 80.59421351400843 81.23145943966307 81.82475737044497 82.28621131660869 82.96740523713606 83.40688518586339 84.24189708844534 84.83519501922726 85.03296099615454 85.69218091924556 86.41732283464567 86.81285478850029 87.38417872184581 87.80168467313679 88.28511261673685 88.83446255264604 88.96630653726424 89.60355246291888 90.06500640908259 90.37264237319172 90.76817432704634 91.03186229628274 91.3834462552646 91.66910822193738 92.02069218091924 92.15253616553744 92.28438015015564 92.37227613990112 92.41622413477386 92.43819813221022 92.43819813221022 92.41622413477386 92.35030214246476 92.15253616553744 91.77897820911922 91.5812122321919 91.2516022706464 91.03186229628274 90.70225233473722 90.328694378319 90.06500640908259 89.66947445522798 89.22999450650065 88.9223585423915 88.48287859366417 88.15326863211865 87.58194469877311 87.12049075260941 86.7908807910639 86.50521882439114 86.04376487822742 85.7361289141183 85.05493499359092 84.48361106024538 84.08807910639078 83.62662516022706 83.16517121406336 82.70371726789965 82.39608130379051 81.31935542940855 81.09961545504487 80.57223951657207 79.93499359091741 79.18787767808094 78.66050173960812 77.91338582677164 77.38600988829884 76.24336202160777 75.54019410364401 74.94689617286213 73.95806628822561 72.85936641640725 72.20014649331624 71.54092657022522 70.88170664713422 69.78300677531587 68.9699688701703 68.39864493682475 67.56363303424281 66.79454312396996 66.15729719831532 65.65189525727888 65.21241530855156 64.20161142647866 63.80607947262406 63.124885552096686 62.75132759567845 62.09210767258744 61.586705731551 60.90551181102362 60.444057864859914 59.652993957150706 58.9937740340597 58.35652810840505 57.58743819813221 56.444790331441126 55.80754440578649 54.95055850576817 54.6648965390954 53.829884636513455 52.44552279802234 52.2038088262223 51.58853689800403 50.643655008240245 49.89653909540377 49.56692913385827 49.06152719282183 48.00677531587621 47.58926936458524 46.973997436366965 46.556491485075995 45.67753158762132 45.28199963376671 44.90844167734847 44.51290972349386 43.96355978758469 43.106573887566384 42.88683391320271 42.18366599523897 41.9639260208753 41.39260208752975 40.73338216443875 40.33785021058414 39.8324482695477 39.21717634132943 38.90954037722029 38.44808643105658 38.11847646951108 37.7009705182201 37.261490569492764 37.063724592565464 36.536348654092656 36.07489470792895 35.76725874381981 35.43764878227431 35.21790880791064 34.9102728438015 34.6465848745651 34.42684490020143 34.11920893609229 33.855520966855885 33.61380699505585 33.196301043764876 32.95458707196484 32.60300311298297 32.33931514374657 32.09760117194653 31.702069218091925 31.174693279619117 30.911005310382713 30.537447353964474 30.317707379600805 30.010071415491666 29.680461453946165 29.526643471891596 29.284929500091557 29.065189525727888 28.933345541109688 28.75755356161875 28.64768357443692 28.38399560520051 28.142281633400476 28.076359641091376 28.010437648782275 27.90056766160044 27.87859366416407 27.834645669291337 27.790697674418606 27.768723676982237 27.768723676982237 27.790697674418606 27.790697674418606 27.768723676982237 27.768723676982237 27.74674967954587 27.74674967954587 27.74674967954587 27.74674967954587 27.724775682109502 27.702801684673137 27.702801684673137 27.68082768723677 27.658853689800402 27.636879692364037 27.614905694927668 27.570957700054933 27.570957700054933 27.527009705182202 27.505035707745833 27.483061710309467 27.461087712873102 27.461087712873102 27.439113715436733 27.439113715436733 27.439113715436733 27.439113715436733 27.439113715436733 27.461087712873102 27.439113715436733 27.439113715436733 27.439113715436733 27.439113715436733 27.439113715436733 27.417139718000367 27.417139718000367 27.417139718000367 27.417139718000367 27.395165720564 27.395165720564 27.395165720564 27.373191723127633 27.351217725691264 27.329243728254898 27.307269730818533 27.263321735945798 27.241347738509432 27.241347738509432 27.197399743636698 27.197399743636698 27.197399743636698 27.197399743636698 27.197399743636698 27.197399743636698 27.197399743636698 27.197399743636698 27.197399743636698 27.197399743636698 27.197399743636698 27.197399743636698 27.197399743636698 27.197399743636698 27.197399743636698 27.197399743636698 27.197399743636698 27.197399743636698 27.197399743636698 27.197399743636698 27.197399743636698 27.197399743636698 27.197399743636698 27.197399743636698 27.197399743636698 27.17542574620033 27.17542574620033 27.17542574620033 27.17542574620033 27.17542574620033 27.17542574620033 27.17542574620033 27.153451748763963 27.153451748763963 27.153451748763963 27.131477751327594 27.131477751327594 27.131477751327594 27.131477751327594 27.10950375389123 27.10950375389123 27.10950375389123 27.087529756454863 27.087529756454863 27.087529756454863 27.065555759018494 27.065555759018494 27.065555759018494 27.065555759018494 27.065555759018494 27.065555759018494 27.04358176158213 27.04358176158213 27.04358176158213 27.04358176158213 27.04358176158213 27.02160776414576 27.02160776414576 27.02160776414576 27.02160776414576 26.999633766709394 26.999633766709394 26.999633766709394 26.999633766709394 26.999633766709394 26.999633766709394 26.999633766709394 26.999633766709394 26.999633766709394 26.999633766709394 26.999633766709394 26.97765976927303 26.97765976927303 26.97765976927303 26.999633766709394 26.999633766709394 26.97765976927303 26.97765976927303 26.97765976927303 26.97765976927303 26.97765976927303 26.97765976927303 26.97765976927303 26.97765976927303 26.97765976927303 26.97765976927303 26.97765976927303 26.97765976927303 26.97765976927303 26.97765976927303 26.97765976927303 26.97765976927303 26.97765976927303 26.97765976927303 26.97765976927303 26.97765976927303 26.97765976927303 26.97765976927303 26.95568577183666 26.95568577183666 26.95568577183666 26.95568577183666 26.933711774400294 26.933711774400294 26.911737776963925 26.88976377952756 26.88976377952756 26.867789782091194 26.867789782091194 26.845815784654825 26.845815784654825 26.845815784654825 26.845815784654825 26.82384178721846 26.845815784654825 26.82384178721846 26.845815784654825 26.845815784654825 26.82384178721846 26.845815784654825 26.82384178721846 26.845815784654825 26.82384178721846 26.845815784654825 26.845815784654825 26.845815784654825 26.845815784654825 26.845815784654825 26.82384178721846 26.845815784654825 26.82384178721846 26.82384178721846 26.82384178721846 26.82384178721846 26.82384178721846 26.82384178721846 26.82384178721846 26.82384178721846 26.82384178721846 26.82384178721846 26.82384178721846 26.82384178721846 26.82384178721846 26.82384178721846 26.82384178721846 26.82384178721846 26.82384178721846 26.82384178721846 26.82384178721846 26.82384178721846 26.82384178721846 26.82384178721846 26.82384178721846 26.82384178721846 26.82384178721846 26.82384178721846 26.82384178721846 26.82384178721846 26.82384178721846 26.82384178721846 26.845815784654825 26.845815784654825 26.845815784654825 26.845815784654825 26.845815784654825 26.845815784654825 26.845815784654825 26.845815784654825 26.867789782091194 26.867789782091194 26.867789782091194 26.867789782091194 26.867789782091194 26.88976377952756 26.88976377952756 26.88976377952756 26.911737776963925 26.933711774400294 26.95568577183666 27.04358176158213 27.10950375389123 27.153451748763963 27.307269730818533 27.483061710309467 27.592931697491302 27.790697674418606 27.988463651345906 28.16425563083684 28.38399560520051 28.581761582127815 28.84544955136422 29.131111518036988 29.350851492400658 29.680461453946165 29.900201428309835 30.29573338216444 30.889031312946347 31.15271928218275 31.482329243728255 31.855887200146494 32.185497161692 32.84471708478301 33.218275041201245 33.591832997619484 34.27302691814686 34.66855887200147 35.0421168284197 35.45962277971068 36.294634682292624 36.887932613074526 37.4372825489837 38.00860648232924 38.66782640542025 39.173228346456696 40.096136238784105 40.33785021058414 40.97509613623878 41.70023805163889 42.13971800036623 43.260391869620946 43.765793810657385 44.16132576451199 44.79857169016664 45.26002563633034 45.69950558505768 46.468595495330526 47.10584142098517 47.83098333638527 48.64402124153085 49.19337117744003 49.69877311847647 50.160227064640175 50.88536898004028 51.45669291338582 51.89617286211316 52.70921076725874 53.170664713422454 54.00567661600439 54.5330525544772 55.06042849295001 55.76359641091375 56.51071232375023 57.08203625709577 58.77403405969603 59.10364402124153 59.718915949459806 60.290239882805345 60.90551181102362 61.69657571873283 62.86119758286028 63.476469511078555 64.35542940853324 65.23438930598792 66.00347921626076 66.61875114447903 67.36586705731551 68.35469694195203 69.2336568394067 70.02472074711591 70.79381065738875 71.73869254715254 72.37593847280718 73.32082036257097 73.8921442959165 74.77110419337117 75.62809009338949 76.26533601904413 77.0783739241897 77.69364585240798 78.70444973448086 79.31972166269914 79.82512360373559 80.44039553195387 81.16553744735396 81.58304339864495 82.44002929866325 82.85753524995422 83.45083318073613 83.97820911920894 84.28584508331807 84.83519501922726 85.29664896539094 85.6702069218092 86.06573887566381 86.43929683208204 86.68101080388207 87.01062076542757 87.23036073979125 87.58194469877311 87.82365867057317 87.93352865775499 88.13129463468229 88.28511261673685 88.592748580846 88.83446255264604 88.90038454495513 89.07617652444607 89.33986449368247 89.47170847830067 89.62552646035525 89.82329243728255 89.97711041933712 90.10895440395532 90.17487639626442 90.30672038088262 90.37264237319172 90.39461637062809 90.37264237319172 90.37264237319172 90.21882439113715 89.99908441677348 89.84526643471892 89.60355246291888 89.33986449368247 89.01025453213697 88.32906061160959 88.19721662699139 87.93352865775499 87.42812671671855 87.23036073979125 86.7908807910639 86.08771287310017 85.71415491668193 85.2087529756455 84.85716901666362 84.35176707562718 83.78044314228164 83.40688518586339 82.76963926020875 82.28621131660869 81.45119941402675 81.05566746017213 80.57223951657207 79.58340963193555 78.8802417139718 78.59457974729904 77.89141182933528 77.34206189342612 76.63889397546237 75.34242812671673 74.83702618568029 73.73832631386193 73.03515839589818 72.48580845998902 71.84856253433438 71.1014466214979 70.61801867789782 69.78300677531587 69.21168284197034 68.06903497527925 67.51968503937007 66.55282915216993 65.8496612342062 65.0366233290606 64.42135140084233 63.52041750595129 63.01501556491485 61.9163156930965 61.12525178538729 60.575901849478115 60.04852591100531 59.4552279802234 58.59824208020509 57.78520417505951 56.884270280168465 56.115180369895626 55.21424647500458 54.6648965390954 54.11554660318623 53.324482695477016 52.81908075444058 51.85222486724043 51.34682292620399 50.665629005676614 50.006409082585606 49.2812671671855 48.53415125434902 48.16059329793078 47.083867423548796 46.600439479948726 46.07306354147592 45.61160959531222 45.06225965940304 44.46896172862113 43.98553378502106 43.590001831166454 42.996703900384546 42.31550997985717 42.13971800036623 41.43655008240249 40.513642190075075 40.29390221571141 39.920344259293174 39.5028383080022 39.04138436183849 38.33821644387475 38.00860648232924 37.7009705182201 37.4372825489837 37.08569859000183 36.690166636147225 36.07489470792895 35.94305072331075 35.74528474638345 35.52554477201978 35.23988280534701 35.02014283098333 34.75645486174693 34.27302691814686 33.98736495147409 33.723676982237684 33.284197033510345 32.95458707196484 32.75682109503754 32.53708112067387 32.185497161692 31.87786119758286 31.59219923091009 31.30653726423732 30.998901300128182 30.757187328328143 30.405603369346274 30.14191540010987 29.812305438564366 29.48269547701886 29.240981505218826 28.889397546236953 28.581761582127815 28.38399560520051 28.12030763596411 28.010437648782275 27.90056766160044 27.856619666727706 27.856619666727706 27.834645669291337 27.790697674418606 27.768723676982237 27.74674967954587 27.702801684673137 27.68082768723677 27.636879692364037 27.592931697491302 27.570957700054933 27.527009705182202 27.483061710309467 27.439113715436733 27.417139718000367 27.373191723127633 27.351217725691264 27.329243728254898 27.307269730818533 27.307269730818533 27.285295733382164 27.263321735945798 27.263321735945798 27.241347738509432 27.241347738509432 27.219373741073063 27.219373741073063 27.219373741073063 27.219373741073063 27.219373741073063 27.197399743636698 27.197399743636698 27.17542574620033 27.153451748763963 27.131477751327594 27.10950375389123 27.087529756454863 27.065555759018494 27.04358176158213 27.04358176158213 27.065555759018494 27.04358176158213 27.065555759018494 27.065555759018494 27.04358176158213 27.04358176158213 27.04358176158213 27.04358176158213 27.04358176158213 27.04358176158213 27.04358176158213 27.04358176158213 27.02160776414576 27.04358176158213 27.04358176158213 27.02160776414576 27.02160776414576 27.02160776414576 27.02160776414576 27.02160776414576 27.02160776414576 27.02160776414576 27.02160776414576 27.02160776414576 27.02160776414576 27.02160776414576 27.02160776414576 27.02160776414576 27.02160776414576 27.02160776414576 27.02160776414576 27.02160776414576 27.02160776414576 27.02160776414576 27.02160776414576 27.02160776414576 26.999633766709394 27.02160776414576 26.999633766709394 26.999633766709394 26.999633766709394 26.999633766709394 26.999633766709394 26.999633766709394 26.999633766709394 26.999633766709394 26.999633766709394 26.999633766709394 26.999633766709394 26.999633766709394 26.999633766709394 26.999633766709394 26.999633766709394 26.999633766709394 26.999633766709394 26.999633766709394 26.999633766709394 26.999633766709394 26.999633766709394 26.999633766709394 26.999633766709394 26.999633766709394 26.999633766709394 26.999633766709394 26.999633766709394 26.999633766709394 26.999633766709394 26.999633766709394 26.999633766709394 26.999633766709394 26.999633766709394 26.999633766709394 26.999633766709394 26.999633766709394 26.999633766709394 26.999633766709394 26.999633766709394 26.97765976927303 26.999633766709394 26.999633766709394 26.999633766709394 26.97765976927303 26.97765976927303 26.97765976927303 26.97765976927303 26.97765976927303 26.97765976927303 26.97765976927303 26.97765976927303 26.97765976927303 26.97765976927303 26.97765976927303 26.97765976927303 26.97765976927303 26.97765976927303 26.97765976927303 26.95568577183666 26.97765976927303 26.95568577183666 26.97765976927303 26.95568577183666 26.95568577183666 26.95568577183666 26.95568577183666 26.933711774400294 26.95568577183666 26.933711774400294 26.933711774400294 26.933711774400294 26.933711774400294 26.911737776963925 26.911737776963925 26.911737776963925 26.88976377952756 26.88976377952756 26.88976377952756 26.88976377952756 26.867789782091194 26.867789782091194 26.867789782091194 26.867789782091194 26.867789782091194 26.867789782091194 26.867789782091194 26.867789782091194 26.867789782091194 26.867789782091194 26.867789782091194 26.867789782091194 26.867789782091194 26.867789782091194 26.845815784654825 26.845815784654825 26.867789782091194 26.845815784654825 26.845815784654825 26.845815784654825 26.845815784654825 26.867789782091194 26.867789782091194 26.845815784654825 26.845815784654825 26.867789782091194 26.867789782091194 26.867789782091194 26.867789782091194 26.867789782091194 26.867789782091194 26.867789782091194 26.867789782091194 26.867789782091194 26.867789782091194 26.867789782091194 26.867789782091194 26.867789782091194 26.867789782091194 26.867789782091194 26.867789782091194 26.867789782091194 26.867789782091194 26.867789782091194 26.867789782091194 26.867789782091194 26.867789782091194 26.867789782091194 26.867789782091194 26.867789782091194 26.867789782091194 26.867789782091194 26.867789782091194 26.867789782091194 26.867789782091194 26.867789782091194 26.867789782091194 26.867789782091194 26.845815784654825 26.867789782091194 26.867789782091194 26.867789782091194 26.867789782091194 26.867789782091194 26.867789782091194 26.867789782091194 26.867789782091194 26.867789782091194 26.867789782091194 26.867789782091194 26.867789782091194 