25.0 25.0 24.978026002563634 24.978026002563634 24.978026002563634 24.978026002563634 25.0 25.0 24.978026002563634 25.0 24.978026002563634 25.0 25.0 25.0 25.0 25.0 25.0 25.0 25.0 25.0 24.978026002563634 25.0 25.0 25.0 25.0 25.0 25.0 25.0 25.0 25.0 25.0 25.0 24.978026002563634 25.0 25.0 25.0 25.0 25.0 24.978026002563634 25.0 24.978026002563634 25.0 25.0 25.0 24.978026002563634 24.978026002563634 25.0 25.0 25.0 24.978026002563634 25.0 24.978026002563634 24.978026002563634 25.0 25.0 24.978026002563634 25.0 24.978026002563634 25.0 25.0 25.0 25.0 25.0 25.0 25.0 25.0 25.0 24.978026002563634 24.978026002563634 25.0 25.0 24.978026002563634 24.978026002563634 24.978026002563634 24.978026002563634 24.978026002563634 24.978026002563634 24.978026002563634 24.978026002563634 24.978026002563634 24.978026002563634 24.978026002563634 24.978026002563634 24.978026002563634 24.978026002563634 25.0 24.978026002563634 24.978026002563634 24.978026002563634 24.978026002563634 25.0 24.978026002563634 24.978026002563634 24.978026002563634 24.978026002563634 24.978026002563634 24.978026002563634 24.978026002563634 24.978026002563634 24.978026002563634 24.978026002563634 25.0 24.978026002563634 24.978026002563634 24.978026002563634 24.978026002563634 24.978026002563634 24.978026002563634 24.978026002563634 24.978026002563634 24.978026002563634 25.0 25.0 25.0 25.0 25.0 24.978026002563634 25.0 24.978026002563634 24.978026002563634 24.978026002563634 24.978026002563634 24.978026002563634 24.978026002563634 24.978026002563634 24.978026002563634 24.978026002563634 24.978026002563634 24.978026002563634 24.978026002563634 24.978026002563634 24.978026002563634 24.978026002563634 24.978026002563634 24.978026002563634 25.0 24.978026002563634 24.978026002563634 24.978026002563634 24.978026002563634 24.978026002563634 24.978026002563634 24.978026002563634 24.978026002563634 24.978026002563634 24.978026002563634 24.978026002563634 24.978026002563634 24.978026002563634 24.978026002563634 24.978026002563634 24.978026002563634 24.978026002563634 24.978026002563634 24.978026002563634 24.978026002563634 24.978026002563634 24.978026002563634 24.978026002563634 24.978026002563634 24.978026002563634 24.978026002563634 24.978026002563634 24.978026002563634 24.978026002563634 24.978026002563634 24.978026002563634 24.978026002563634 24.978026002563634 24.978026002563634 24.978026002563634 24.978026002563634 24.978026002563634 24.978026002563634 24.978026002563634 24.978026002563634 24.978026002563634 24.978026002563634 24.978026002563634 25.0 25.0 24.978026002563634 24.978026002563634 24.978026002563634 24.978026002563634 24.978026002563634 24.978026002563634 24.978026002563634 24.978026002563634 24.978026002563634 24.978026002563634 24.978026002563634 24.978026002563634 24.978026002563634 24.978026002563634 24.978026002563634 24.978026002563634 24.978026002563634 24.978026002563634 24.978026002563634 24.978026002563634 24.978026002563634 24.978026002563634 24.978026002563634 24.978026002563634 24.978026002563634 24.978026002563634 24.978026002563634 24.978026002563634 24.978026002563634 24.978026002563634 24.978026002563634 24.978026002563634 24.978026002563634 24.978026002563634 24.978026002563634 24.978026002563634 24.978026002563634 24.978026002563634 25.0 24.978026002563634 25.0 25.0 25.0 24.978026002563634 24.978026002563634 24.978026002563634 24.978026002563634 24.978026002563634 24.978026002563634 24.978026002563634 24.978026002563634 24.978026002563634 24.978026002563634 24.978026002563634 24.978026002563634 24.978026002563634 24.978026002563634 24.978026002563634 24.978026002563634 24.978026002563634 24.978026002563634 24.978026002563634 24.978026002563634 25.0 24.978026002563634 24.978026002563634 24.978026002563634 24.978026002563634 25.0 24.978026002563634 24.978026002563634 24.978026002563634 24.978026002563634 24.978026002563634 24.978026002563634 24.978026002563634 24.978026002563634 24.978026002563634 24.978026002563634 24.978026002563634 24.978026002563634 24.978026002563634 24.978026002563634 24.978026002563634 24.978026002563634 24.978026002563634 24.978026002563634 24.978026002563634 24.978026002563634 24.978026002563634 24.978026002563634 24.978026002563634 24.978026002563634 24.978026002563634 24.978026002563634 24.978026002563634 24.978026002563634 24.978026002563634 24.978026002563634 24.978026002563634 24.978026002563634 24.978026002563634 24.978026002563634 24.978026002563634 24.978026002563634 25.0 24.978026002563634 24.978026002563634 24.978026002563634 24.978026002563634 24.978026002563634 24.978026002563634 24.978026002563634 24.978026002563634 24.978026002563634 24.978026002563634 24.978026002563634 24.978026002563634 24.978026002563634 24.978026002563634 24.978026002563634 24.978026002563634 24.978026002563634 24.978026002563634 24.978026002563634 24.978026002563634 24.978026002563634 24.978026002563634 24.978026002563634 24.978026002563634 24.978026002563634 24.978026002563634 24.978026002563634 24.978026002563634 24.978026002563634 24.978026002563634 24.978026002563634 24.978026002563634 24.978026002563634 24.978026002563634 24.978026002563634 24.978026002563634 24.978026002563634 24.978026002563634 24.978026002563634 24.978026002563634 24.978026002563634 24.978026002563634 24.978026002563634 24.978026002563634 24.978026002563634 24.978026002563634 24.978026002563634 24.978026002563634 24.978026002563634 24.978026002563634 24.956052005127265 24.978026002563634 24.978026002563634 24.978026002563634 24.978026002563634 24.978026002563634 24.978026002563634 24.956052005127265 24.978026002563634 24.978026002563634 24.978026002563634 24.978026002563634 24.978026002563634 24.978026002563634 24.978026002563634 24.978026002563634 24.978026002563634 24.978026002563634 24.978026002563634 24.978026002563634 24.978026002563634 24.978026002563634 24.978026002563634 24.978026002563634 24.978026002563634 24.978026002563634 24.978026002563634 24.978026002563634 24.978026002563634 24.978026002563634 24.978026002563634 24.978026002563634 24.978026002563634 24.978026002563634 24.978026002563634 24.956052005127265 24.978026002563634 24.978026002563634 24.978026002563634 24.956052005127265 24.978026002563634 24.956052005127265 24.978026002563634 24.956052005127265 24.956052005127265 24.978026002563634 24.978026002563634 24.956052005127265 24.978026002563634 24.978026002563634 24.978026002563634 24.978026002563634 24.978026002563634 24.978026002563634 24.978026002563634 24.978026002563634 24.978026002563634 24.978026002563634 24.978026002563634 24.978026002563634 24.978026002563634 24.978026002563634 24.978026002563634 24.978026002563634 24.978026002563634 24.978026002563634 24.978026002563634 24.978026002563634 24.978026002563634 24.978026002563634 24.978026002563634 24.978026002563634 24.978026002563634 24.978026002563634 24.978026002563634 24.978026002563634 24.978026002563634 24.978026002563634 24.978026002563634 24.978026002563634 24.978026002563634 24.978026002563634 24.978026002563634 24.978026002563634 24.978026002563634 24.956052005127265 24.956052005127265 24.978026002563634 24.978026002563634 24.956052005127265 24.978026002563634 24.978026002563634 24.978026002563634 24.978026002563634 24.956052005127265 24.956052005127265 24.978026002563634 24.978026002563634 24.978026002563634 24.978026002563634 24.978026002563634 24.978026002563634 24.956052005127265 24.978026002563634 24.978026002563634 24.978026002563634 24.978026002563634 24.978026002563634 24.978026002563634 24.978026002563634 24.978026002563634 24.978026002563634 24.978026002563634 24.978026002563634 24.978026002563634 24.978026002563634 24.978026002563634 24.978026002563634 24.978026002563634 24.978026002563634 24.956052005127265 24.978026002563634 24.978026002563634 24.956052005127265 24.978026002563634 24.978026002563634 24.956052005127265 24.956052005127265 24.978026002563634 24.978026002563634 24.978026002563634 24.978026002563634 24.978026002563634 24.978026002563634 24.978026002563634 24.956052005127265 24.978026002563634 24.956052005127265 24.978026002563634 24.978026002563634 24.978026002563634 24.978026002563634 24.978026002563634 24.956052005127265 24.956052005127265 24.978026002563634 24.978026002563634 24.978026002563634 24.978026002563634 24.978026002563634 24.978026002563634 24.978026002563634 24.978026002563634 24.978026002563634 24.978026002563634 24.978026002563634 24.978026002563634 24.978026002563634 24.978026002563634 24.978026002563634 24.978026002563634 24.978026002563634 24.978026002563634 24.978026002563634 24.978026002563634 24.978026002563634 24.978026002563634 24.978026002563634 24.978026002563634 24.978026002563634 24.978026002563634 24.978026002563634 24.978026002563634 24.978026002563634 24.978026002563634 24.978026002563634 24.978026002563634 24.978026002563634 24.956052005127265 24.978026002563634 24.978026002563634 24.956052005127265 24.956052005127265 24.956052005127265 24.956052005127265 24.956052005127265 24.956052005127265 24.978026002563634 24.956052005127265 24.956052005127265 24.956052005127265 24.956052005127265 24.956052005127265 24.956052005127265 24.956052005127265 24.956052005127265 24.956052005127265 24.956052005127265 24.956052005127265 24.956052005127265 24.956052005127265 24.978026002563634 24.978026002563634 24.978026002563634 24.978026002563634 24.956052005127265 24.956052005127265 24.956052005127265 24.956052005127265 24.956052005127265 24.978026002563634 24.978026002563634 24.978026002563634 24.978026002563634 24.978026002563634 25.0 25.021973997436366 25.043947994872735 25.109869987181835 25.197765976927304 25.30763596410914 25.461453946163708 25.65921992309101 25.856985900018312 26.07672587438198 26.340413843618386 26.60410181285479 26.88976377952756 27.153451748763963 27.417139718000367 27.636879692364037 27.768723676982237 27.87859366416407 28.010437648782275 28.142281633400476 28.34004761032778 28.581761582127815 28.823475553927853 29.065189525727888 29.262955502655192 29.48269547701886 29.680461453946165 29.944149423182566 30.22981138985534 30.493499359091743 30.779161325764512 31.042849295000916 31.28456326680095 31.52627723860099 31.767991210401025 32.00970518220106 32.2514191540011 32.49313312580114 32.734847097601175 32.95458707196484 33.174327046328514 33.39406702069218 33.635780992492215 33.89946896172862 34.11920893609229 34.38289690532869 34.60263687969236 34.86632484892877 35.15198681560154 35.45962277971068 35.78923274125618 36.07489470792895 36.38253067203809 36.668192638710856 36.975828602819995 37.28346456692913 37.59110053103827 37.89873649514741 38.22834645669291 38.53598242080205 38.86559238234756 39.15125434902033 39.5028383080022 39.876396264420436 40.249954220838674 40.62351217725691 41.019044131111514 41.43655008240249 41.87603003112983 42.27156198498443 42.798937923457245 43.238417872184584 43.655923823475554 44.16132576451199 44.57883171580296 44.99633766709394 45.45779161325764 45.853323567112255 46.292803515839594 46.688335469694195 47.127815418421534 47.56729536714887 48.00677531587621 48.42428126716719 48.86376121589453 49.303241164621866 49.742721113349205 50.204175059512906 50.665629005676614 51.12708295184032 51.58853689800403 52.09393883904047 52.57736678264054 53.03882072880425 53.500274674967955 53.91778062625893 54.35726057498627 54.77476652627723 55.17029848013185 55.54385643655009 55.983336385277426 56.488738326313864 56.840322285295734 57.27980223402307 57.74125618018678 58.18073612891412 58.66416407251419 59.16956601355063 59.69694195202344 60.246291887932614 60.81761582127815 61.38893975462369 61.96026368796924 62.55356161875115 63.124885552096686 63.696209485442225 64.28950741622413 64.88280534700604 65.47610327778796 66.06940120856986 66.72862113166087 67.36586705731551 68.04706097784288 68.68430690349753 69.21168284197034 69.84892876762498 70.53012268815235 71.167368613807 71.82658853689802 72.44186046511629 73.07910639077092 73.71635231642557 74.24372825489837 74.81505218824393 75.36440212415309 75.91375206006227 76.46310199597144 76.99047793444424 77.51785387291704 78.02325581395348 78.50668375755356 79.01208569859 79.49551364219008 79.97894158579015 80.44039553195387 80.90184947811755 81.38527742171763 81.93462735762681 82.63779527559055 83.0772752243179 83.56070316791798 84.48361106024538 84.94506500640908 85.42849295000916 86.28547885002747 86.90075077824574 87.34023072697309 87.95550265519137 88.35103460904597 89.01025453213697 89.31789049624611 89.64750045779161 90.06500640908259 90.39461637062809 90.61435634499176 90.87804431422816 91.1197582860282 91.27357626808276 91.42739425013734 91.49331624244644 91.60318622962828 91.66910822193738 91.69108221937374 91.7130562168101 91.69108221937374 91.69108221937374 91.69108221937374 91.69108221937374 91.60318622962828 91.49331624244644 91.27357626808276 90.98791430141 90.7242263321736 90.39461637062809 90.10895440395532 89.77934444240981 89.38381248855521 89.16407251419155 88.81248855520967 88.43893059879144 87.99945065006409 87.58194469877311 87.27430873466398 86.94469877311849 86.43929683208204 86.02179088079106 85.3405969602637 84.76927302691814 84.35176707562718 83.69254715253618 83.16517121406336 82.72569126533602 81.89067936275407 81.45119941402675 80.44039553195387 79.71525361655375 79.18787767808094 78.63852774217176 78.04522981138985 77.64969785753524 77.10034792162608 76.77073796008057 76.26533601904413 75.75993407800769 75.43032411646219 74.92492217542575 74.41952023438931 74.13385826771653 73.6284563266801 73.2329243728255 72.70554843435269 72.09027650613442 71.45303058047976 70.8377586522615 70.20051272660686 69.95879875480682 68.8381248855521 68.59641091375207 67.65152902398827 67.1681010803882 66.70664713422451 66.02545321369712 65.43215528291522 65.01464933162424 64.42135140084233 64.00384544955136 63.388573521333086 62.79527559055118 62.35579564182384 61.67460172129647 61.21314777513276 60.53195385460538 59.652993957150706 59.3893059879143 58.59824208020509 58.00494414942318 57.67533418787768 56.906244277604834 56.532686321186596 56.20307635964109 55.76359641091375 55.41201245193188 55.01648049807727 54.57700054934993 54.269364585240794 53.829884636513455 53.54422266984069 53.08276872367698 52.62131477751328 52.15986083134957 51.85222486724043 51.41274491851309 50.86339498260392 50.62168101080388 50.445889031312944 50.072331074894706 49.676799121040105 49.369163156930966 48.84178721845816 48.40230726973082 48.09467130562168 47.63321735945797 47.30360739791247 46.842153451748764 46.358725508148694 46.07306354147592 45.65555759018495 45.28199963376671 45.0183116645303 44.64475370811206 44.271195751693824 43.897637795275585 43.655923823475554 43.414209851675515 43.01867789782091 42.64511994140267 42.13971800036623 41.91997802600257 41.65629005676616 41.32668009522065 41.10694012085699 40.86522614905695 40.403772202893244 40.052188243911374 39.788500274674966 39.32704632851126 39.06335835927486 38.84361838491119 38.38216443874748 38.27229445156565 37.94268449002014 37.72294451565647 37.45925654642007 37.129646584874564 36.953854605383626 36.756088628456325 36.602270646401756 36.470426661783556 36.250686687419886 36.09686870536532 35.87712873100165 35.56949276689251 35.41567478483794 35.19593481047427 35.06409082585607 34.93224684123787 34.66855887200147 34.53671488738326 34.31697491301959 34.075260941219554 33.89946896172862 33.61380699505585 33.32814502838308 33.152353048892145 32.88866507965574 32.712873100164806 32.42721113349204 32.185497161692 32.00970518220106 31.767991210401025 31.548251236037355 31.41640725141915 31.21864127449185 31.08679728987365 30.823109320637247 30.713239333455412 30.559421351400843 30.29573338216444 30.07599340780077 30.010071415491666 29.70243545138253 29.54861746932796 29.350851492400658 29.131111518036988 28.955319538546053 28.669657571873284 28.40596960263688 28.25215162058231 28.010437648782275 27.856619666727706 27.592931697491302 27.395165720564 27.219373741073063 27.10950375389123 26.97765976927303 26.867789782091194 26.713971800036624 26.626075810291155 26.538179820545686 26.42830983336385 26.36238784105475 26.318439846182017 26.29646584874565 26.274491851309286 26.29646584874565 26.29646584874565 26.29646584874565 26.274491851309286 26.29646584874565 26.274491851309286 26.252517853872916 26.252517853872916 26.208569859000182 26.186595861563816 26.14264786669108 26.14264786669108 26.098699871818347 26.07672587438198 26.07672587438198 26.054751876945616 26.054751876945616 26.054751876945616 26.032777879509247 26.032777879509247 26.032777879509247 26.032777879509247 26.032777879509247 26.032777879509247 26.032777879509247 26.01080388207288 26.01080388207288 26.01080388207288 26.01080388207288 26.01080388207288 26.01080388207288 26.01080388207288 25.988829884636512 25.988829884636512 25.988829884636512 25.988829884636512 25.966855887200147 25.966855887200147 25.988829884636512 25.966855887200147 25.988829884636512 25.988829884636512 25.988829884636512 25.988829884636512 25.966855887200147 25.988829884636512 25.988829884636512 25.988829884636512 25.966855887200147 25.966855887200147 25.966855887200147 25.988829884636512 25.966855887200147 25.988829884636512 25.966855887200147 25.966855887200147 25.966855887200147 25.966855887200147 25.966855887200147 25.988829884636512 25.966855887200147 25.966855887200147 25.966855887200147 25.966855887200147 25.966855887200147 25.966855887200147 25.966855887200147 25.966855887200147 25.966855887200147 25.966855887200147 25.966855887200147 25.966855887200147 25.966855887200147 25.966855887200147 25.966855887200147 25.966855887200147 25.966855887200147 25.966855887200147 25.966855887200147 25.966855887200147 25.966855887200147 25.966855887200147 25.966855887200147 25.966855887200147 25.966855887200147 25.966855887200147 25.966855887200147 25.966855887200147 25.944881889763778 25.944881889763778 25.944881889763778 25.966855887200147 25.966855887200147 25.944881889763778 25.944881889763778 25.966855887200147 25.944881889763778 25.966855887200147 25.966855887200147 25.966855887200147 25.966855887200147 25.966855887200147 25.944881889763778 25.944881889763778 25.944881889763778 25.944881889763778 25.944881889763778 25.966855887200147 25.966855887200147 25.966855887200147 25.944881889763778 25.966855887200147 25.944881889763778 25.944881889763778 25.944881889763778 25.966855887200147 25.944881889763778 25.944881889763778 25.944881889763778 25.944881889763778 25.966855887200147 25.944881889763778 25.944881889763778 25.944881889763778 25.944881889763778 25.944881889763778 25.944881889763778 25.944881889763778 25.966855887200147 25.966855887200147 25.966855887200147 25.944881889763778 25.966855887200147 25.944881889763778 25.944881889763778 25.944881889763778 25.944881889763778 25.944881889763778 25.944881889763778 25.922907892327412 25.944881889763778 25.944881889763778 25.944881889763778 25.944881889763778 25.944881889763778 25.944881889763778 25.944881889763778 25.944881889763778 25.944881889763778 25.944881889763778 25.944881889763778 25.944881889763778 25.944881889763778 25.944881889763778 25.944881889763778 25.944881889763778 25.966855887200147 25.966855887200147 25.988829884636512 26.032777879509247 26.032777879509247 26.098699871818347 26.208569859000182 26.318439846182017 26.51620582310932 26.779893792345725 26.999633766709394 27.329243728254898 27.592931697491302 27.96648965390954 28.362021607764145 28.64768357443692 29.087163523164257 29.54861746932796 29.8562534334371 30.317707379600805 30.954953305255447 31.46035524629189 31.81193920527376 32.16352316425563 32.581029115546606 32.91063907709211 33.438015015564915 33.96539095403772 34.38289690532869 34.9761948361106 35.61344076176525 36.03094671305622 36.712140633583594 37.21754257462003 37.85478850027467 38.53598242080205 38.88756637978392 39.458890313129466 40.008240249038636 40.403772202893244 41.019044131111514 41.43655008240249 42.293535982420806 43.08459989013001 43.282365867057315 43.87566379783922 44.2931697491302 44.64475370811206 45.39186962094854 45.74345357993042 46.27082951840322 46.79820545687603 47.215711408167 47.67716535433071 48.20454129280351 48.57809924922175 49.14942318256729 49.63285112616737 50.116279069767444 50.68760300311298 51.5445889031313 51.96209485442226 52.423548800585976 52.81908075444058 53.456326680095216 53.895806628822555 54.81871452114997 55.54385643655009 56.07123237502289 56.840322285295734 57.58743819813221 57.87310016480498 58.9278520417506 59.4552279802234 60.26826588536898 61.08130379051456 61.74052371360557 62.39974363669658 63.454495513642186 63.93792345724226 64.53122138802416 65.05859732649698 65.87163523164256 66.68467313678813 67.25599707013367 68.33272294451567 68.88207288042483 69.40944881889763 70.20051272660686 70.79381065738875 71.4969785753525 72.50778245742538 73.03515839589818 73.7603003112983 74.24372825489837 74.74913019593481 75.62809009338949 76.13349203442593 76.8146859549533 77.49587987548068 77.97930781908076 78.81431972166271 79.05603369346274 79.69327961911739 80.33052554477202 80.74803149606299 81.36330342428127 81.89067936275407 82.13239333455411 82.74766526277239 83.42885918329976 84.24189708844534 84.76927302691814 85.31862296282733 86.32942684490021 86.7908807910639 87.47207471159129 88.08734663980957 88.48287859366417 89.0542025270097 89.64750045779161 90.21882439113715 90.52646035524629 90.94396630653726 91.22962827321004 91.49331624244644 91.62516022706464 91.75700421168284 91.75700421168284 91.75700421168284 91.73503021424648 91.5812122321919 91.29555026551914 91.20765427577368 90.94396630653726 90.26277238600989 89.51565647317341 88.9882805347006 88.17524262955503 87.47207471159129 86.96667277055485 86.37337483977294 85.97784288591834 85.3405969602637 84.68137703717268 84.17597509613624 83.45083318073613 82.90148324482695 81.86870536531771 81.38527742171763 80.66013550631753 80.19868156015382 79.49551364219008 78.99011170115364 78.24299578831716 77.75956784471708 76.79271195751694 76.00164804980773 75.54019410364401 74.99084416773485 74.24372825489837 73.67240432155283 72.4198864676799 71.80461453946164 71.07947262406154 70.33235671122506 69.80498077275224 68.99194286760667 68.13495696758835 67.62955502655191 66.86046511627907 66.35506317524263 65.5859732649698 64.79490935726056 63.981871452114994 63.23475553927852 62.68540560336935 62.22395165720564 61.43288774949643 60.94945980589635 59.894707928950744 59.14759201611427 58.59824208020509 57.56546420069584 57.30177623145944 56.8622962827321 55.983336385277426 55.52188243911371 54.81871452114997 54.11554660318623 53.654092657022524 52.97289873649515 52.0719648416041 51.83025086980406 51.12708295184032 50.643655008240245 49.91851309284014 49.25929316974913 48.79783922358543 48.05072331074895 47.523347372276135 47.3475553927852 46.886101446621495 46.600439479948726 46.182933528657756 45.61160959531222 45.28199963376671 44.86449368247574 44.44698773118476 44.31514374656656 43.831715802966485 43.61197582860282 43.282365867057315 42.95275590551181 42.75498992858451 42.44735396447537 42.1616919978026 41.9639260208753 41.67826405420253 41.37062809009339 41.19483611060245 40.90917414392968 40.71140816700238 40.403772202893244 40.052188243911374 39.788500274674966 39.4369163156931 39.173228346456696 38.66782640542025 38.27229445156565 38.03058047976561 37.635048525911 37.3713605566746 37.08569859000183 36.624244643838125 36.38253067203809 36.00897271561985 35.63541475920161 35.39370078740157 35.02014283098333 34.80040285661967 34.51474088994689 34.25105292071049 34.03131294634682 33.591832997619484 33.39406702069218 33.152353048892145 32.91063907709211 32.778795092473906 32.49313312580114 32.36128914118294 32.20747115912837 31.87786119758286 31.636147225782825 31.46035524629189 31.174693279619117 30.998901300128182 30.735213330891778 30.405603369346274 30.163889397546235 29.878227430873466 29.526643471891596 29.328877494964292 29.021241530855153 28.71360556674602 28.427943600073245 28.18622962827321 27.988463651345906 27.724775682109502 27.527009705182202 27.153451748763963 26.911737776963925 26.757919794909355 26.560153817982055 26.538179820545686 26.494231825672955 26.494231825672955 26.472257828236586 26.472257828236586 26.45028383080022 26.45028383080022 26.45028383080022 26.42830983336385 26.42830983336385 26.42830983336385 26.406335835927486 26.406335835927486 26.38436183849112 26.38436183849112 26.340413843618386 26.318439846182017 26.318439846182017 26.29646584874565 26.29646584874565 26.252517853872916 26.208569859000182 26.186595861563816 26.164621864127447 26.120673869254716 26.120673869254716 26.07672587438198 26.07672587438198 26.054751876945616 26.054751876945616 26.054751876945616 26.054751876945616 26.054751876945616 26.054751876945616 26.054751876945616 26.032777879509247 26.054751876945616 26.054751876945616 26.054751876945616 26.054751876945616 26.054751876945616 26.054751876945616 26.032777879509247 26.054751876945616 26.054751876945616 26.054751876945616 26.054751876945616 26.032777879509247 26.032777879509247 26.032777879509247 26.054751876945616 26.032777879509247 26.032777879509247 26.032777879509247 26.032777879509247 26.032777879509247 26.032777879509247 26.032777879509247 26.032777879509247 26.032777879509247 26.032777879509247 26.032777879509247 26.032777879509247 26.032777879509247 26.032777879509247 26.032777879509247 26.032777879509247 26.032777879509247 26.032777879509247 26.032777879509247 26.032777879509247 26.032777879509247 26.032777879509247 26.032777879509247 26.032777879509247 26.032777879509247 26.032777879509247 26.032777879509247 26.032777879509247 26.032777879509247 26.032777879509247 26.032777879509247 26.032777879509247 26.032777879509247 26.032777879509247 26.032777879509247 26.032777879509247 26.032777879509247 26.032777879509247 26.032777879509247 26.032777879509247 26.032777879509247 26.032777879509247 26.032777879509247 26.032777879509247 26.032777879509247 26.032777879509247 26.032777879509247 26.032777879509247 26.032777879509247 26.032777879509247 26.032777879509247 26.032777879509247 26.032777879509247 26.032777879509247 26.032777879509247 26.032777879509247 26.032777879509247 26.032777879509247 26.01080388207288 26.032777879509247 26.032777879509247 26.032777879509247 26.032777879509247 26.032777879509247 26.032777879509247 26.032777879509247 26.032777879509247 26.032777879509247 26.032777879509247 26.032777879509247 26.032777879509247 26.032777879509247 26.032777879509247 26.032777879509247 26.032777879509247 26.032777879509247 26.032777879509247 26.032777879509247 26.032777879509247 26.032777879509247 26.032777879509247 26.032777879509247 26.032777879509247 26.032777879509247 26.032777879509247 26.032777879509247 26.032777879509247 26.032777879509247 26.032777879509247 26.032777879509247 26.032777879509247 26.032777879509247 26.032777879509247 26.032777879509247 26.032777879509247 26.032777879509247 26.01080388207288 26.032777879509247 26.032777879509247 26.032777879509247 26.032777879509247 26.032777879509247 26.032777879509247 26.032777879509247 26.032777879509247 26.032777879509247 26.032777879509247 26.032777879509247 26.032777879509247 26.032777879509247 26.032777879509247 26.032777879509247 26.01080388207288 26.032777879509247 26.032777879509247 26.032777879509247 26.032777879509247 26.01080388207288 26.01080388207288 26.032777879509247 26.032777879509247 26.032777879509247 26.032777879509247 26.032777879509247 26.032777879509247 26.01080388207288 26.032777879509247 26.032777879509247 26.032777879509247 26.01080388207288 26.01080388207288 26.032777879509247 26.032777879509247 26.032777879509247 26.01080388207288 26.032777879509247 26.01080388207288 26.032777879509247 26.032777879509247 26.032777879509247 26.032777879509247 26.01080388207288 26.01080388207288 26.032777879509247 26.01080388207288 26.01080388207288 26.032777879509247 26.01080388207288 26.01080388207288 26.032777879509247 26.032777879509247 26.032777879509247 26.01080388207288 26.01080388207288 26.01080388207288 26.01080388207288 26.01080388207288 26.01080388207288 26.01080388207288 26.01080388207288 26.01080388207288 26.01080388207288 26.01080388207288 26.01080388207288 26.01080388207288 26.01080388207288 26.01080388207288 26.01080388207288 26.01080388207288 26.01080388207288 26.01080388207288 26.01080388207288 26.01080388207288 26.01080388207288 26.01080388207288 26.01080388207288 26.01080388207288 26.01080388207288 26.01080388207288 26.01080388207288 26.01080388207288 26.01080388207288 26.01080388207288 26.032777879509247 26.032777879509247 26.032777879509247 26.054751876945616 26.07672587438198 26.120673869254716 26.274491851309286 26.472257828236586 26.648049807727524 27.04358176158213 27.373191723127633 27.505035707745833 27.90056766160044 28.208203625709576 28.889397546236953 29.043215528291523 29.48269547701886 29.944149423182566 30.317707379600805 30.625343343709943 31.130745284746382 31.43838124885552 31.89983519501923 32.40523713605567 32.75682109503754 33.284197033510345 34.05328694378319 34.27302691814686 34.8443508514924 35.26185680278337 35.83318073612892 36.602270646401756 36.80003662332906 37.327412561801864 37.85478850027467 38.22834645669291 38.66782640542025 38.97546236952939 39.656656290056766 40.118110236220474 40.513642190075075 40.99707013367515 41.37062809009339 41.78813404138436 42.53524995422084 42.95275590551181 43.54605383629372 44.24922175425746 44.66672770554844 45.39186962094854 46.02911554660319 46.468595495330526 47.10584142098517 47.54532136971251 48.24848928767625 49.14942318256729 49.610877128731005 50.160227064640175 50.577733015931145 50.99523896722212 51.6105108954404 52.04999084416774 52.906976744186046 53.478300677531585 54.137520600622594 54.57700054934993 54.99450650064091 55.65372642373192 56.356894341695664 57.016114264786665 57.45559421351401 58.13678813404138 58.83995605200513 59.367331990477936 60.04852591100531 60.61984984435085 61.23512177256912 61.7185497161692 62.44369163156931 63.10291155466032 63.80607947262406 64.46529939571508 64.9047793444424 65.38820728804248 66.02545321369712 66.5088811572972 67.19007507782457 68.13495696758835 68.66233290606115 69.38747482146127 70.15656473173412 70.72788866507966 71.45303058047976 71.98040651895258 72.74949642922542 73.562534334371 74.11188427028017 74.92492217542575 75.47427211133493 76.5509979857169 77.03442592931697 77.56180186778978 78.33089177806264 79.12195568577184 79.56143563449919 80.52829152169933 81.0117194652994 81.71488738326315 82.17634132942685 82.65976927302691 83.53872917048159 84.17597509613624 84.59348104742722 85.27467496795458 85.62625892693646 86.19758286028201 86.76890679362754 87.14246475004578 87.71378868339133 88.26313861930049 88.81248855520967 89.18604651162791 89.55960446804615 89.99908441677348 90.4605383629372 90.74620032960996 91.14173228346456 91.36147225782824 91.66910822193738 91.80095220655558 91.95477018861015 92.08661417322836 92.13056216810108 92.13056216810108 92.15253616553744 92.15253616553744 92.15253616553744 92.08661417322836 92.02069218091924 91.82292620399194 91.51529023988282 91.2516022706464 90.83409631935542 90.52646035524629 90.04303241164622 89.58157846548252 89.0542025270097 88.70261856802784 88.15326863211865 87.71378868339133 87.07654275773669 86.6590368064457 85.8020509064274 85.2087529756455 84.79124702435452 84.1320271012635 83.67057315509979 82.98937923457243 81.97857535249955 81.71488738326315 80.9457974729903 80.17670756271745 79.62735762680828 78.63852774217176 78.0891778062626 77.56180186778978 76.92455594213514 76.44112799853508 75.6940120856986 74.96887017029849 74.17780626258927 73.4306903497528 72.63962644204358 72.09027650613442 71.54092657022522 70.9036806445706 69.6951107855704 68.75022889580663 67.78337300860647 67.1681010803882 65.9815052188244 65.69584325215162 64.86083134956968 64.28950741622413 63.564365500824024 62.79527559055118 62.31184764695111 61.586705731551 60.597875846914484 60.290239882805345 59.652993957150706 59.191540010987 58.48837209302326 57.82915216993224 57.14795824940487 56.554660318622965 56.13715436733199 55.71964841604102 55.19227247756821 54.64292254165903 54.29133858267717 53.54422266984069 52.928950741622415 52.37960080571324 52.04999084416774 51.63248489287676 50.99523896722212 50.55575901849478 49.940487090276505 49.3471891594946 48.97363120307636 48.44625526460355 48.11664530305805 47.63321735945797 47.17176341329427 46.886101446621495 46.424647500457795 45.78740157480315 45.63358359274858 45.04028566196667 44.71067570042116 44.205273759384724 43.87566379783922 43.568027833730085 42.930781908075446 42.44735396447537 42.1616919978026 41.65629005676616 41.26075810291155 40.77733015931148 40.35982420802051 39.854422266984066 39.26112433620216 38.66782640542025 38.27229445156565 37.7009705182201 37.195568577183664 36.865958615638164 36.492400659219925 36.20673869254715 35.61344076176525 35.32777879509247 34.7784288591833 34.36092290789233 34.18513092840139 33.83354696941952 33.54788500274675 33.284197033510345 32.734847097601175 32.4491851309284 32.07562717451016 31.72404321552829 31.482329243728255 31.174693279619117 30.86705731550998 30.691265336019043 30.44955136421901 30.29573338216444 30.054019410364404 29.834279436000735 29.592565464200696 29.41677348470976 29.109137520600623 29.021241530855153 28.71360556674602 28.515839589818714 28.076359641091376 27.768723676982237 27.548983702618568 27.197399743636698 26.713971800036624 26.494231825672955 26.42830983336385 26.38436183849112 26.340413843618386 26.318439846182017 26.318439846182017 26.318439846182017 26.318439846182017 26.29646584874565 26.274491851309286 26.252517853872916 26.252517853872916 26.252517853872916 26.23054385643655 26.23054385643655 26.23054385643655 26.208569859000182 26.208569859000182 26.208569859000182 26.186595861563816 26.14264786669108 26.14264786669108 26.098699871818347 26.07672587438198 26.054751876945616 25.988829884636512 25.966855887200147 25.900933894891047 25.878959897454678 25.835011902581943 25.791063907709212 25.769089910272843 25.747115912836477 25.72514191540011 25.703167917963743 25.681193920527377 25.65921992309101 25.637245925654643 25.615271928218274 25.593297930781908 25.593297930781908 25.571323933345543 25.571323933345543 25.571323933345543 25.571323933345543 25.571323933345543 25.571323933345543 25.571323933345543 25.571323933345543 25.571323933345543 25.571323933345543 25.571323933345543 25.571323933345543 25.571323933345543 25.571323933345543 25.571323933345543 25.571323933345543 25.571323933345543 25.571323933345543 25.571323933345543 25.571323933345543 25.571323933345543 25.571323933345543 25.571323933345543 25.571323933345543 25.571323933345543 25.571323933345543 25.549349935909174 25.571323933345543 25.571323933345543 25.571323933345543 25.571323933345543 25.571323933345543 25.571323933345543 25.549349935909174 25.571323933345543 25.571323933345543 25.571323933345543 25.571323933345543 25.571323933345543 25.571323933345543 25.571323933345543 25.571323933345543 25.571323933345543 25.571323933345543 25.571323933345543 25.549349935909174 25.549349935909174 25.571323933345543 25.571323933345543 25.549349935909174 25.549349935909174 25.571323933345543 25.549349935909174 25.549349935909174 25.571323933345543 25.549349935909174 25.549349935909174 25.549349935909174 25.549349935909174 25.549349935909174 25.549349935909174 25.549349935909174 25.549349935909174 25.549349935909174 25.549349935909174 25.549349935909174 25.571323933345543 25.549349935909174 25.549349935909174 25.549349935909174 25.549349935909174 25.549349935909174 25.549349935909174 25.549349935909174 25.549349935909174 25.549349935909174 25.549349935909174 25.549349935909174 25.549349935909174 25.549349935909174 25.549349935909174 25.549349935909174 25.549349935909174 25.549349935909174 25.549349935909174 25.549349935909174 25.549349935909174 25.549349935909174 25.549349935909174 25.549349935909174 25.549349935909174 25.549349935909174 25.549349935909174 25.549349935909174 25.549349935909174 25.549349935909174 25.549349935909174 25.549349935909174 25.549349935909174 25.549349935909174 25.549349935909174 25.549349935909174 25.549349935909174 25.549349935909174 25.549349935909174 25.549349935909174 25.549349935909174 25.549349935909174 25.549349935909174 25.549349935909174 25.549349935909174 25.549349935909174 25.549349935909174 25.549349935909174 25.549349935909174 25.549349935909174 25.549349935909174 25.549349935909174 25.549349935909174 25.549349935909174 25.549349935909174 25.549349935909174 25.549349935909174 25.549349935909174 25.549349935909174 25.549349935909174 25.549349935909174 25.549349935909174 25.549349935909174 25.549349935909174 25.549349935909174 25.549349935909174 25.549349935909174 25.549349935909174 25.549349935909174 25.549349935909174 25.549349935909174 25.549349935909174 25.549349935909174 25.549349935909174 25.549349935909174 25.549349935909174 25.549349935909174 25.549349935909174 25.549349935909174 25.549349935909174 25.549349935909174 25.549349935909174 25.549349935909174 25.549349935909174 25.549349935909174 25.549349935909174 25.549349935909174 25.549349935909174 25.549349935909174 25.549349935909174 25.549349935909174 25.549349935909174 25.549349935909174 25.549349935909174 25.549349935909174 25.549349935909174 25.549349935909174 25.549349935909174 25.549349935909174 25.549349935909174 25.549349935909174 25.571323933345543 25.549349935909174 25.571323933345543 25.549349935909174 25.549349935909174 25.571323933345543 25.571323933345543 25.571323933345543 25.571323933345543 25.593297930781908 25.593297930781908 25.593297930781908 25.615271928218274 25.637245925654643 25.681193920527377 25.747115912836477 25.813037905145578 25.878959897454678 26.01080388207288 26.098699871818347 26.208569859000182 26.406335835927486 26.779893792345725 26.999633766709394 27.483061710309467 27.768723676982237 28.05438564365501 28.427943600073245 28.823475553927853 29.240981505218826 29.54861746932796 29.944149423182566 30.339681377037174 30.58139534883721 31.130745284746382 31.394433253982786 31.702069218091925 32.22944515656473 32.40523713605567 32.82274308734664 33.503937007874015 33.877494964292254 34.49276689251053 34.88829884636513 35.28383080021974 36.03094671305622 36.558322651529025 36.887932613074526 37.415308551547334 37.81084050540194 38.31624244643838 38.90954037722029 39.305072331074896 39.898370261856805 40.29390221571141 40.90917414392968 41.48049807727523 41.85405603369347 42.46932796191174 43.194469877311846 43.502105841420985 44.05145577733016 44.22724775682109 44.90844167734847 45.39186962094854 45.74345357993042 46.22688152353049 46.73228346456693 47.1497894158579 47.61124336202161 47.96282732100348 48.60007324665812 48.88573521333089 49.237319172312766 49.76469511078557 50.204175059512906 50.86339498260392 51.5445889031313 52.2697308185314 52.731184764695115 53.390404687786116 54.335286577549894 54.77476652627723 55.01648049807727 55.74162241347739 56.378868339132026 56.8622962827321 57.93902215711408 58.37850210584142 58.8619300494415 59.521149972532506 59.916681926387106 60.356161875114445 61.16919978026002 61.586705731551 62.15802966489654 62.72935359824208 63.124885552096686 63.93792345724226 64.39937740340596 64.81688335469694 65.27833730086064 65.67386925471524 66.28914118293352 66.9044131111518 67.58560703167919 68.24482695477019 68.72825489837027 69.47537081120674 69.91485075993407 70.42025270097052 71.6288225599707 72.09027650613442 72.57370444973449 73.25489837026186 73.6943783189892 74.33162424464385 74.96887017029849 75.38637612158945 76.13349203442593 76.4850759934078 76.85863394982604 77.40798388573522 77.80351583958982 78.50668375755356 78.85826771653544 79.23182567295368 79.78117560886285 80.28657754989928 80.81395348837209 81.18751144479035 81.64896539095403 82.17634132942685 82.48397729353599 82.98937923457243 83.51675517304523 84.0001831166453 84.70335103460906 85.03296099615454 85.36257095770006 85.7361289141183 86.19758286028201 86.48324482695477 86.9227247756821 87.20838674235489 87.71378868339133 88.19721662699139 88.37300860648233 88.592748580846 88.81248855520967 88.9882805347006 89.16407251419155 89.29591649880975 89.44973448086431 89.49368247573705 89.51565647317341 89.51565647317341 89.51565647317341 89.31789049624611 89.22999450650065 89.03222852957333 88.7905145577733 88.50485259110053 88.17524262955503 87.80168467313679 87.23036073979125 86.87877678080937 86.32942684490021 85.91192089360922 85.27467496795458 84.63742904229994 84.1320271012635 83.4728071781725 82.79161325764511 82.30818531404505 81.56106940120857 80.83592748580847 80.06683757553562 79.31972166269914 78.77037172678996 77.97930781908076 77.23219190624428 76.9465299395715 75.957700054935 75.38637612158945 74.68320820362571 73.93609229078925 73.4306903497528 72.37593847280718 71.8925105292071 71.38710858817066 70.35433070866142 70.00274674967955 69.40944881889763 68.64035890862479 67.82732100347921 67.05823109320637 66.53085515473356 66.00347921626076 65.12451931880608 64.35542940853324 63.300677531587624 62.68540560336935 62.02618568027834 61.45486174693279 60.92748580845999 60.202343893059876 59.499175975096136 58.97180003662333 58.33455411096869 57.65336019044131 56.9941402673503 56.33492034425929 55.89544039553195 55.41201245193188 54.84068851858634 54.44515656473173 53.829884636513455 53.302508698040654 52.75315876213148 52.2697308185314 51.9401208569859 51.58853689800403 51.083134956967584 50.709577000549345 50.094305072331075 49.03955319538546 48.68796923640359 48.13861930049441 47.67716535433071 47.061893426112434 46.600439479948726 46.09503753891229 45.58963559787585 45.10620765427578 44.79857169016664 44.40303973631203 44.139351767075624 43.568027833730085 43.282365867057315 42.930781908075446 42.71104193371177 42.38143197216627 42.11774400292987 41.76616004394799 41.45852407983885 41.12891411829335 40.88720014649331 40.645486174693275 40.118110236220474 39.5687603003113 39.370994323384 38.95348837209302 38.62387841054752 38.16242446438381 37.67899652078374 37.34938655923823 36.887932613074526 36.602270646401756 36.22871268998352 36.00897271561985 35.87712873100165 35.70133675151071 35.56949276689251 35.48159677714705 35.39370078740157 35.30580479765611 35.06409082585607 34.88829884636513 34.7125068668742 34.36092290789233 34.16315693096502 33.96539095403772 33.54788500274675 33.39406702069218 33.152353048892145 32.91063907709211 32.734847097601175 32.53708112067387 32.33931514374657 32.20747115912837 31.987731184764694 31.81193920527376 31.57022523347372 31.21864127449185 31.020875297564547 30.691265336019043 30.44955136421901 30.22981138985534 29.966123420618935 29.790331441127996 29.48269547701886 29.284929500091557 29.175059512909723 29.021241530855153 28.933345541109688 28.867423548800588 28.69163156930965 28.603735579564184 28.47189159494598 28.34004761032778 28.25215162058231 28.03241164621864 27.87859366416407 27.834645669291337 27.702801684673137 27.592931697491302 27.439113715436733 27.241347738509432 27.131477751327594 27.087529756454863 26.999633766709394 26.97765976927303 26.88976377952756 26.845815784654825 26.80186778978209 26.779893792345725 26.779893792345725 26.779893792345725 26.779893792345725 26.779893792345725 26.779893792345725 26.757919794909355 26.713971800036624 26.713971800036624 26.713971800036624 26.713971800036624 26.713971800036624 26.713971800036624 26.691997802600255 26.691997802600255 26.67002380516389 26.648049807727524 26.626075810291155 26.58212781541842 26.560153817982055 26.560153817982055 26.51620582310932 26.51620582310932 26.494231825672955 26.494231825672955 26.472257828236586 26.45028383080022 26.45028383080022 26.42830983336385 26.42830983336385 26.38436183849112 26.38436183849112 26.340413843618386 26.340413843618386 26.29646584874565 26.274491851309286 26.274491851309286 26.252517853872916 26.23054385643655 26.23054385643655 26.208569859000182 26.208569859000182 26.186595861563816 26.186595861563816 26.164621864127447 26.164621864127447 26.164621864127447 26.14264786669108 26.120673869254716 26.098699871818347 26.098699871818347 26.07672587438198 26.07672587438198 26.054751876945616 26.054751876945616 26.032777879509247 26.032777879509247 26.01080388207288 26.01080388207288 26.01080388207288 25.988829884636512 25.988829884636512 25.988829884636512 25.966855887200147 25.966855887200147 25.966855887200147 25.966855887200147 25.966855887200147 25.966855887200147 25.944881889763778 25.966855887200147 25.944881889763778 25.944881889763778 25.944881889763778 25.944881889763778 25.944881889763778 25.922907892327412 25.922907892327412 25.878959897454678 25.878959897454678 25.856985900018312 25.835011902581943 25.835011902581943 25.835011902581943 25.813037905145578 25.813037905145578 25.813037905145578 25.791063907709212 25.791063907709212 25.791063907709212 25.791063907709212 25.791063907709212 25.769089910272843 25.769089910272843 25.769089910272843 25.747115912836477 25.747115912836477 25.747115912836477 25.747115912836477 25.747115912836477 25.747115912836477 25.747115912836477 25.747115912836477 25.747115912836477 25.72514191540011 25.72514191540011 25.72514191540011 25.72514191540011 25.703167917963743 25.703167917963743 25.703167917963743 25.681193920527377 25.681193920527377 25.681193920527377 25.681193920527377 25.703167917963743 25.681193920527377 25.681193920527377 25.681193920527377 25.681193920527377 25.681193920527377 25.681193920527377 25.681193920527377 25.681193920527377 25.681193920527377 25.681193920527377 25.681193920527377 25.65921992309101 25.65921992309101 25.65921992309101 25.65921992309101 25.637245925654643 25.637245925654643 25.615271928218274 25.615271928218274 25.593297930781908 25.593297930781908 25.571323933345543 25.571323933345543 25.571323933345543 25.571323933345543 25.549349935909174 25.549349935909174 25.549349935909174 25.549349935909174 25.549349935909174 25.549349935909174 25.549349935909174 25.549349935909174 25.549349935909174 25.549349935909174 25.527375938472808 25.527375938472808 25.527375938472808 25.527375938472808 25.527375938472808 25.549349935909174 25.527375938472808 25.527375938472808 25.527375938472808 25.527375938472808 25.527375938472808 25.527375938472808 25.527375938472808 25.527375938472808 25.527375938472808 25.527375938472808 25.527375938472808 25.527375938472808 25.527375938472808 25.527375938472808 25.527375938472808 25.527375938472808 25.527375938472808 25.527375938472808 25.50540194103644 25.50540194103644 25.50540194103644 25.483427943600073 25.483427943600073 25.483427943600073 25.483427943600073 25.483427943600073 25.483427943600073 25.483427943600073 25.483427943600073 25.483427943600073 25.483427943600073 25.483427943600073 25.483427943600073 25.483427943600073 25.461453946163708 25.483427943600073 25.483427943600073 25.483427943600073 25.483427943600073 25.483427943600073 25.483427943600073 25.483427943600073 25.483427943600073 25.50540194103644 25.50540194103644 25.527375938472808 25.637245925654643 25.791063907709212 25.944881889763778 26.208569859000182 26.472257828236586 26.867789782091194 27.351217725691264 27.68082768723677 28.208203625709576 28.75755356161875 29.131111518036988 29.70243545138253 30.42757736678264 30.603369346273574 31.130745284746382 31.482329243728255 32.03167917963743 32.55905511811024 32.95458707196484 33.701702984801315 34.141182933528654 34.47079289507416 35.0421168284197 35.67936275407435 36.14081670023805 36.887932613074526 37.3054385643655 37.89873649514741 38.51400842336568 38.71177440029299 39.524812305438566 39.986266251602274 40.62351217725691 41.28273210034792 41.72221204907526 42.35945797472991 42.95275590551181 43.392235854239146 43.897637795275585 44.271195751693824 44.86449368247574 45.52371360556674 45.89727156198498 46.73228346456693 47.1497894158579 47.56729536714887 48.11664530305805 48.53415125434902 49.25929316974913 49.808643105658305 50.226149056949275 50.84142098516755 51.52261490569492 51.96209485442226 52.66526277238601 53.214612708295185 53.851858633949824 54.57700054934993 55.08240249038637 55.78557040835012 56.312946346822926 57.038088262223035 57.80717817249588 58.31258011353232 59.3233839956052 60.070499908441676 60.641823841787215 61.16919978026002 61.67460172129647 62.37776963926021 63.16883354696942 63.608313495696756 64.66306537264236 65.47610327778796 66.04742721113348 66.86046511627907 67.40981505218824 68.24482695477019 69.07983885735213 69.7610327778795 70.79381065738875 71.34316059329794 71.93645852407984 73.3647683574437 73.91411829335286 74.41952023438931 74.96887017029849 75.47427211133493 76.04559604468047 76.99047793444424 77.47390587804432 78.13312580113532 78.6165537447354 79.2757736678264 79.69327961911739 80.11078557040835 81.36330342428127 81.62699139351767 82.06647134224502 82.59384728071782 83.01135323200879 83.62662516022706 84.3297930781908 84.72532503204542 85.29664896539094 85.91192089360922 86.30745284746384 86.87877678080937 87.60391869620949 87.97747665262773 88.32906061160959 88.6586705731551 89.18604651162791 89.31789049624611 89.82329243728255 90.13092840139169 90.30672038088262 90.54843435268266 90.70225233473722 90.83409631935542 91.0538362937191 91.1197582860282 91.14173228346456 91.14173228346456 91.14173228346456 91.14173228346456 91.03186229628274 90.8560703167918 90.54843435268266 90.30672038088262 89.93316242446438 89.53763047060978 89.25196850393701 88.68064457059147 88.28511261673685 87.93352865775499 87.53799670390038 87.16443874748215 86.54916681926387 85.8679728987365 85.45046694744553 84.90111701153634 84.46163706280902 84.04413111151804 82.85753524995422 82.33015931148142 81.82475737044497 81.20948544222671 80.72605749862663 79.91301959348105 79.25379967039004 78.70444973448086 78.00128181651712 77.45193188060796 76.7487639626442 75.8258560703168 75.5621681010804 74.90294817798939 74.00201428309833 73.6943783189892 73.1010803882073 72.61765244460722 71.65079655740706 70.88170664713422 70.33235671122506 69.6291887932613 69.1018128547885 68.55246291887933 67.38784105475187 66.75059512909723 65.54202527009704 64.92675334187878 64.28950741622413 63.058963559787585 62.44369163156931 61.89434169566014 61.12525178538729 60.61984984435085 59.806811939205275 58.73008606482329 58.20271012635048 57.45559421351401 56.906244277604834 56.400842336568395 55.80754440578649 55.36806445705915 54.48910455960447 53.829884636513455 53.14869071598608 52.51144479033144 52.18183482878594 51.6105108954404 51.01721296465848 50.599707013367514 49.962461087712875 49.32521516205823 48.86376121589453 47.89690532869437 47.391503387657934 46.64438747482146 46.13898553378502 45.65555759018495 45.04028566196667 44.33711774400293 44.007507782457424 43.54605383629372 43.216443874748215 42.75498992858451 42.44735396447537 42.1616919978026 41.56839406702069 40.93114814136605 40.535616187511444 40.249954220838674 39.920344259293174 39.5028383080022 38.97546236952939 38.62387841054752 38.07452847463834 37.54715253616554 37.195568577183664 36.712140633583594 36.38253067203809 35.70133675151071 35.34975279252884 35.02014283098333 34.55868888481963 34.29500091558323 33.92144295916499 33.32814502838308 33.174327046328514 32.932613074528476 32.75682109503754 32.49313312580114 32.14154916681926 32.03167917963743 31.767991210401025 31.46035524629189 31.020875297564547 30.845083318073613 30.537447353964474 30.273759384728073 29.878227430873466 29.61453946163706 29.240981505218826 28.867423548800588 28.64768357443692 28.362021607764145 28.09833363852774 27.944515656473172 27.724775682109502 27.592931697491302 27.307269730818533 27.17542574620033 26.933711774400294 26.713971800036624 26.560153817982055 26.406335835927486 26.38436183849112 26.340413843618386 26.340413843618386 26.36238784105475 26.36238784105475 26.36238784105475 26.340413843618386 26.318439846182017 26.318439846182017 26.29646584874565 26.29646584874565 26.29646584874565 26.29646584874565 26.29646584874565 26.29646584874565 26.29646584874565 26.29646584874565 26.29646584874565 26.29646584874565 26.274491851309286 26.252517853872916 26.208569859000182 26.164621864127447 26.14264786669108 26.07672587438198 26.032777879509247 25.988829884636512 25.944881889763778 25.900933894891047 25.878959897454678 25.856985900018312 25.856985900018312 25.856985900018312 25.856985900018312 25.856985900018312 25.856985900018312 25.856985900018312 25.856985900018312 25.856985900018312 25.856985900018312 25.835011902581943 25.835011902581943 25.835011902581943 25.835011902581943 25.835011902581943 25.835011902581943 25.813037905145578 25.813037905145578 25.769089910272843 25.769089910272843 25.747115912836477 25.703167917963743 25.681193920527377 25.65921992309101 25.615271928218274 25.615271928218274 25.571323933345543 25.549349935909174 25.50540194103644 25.483427943600073 25.483427943600073 25.461453946163708 25.461453946163708 25.461453946163708 25.43947994872734 25.461453946163708 25.461453946163708 25.461453946163708 25.461453946163708 25.461453946163708 25.461453946163708 25.461453946163708 25.461453946163708 25.461453946163708 25.461453946163708 25.461453946163708 25.461453946163708 25.461453946163708 25.461453946163708 25.461453946163708 25.461453946163708 25.461453946163708 25.43947994872734 25.43947994872734 25.461453946163708 25.43947994872734 25.461453946163708 25.461453946163708 25.43947994872734 25.461453946163708 25.461453946163708 25.461453946163708 25.461453946163708 25.461453946163708 25.461453946163708 25.461453946163708 25.461453946163708 25.43947994872734 25.461453946163708 25.461453946163708 25.461453946163708 25.461453946163708 25.461453946163708 25.461453946163708 25.43947994872734 25.43947994872734 25.43947994872734 25.461453946163708 25.43947994872734 25.461453946163708 25.43947994872734 25.461453946163708 25.43947994872734 25.461453946163708 25.461453946163708 25.461453946163708 25.461453946163708 25.43947994872734 25.43947994872734 25.43947994872734 25.461453946163708 25.461453946163708 25.461453946163708 25.461453946163708 25.461453946163708 25.43947994872734 25.43947994872734 25.461453946163708 25.43947994872734 25.461453946163708 25.43947994872734 25.461453946163708 25.43947994872734 25.43947994872734 25.461453946163708 25.43947994872734 25.461453946163708 25.461453946163708 25.43947994872734 25.43947994872734 25.43947994872734 25.43947994872734 25.43947994872734 25.43947994872734 25.43947994872734 25.43947994872734 25.43947994872734 25.43947994872734 25.461453946163708 25.43947994872734 25.43947994872734 25.43947994872734 25.43947994872734 25.43947994872734 25.43947994872734 25.43947994872734 25.43947994872734 25.43947994872734 25.43947994872734 25.43947994872734 25.43947994872734 25.43947994872734 25.43947994872734 25.43947994872734 25.43947994872734 25.43947994872734 25.43947994872734 25.43947994872734 25.43947994872734 25.43947994872734 25.43947994872734 25.43947994872734 25.43947994872734 25.43947994872734 25.43947994872734 25.43947994872734 25.43947994872734 25.43947994872734 25.43947994872734 25.43947994872734 25.43947994872734 25.43947994872734 25.43947994872734 25.43947994872734 25.43947994872734 25.43947994872734 25.43947994872734 25.43947994872734 25.43947994872734 25.43947994872734 25.43947994872734 25.43947994872734 25.43947994872734 25.43947994872734 25.43947994872734 25.43947994872734 25.43947994872734 25.43947994872734 25.43947994872734 25.43947994872734 25.43947994872734 25.43947994872734 25.43947994872734 25.43947994872734 25.43947994872734 25.43947994872734 25.43947994872734 25.43947994872734 25.43947994872734 25.43947994872734 25.43947994872734 25.43947994872734 25.43947994872734 25.43947994872734 25.43947994872734 25.43947994872734 25.43947994872734 25.43947994872734 25.43947994872734 25.43947994872734 25.43947994872734 25.43947994872734 25.43947994872734 25.43947994872734 25.43947994872734 25.43947994872734 25.43947994872734 25.43947994872734 25.43947994872734 25.43947994872734 25.43947994872734 25.43947994872734 25.43947994872734 25.461453946163708 25.483427943600073 25.549349935909174 25.703167917963743 25.900933894891047 26.054751876945616 26.494231825672955 26.82384178721846 27.17542574620033 27.592931697491302 28.010437648782275 28.53781358725508 28.97729353598242 29.878227430873466 30.51547335652811 30.954953305255447 31.57022523347372 32.03167917963743 32.3832631386193 33.196301043764876 33.635780992492215 34.29500091558323 34.95422083867423 35.39370078740157 36.118842702801686 36.909906610510895 37.21754257462003 37.87676249771104 38.36019044131112 39.173228346456696 39.854422266984066 40.35982420802051 41.59036806445706 42.0298480131844 42.49130195934811 42.95275590551181 43.436183849111885 44.139351767075624 45.0842336568394 45.61160959531222 46.314777513275956 46.820179454312395 47.2816334004761 48.27046328511261 48.75389122871269 49.45705914667643 50.160227064640175 50.55575901849478 51.19300494414942 51.63248489287676 52.22578282365867 52.95092473905878 53.126716718549716 53.632118659586155 54.18146859549533 54.99450650064091 55.43398644936825 55.85149240065922 56.29097234938656 56.752426295550265 57.169932246841235 57.91704815967771 58.35652810840505 58.97180003662333 59.587071964841606 60.04852591100531 60.575901849478115 61.5207837392419 62.09210767258744 62.927119575169385 64.02581944698773 64.3114814136605 65.19044131111518 65.78373924189708 66.66269913935176 67.58560703167919 68.15693096502471 69.07983885735213 70.31038271378868 70.94762863944334 71.58487456509798 72.1561984984435 73.34279436000733 73.8262223036074 74.39754623695293 75.51822010620765 76.30928401391687 76.85863394982604 77.62772386009888 78.13312580113532 78.83629371909907 79.58340963193555 80.00091558322652 80.68210950375389 81.58304339864495 81.80278337300861 82.70371726789965 83.3409631935543 83.56070316791798 84.17597509613624 84.70335103460906 85.07690899102728 85.45046694744553 86.19758286028201 86.90075077824574 87.12049075260941 87.60391869620949 87.95550265519137 88.48287859366417 88.96630653726424 89.31789049624611 89.75737044497345 90.21882439113715 90.54843435268266 90.94396630653726 91.14173228346456 91.33949826039188 91.62516022706464 91.80095220655558 91.97674418604652 92.17451016297382 92.24043215528292 92.28438015015564 92.30635414759202 92.30635414759202 92.30635414759202 92.30635414759202 92.24043215528292 92.15253616553744 92.04266617835562 91.86687419886468 91.7130562168101 91.47134224501008 91.16370628090094 90.94396630653726 90.57040835011902 90.02105841420986 89.82329243728255 89.47170847830067 89.07617652444607 88.7905145577733 88.32906061160959 87.97747665262773 87.53799670390038 87.05456876030031 86.72495879875481 86.08771287310017 85.58231093206373 85.14283098333638 84.72532503204542 84.21992309100898 83.78044314228164 82.90148324482695 82.46200329609962 81.80278337300861 81.12158945248123 80.90184947811755 79.69327961911739 79.45156564731734 78.70444973448086 77.93535982420804 77.38600988829884 76.5509979857169 76.02362204724409 75.21058414209853 74.35359824208021 73.78227430873466 72.9692364035891 71.84856253433438 71.27723860098882 70.72788866507966 69.58524079838858 69.03589086247939 68.50851492400659 67.87126899835195 67.05823109320637 66.28914118293352 65.73979124702436 64.92675334187878 64.33345541109688 63.718183482878594 62.68540560336935 62.11408167002381 61.32301776231459 60.246291887932614 59.872733931514375 59.10364402124153 58.53232008789599 57.71928218275041 56.906244277604834 56.33492034425929 55.63175242629555 54.55502655191357 53.98370261856803 53.170664713422454 52.64328877494964 51.91814685954954 51.36879692364036 50.90734297747665 50.160227064640175 49.544955136421905 49.105475187694566 48.46822926203992 48.00677531587621 47.30360739791247 46.754257462003295 46.117011536348656 45.41384361838491 44.7546236952939 44.18329976194836 43.52407983885735 43.150521882439115 42.62314594396631 42.24958798754807 41.89800402856619 41.41457608496612 40.79930415674785 40.49166819263871 40.052188243911374 39.7665262772386 39.41494231825673 39.06335835927486 38.93151437465666 38.60190441311115 38.44808643105658 38.25032045412928 38.09650247207471 37.96465848745651 37.7009705182201 37.393334554110965 37.1735945797473 36.843984618201794 36.624244643838125 36.22871268998352 35.81120673869255 35.52554477201978 34.99816883354697 34.7125068668742 34.42684490020143 33.96539095403772 33.83354696941952 33.459989013001284 32.95458707196484 32.69089910272844 32.36128914118294 32.09760117194653 31.855887200146494 31.41640725141915 31.21864127449185 30.932979307819082 30.42757736678264 30.273759384728073 30.119941402673504 30.010071415491666 29.878227430873466 29.746383446255265 29.592565464200696 29.41677348470976 29.19703351034609 29.065189525727888 28.823475553927853 28.55978758469145 28.362021607764145 28.05438564365501 27.856619666727706 27.439113715436733 27.153451748763963 26.95568577183666 26.713971800036624 26.626075810291155 26.560153817982055 26.538179820545686 26.51620582310932 26.51620582310932 26.494231825672955 26.472257828236586 26.472257828236586 26.45028383080022 26.42830983336385 26.406335835927486 26.406335835927486 26.38436183849112 26.36238784105475 26.36238784105475 26.36238784105475 26.36238784105475 26.36238784105475 26.340413843618386 26.340413843618386 26.318439846182017 26.29646584874565 26.274491851309286 26.252517853872916 26.23054385643655 26.186595861563816 26.164621864127447 26.14264786669108 26.098699871818347 26.07672587438198 26.054751876945616 26.032777879509247 26.032777879509247 26.032777879509247 26.01080388207288 26.01080388207288 26.01080388207288 26.01080388207288 26.01080388207288 26.01080388207288 25.988829884636512 26.01080388207288 25.988829884636512 26.01080388207288 25.988829884636512 25.988829884636512 25.988829884636512 25.988829884636512 25.988829884636512 25.966855887200147 25.988829884636512 25.966855887200147 25.966855887200147 25.966855887200147 25.966855887200147 25.944881889763778 25.944881889763778 25.944881889763778 25.922907892327412 25.922907892327412 25.922907892327412 25.900933894891047 25.900933894891047 25.900933894891047 25.900933894891047 25.900933894891047 25.900933894891047 25.900933894891047 25.900933894891047 25.900933894891047 25.900933894891047 25.878959897454678 25.900933894891047 25.900933894891047 25.878959897454678 25.900933894891047 25.878959897454678 25.878959897454678 25.878959897454678 25.878959897454678 25.878959897454678 25.878959897454678 25.878959897454678 25.900933894891047 25.878959897454678 25.878959897454678 25.878959897454678 25.878959897454678 25.878959897454678 25.900933894891047 25.878959897454678 25.900933894891047 25.900933894891047 25.878959897454678 25.900933894891047 25.878959897454678 25.878959897454678 25.878959897454678 25.878959897454678 25.900933894891047 25.900933894891047 25.900933894891047 25.878959897454678 25.878959897454678 25.878959897454678 25.878959897454678 25.878959897454678 25.878959897454678 25.878959897454678 25.878959897454678 25.878959897454678 25.878959897454678 25.878959897454678 25.878959897454678 25.878959897454678 25.878959897454678 25.878959897454678 25.878959897454678 25.878959897454678 25.878959897454678 25.878959897454678 25.878959897454678 25.878959897454678 25.878959897454678 25.878959897454678 25.878959897454678 25.878959897454678 25.878959897454678 25.878959897454678 25.878959897454678 25.878959897454678 25.878959897454678 25.856985900018312 25.878959897454678 25.856985900018312 25.856985900018312 25.856985900018312 25.856985900018312 25.878959897454678 25.878959897454678 25.878959897454678 25.856985900018312 25.856985900018312 25.856985900018312 25.878959897454678 25.856985900018312 25.856985900018312 25.878959897454678 25.878959897454678 25.878959897454678 25.878959897454678 25.856985900018312 25.856985900018312 25.878959897454678 25.878959897454678 25.856985900018312 25.856985900018312 25.878959897454678 25.878959897454678 25.878959897454678 25.856985900018312 25.856985900018312 25.878959897454678 25.878959897454678 25.856985900018312 25.878959897454678 25.856985900018312 25.856985900018312 25.856985900018312 25.856985900018312 25.856985900018312 25.878959897454678 25.856985900018312 25.856985900018312 25.856985900018312 25.856985900018312 25.878959897454678 25.878959897454678 25.878959897454678 25.878959897454678 25.856985900018312 25.878959897454678 25.856985900018312 25.878959897454678 25.856985900018312 25.878959897454678 25.856985900018312 25.856985900018312 25.856985900018312 25.856985900018312 25.878959897454678 25.856985900018312 25.856985900018312 25.878959897454678 25.878959897454678 25.878959897454678 25.856985900018312 25.856985900018312 25.856985900018312 25.878959897454678 25.856985900018312 25.856985900018312 25.856985900018312 25.856985900018312 25.856985900018312 25.856985900018312 25.856985900018312 25.856985900018312 25.856985900018312 25.856985900018312 25.856985900018312 25.856985900018312 25.856985900018312 25.856985900018312 25.856985900018312 25.856985900018312 25.856985900018312 25.856985900018312 25.856985900018312 25.856985900018312 25.856985900018312 25.856985900018312 25.856985900018312 25.856985900018312 25.856985900018312 25.856985900018312 25.856985900018312 25.856985900018312 25.856985900018312 25.856985900018312 25.856985900018312 25.856985900018312 25.856985900018312 25.856985900018312 25.856985900018312 25.856985900018312 25.856985900018312 25.878959897454678 25.878959897454678 25.900933894891047 25.922907892327412 26.032777879509247 26.120673869254716 26.252517853872916 26.36238784105475 26.494231825672955 26.626075810291155 26.757919794909355 26.95568577183666 27.219373741073063 27.395165720564 27.658853689800402 27.944515656473172 28.076359641091376 28.47189159494598 28.71360556674602 29.109137520600623 29.54861746932796 29.8562534334371 30.317707379600805 30.757187328328143 31.08679728987365 31.59219923091009 31.987731184764694 32.49313312580114 33.064457059146676 33.61380699505585 34.38289690532869 34.80040285661967 35.21790880791064 35.67936275407435 36.09686870536532 36.953854605383626 37.327412561801864 37.7668925105292 38.29426844900202 38.71177440029299 39.32704632851126 39.898370261856805 40.29390221571141 41.06299212598425 41.48049807727523 41.87603003112983 42.38143197216627 42.776963926020876 43.45815784654825 44.09540377220289 44.53488372093023 45.12818165171214 45.76542757736678 46.16095953122139 46.842153451748764 47.193737410730634 47.72111334920344 48.09467130562168 48.81981322102179 49.544955136421905 50.270097051822006 50.73155099798572 51.36879692364036 51.8082768723677 52.46749679545871 53.170664713422454 53.67606665445889 54.42318256729537 55.12635048525911 55.58780443142282 56.29097234938656 56.818348287859365 57.49954220838674 58.26863211865959 58.81798205456876 59.54312396996887 60.575901849478115 61.16919978026002 61.69657571873283 62.57553561618751 63.432521516205824 64.06976744186046 65.05859732649698 65.9815052188244 66.61875114447903 67.60758102911555 68.55246291887933 69.21168284197034 70.22248672404322 71.18934261124336 71.84856253433438 72.77147042666178 73.38674235488006 74.26570225233473 75.34242812671673 75.89177806262589 76.39718000366233 77.21021790880792 77.69364585240798 78.39681377037172 79.12195568577184 80.06683757553562 80.52829152169933 81.03369346273576 81.64896539095403 82.15436733199049 82.76963926020875 83.40688518586339 83.8683391320271 84.48361106024538 85.14283098333638 85.51638893975462 86.35140084233657 87.07654275773669 87.27430873466398 87.84563266800953 88.48287859366417 88.9223585423915 89.82329243728255 90.13092840139169 90.52646035524629 90.9219923091009 91.33949826039188 91.64713422450102 91.93279619117378 92.46017212964658 92.7897820911921 93.00952206555576 93.2512360373558 93.47097601171946 93.58084599890131 93.7786119758286 93.86650796557407 93.95440395531953 94.04229994506501 94.06427394250137 94.10822193737411 94.13019593481047 94.13019593481047 94.13019593481047 94.13019593481047 94.10822193737411 93.97637795275591 93.82255997070133 93.42702801684673 93.16334004761033 92.8557040835012 92.32832814502838 91.7130562168101 91.40542025270096 90.7901483244827 90.41659036806446 89.77934444240981 89.22999450650065 88.63669657571873 87.93352865775499 87.45010071415491 86.72495879875481 85.75810291155466 85.18677897820913 84.48361106024538 84.1320271012635 83.23109320637246 82.76963926020875 82.22028932429959 81.53909540377221 80.79197949093573 80.35249954220839 79.62735762680828 78.83629371909907 78.30891778062626 77.51785387291704 77.03442592931697 76.0895440395532 75.38637612158945 74.88097418055301 74.17780626258927 73.6284563266801 72.79344442409815 71.98040651895258 71.40908258560702 70.46420069584326 69.4973448086431 68.44259293169749 67.67350302142464 66.9044131111518 65.95953122138803 64.83885735213332 64.13568943416956 62.88317158029665 62.02618568027834 61.41091375206006 60.575901849478115 60.092473905878045 59.3233839956052 58.88390404687786 58.20271012635048 57.54349020325947 56.9282182750412 56.51071232375023 55.89544039553195 55.45596044680461 54.88463651345907 54.335286577549894 53.961728621131655 53.434352682658854 53.104742721113354 52.46749679545871 51.98406885185864 51.65445889031313 51.10510895440396 50.75352499542208 50.379967039003844 49.786669108221936 49.14942318256729 48.51217725691265 47.83098333638527 47.43545138253067 46.64438747482146 46.292803515839594 45.919245559421356 45.39186962094854 45.0183116645303 44.44698773118476 43.91961179271196 43.54605383629372 42.798937923457245 42.38143197216627 41.91997802600257 41.45852407983885 41.084966123420614 40.579564182384175 40.096136238784105 39.6346822926204 39.15125434902033 38.82164438747482 38.51400842336568 38.03058047976561 37.67899652078374 37.1735945797473 36.602270646401756 36.338582677165356 35.986998718183486 35.74528474638345 35.43764878227431 35.17396081303791 34.9761948361106 34.62461087712873 34.29500091558323 34.03131294634682 33.657754989928584 33.262223036073976 32.97656106940121 32.60300311298297 32.3832631386193 32.03167917963743 31.68009522065556 31.43838124885552 30.998901300128182 30.713239333455412 30.493499359091743 30.22981138985534 29.878227430873466 29.54861746932796 29.19703351034609 28.955319538546053 28.62570957700055 28.40596960263688 28.208203625709576 27.856619666727706 27.658853689800402 27.351217725691264 27.065555759018494 26.82384178721846 26.80186778978209 26.713971800036624 26.67002380516389 26.626075810291155 26.60410181285479 26.560153817982055 26.538179820545686 26.538179820545686 26.51620582310932 26.51620582310932 26.51620582310932 26.51620582310932 26.494231825672955 26.472257828236586 26.45028383080022 26.45028383080022 26.42830983336385 26.406335835927486 26.38436183849112 26.38436183849112 26.38436183849112 26.36238784105475 26.36238784105475 26.340413843618386 26.29646584874565 26.274491851309286 26.23054385643655 26.208569859000182 26.164621864127447 26.14264786669108 26.098699871818347 26.07672587438198 26.054751876945616 26.054751876945616 26.032777879509247 26.032777879509247 26.032777879509247 26.01080388207288 26.01080388207288 25.988829884636512 25.988829884636512 25.988829884636512 25.966855887200147 25.944881889763778 25.944881889763778 25.944881889763778 25.922907892327412 25.922907892327412 25.922907892327412 25.922907892327412 25.900933894891047 25.922907892327412 25.922907892327412 25.900933894891047 25.900933894891047 25.900933894891047 25.900933894891047 25.900933894891047 25.922907892327412 25.900933894891047 25.900933894891047 25.900933894891047 25.900933894891047 25.900933894891047 25.900933894891047 25.900933894891047 25.900933894891047 25.878959897454678 25.878959897454678 25.856985900018312 25.856985900018312 25.856985900018312 25.835011902581943 25.835011902581943 25.813037905145578 25.813037905145578 25.813037905145578 25.813037905145578 25.813037905145578 25.813037905145578 25.813037905145578 25.813037905145578 25.813037905145578 25.813037905145578 25.813037905145578 25.813037905145578 25.813037905145578 25.813037905145578 25.813037905145578 25.813037905145578 25.813037905145578 25.813037905145578 25.813037905145578 25.813037905145578 25.813037905145578 25.813037905145578 25.813037905145578 25.813037905145578 25.813037905145578 25.813037905145578 25.813037905145578 25.813037905145578 25.813037905145578 25.813037905145578 25.813037905145578 25.813037905145578 25.813037905145578 25.813037905145578 25.813037905145578 25.813037905145578 25.813037905145578 25.813037905145578 25.813037905145578 25.813037905145578 25.813037905145578 25.791063907709212 25.813037905145578 25.813037905145578 25.813037905145578 25.813037905145578 25.813037905145578 25.813037905145578 25.791063907709212 25.813037905145578 25.813037905145578 25.791063907709212 25.813037905145578 25.813037905145578 25.813037905145578 25.813037905145578 25.813037905145578 25.813037905145578 25.813037905145578 25.813037905145578 25.813037905145578 25.813037905145578 25.791063907709212 25.813037905145578 25.813037905145578 25.813037905145578 25.813037905145578 25.813037905145578 25.791063907709212 25.813037905145578 25.791063907709212 25.813037905145578 25.813037905145578 25.813037905145578 25.813037905145578 25.813037905145578 25.813037905145578 25.813037905145578 25.813037905145578 25.813037905145578 25.813037905145578 25.813037905145578 25.813037905145578 25.813037905145578 25.813037905145578 25.813037905145578 25.813037905145578 25.813037905145578 25.813037905145578 25.813037905145578 25.813037905145578 25.813037905145578 25.813037905145578 25.813037905145578 25.813037905145578 25.813037905145578 25.813037905145578 25.813037905145578 25.813037905145578 25.813037905145578 25.813037905145578 25.813037905145578 25.813037905145578 25.813037905145578 25.813037905145578 25.813037905145578 25.813037905145578 25.813037905145578 25.813037905145578 25.813037905145578 25.813037905145578 25.813037905145578 25.813037905145578 25.813037905145578 25.813037905145578 25.813037905145578 25.813037905145578 25.813037905145578 25.813037905145578 25.813037905145578 25.813037905145578 25.813037905145578 25.813037905145578 25.813037905145578 25.813037905145578 25.813037905145578 25.813037905145578 25.813037905145578 25.813037905145578 25.813037905145578 25.813037905145578 25.813037905145578 25.813037905145578 25.813037905145578 25.813037905145578 25.813037905145578 25.813037905145578 25.813037905145578 25.813037905145578 25.813037905145578 25.813037905145578 25.813037905145578 25.813037905145578 25.813037905145578 25.813037905145578 25.813037905145578 25.813037905145578 25.813037905145578 25.813037905145578 25.813037905145578 25.813037905145578 25.813037905145578 25.813037905145578 25.813037905145578 25.813037905145578 25.813037905145578 25.813037905145578 25.813037905145578 25.813037905145578 25.813037905145578 25.813037905145578 25.813037905145578 25.791063907709212 25.791063907709212 25.813037905145578 25.813037905145578 25.813037905145578 25.791063907709212 25.813037905145578 25.813037905145578 25.791063907709212 25.791063907709212 25.813037905145578 25.813037905145578 25.813037905145578 25.835011902581943 25.878959897454678 25.944881889763778 26.164621864127447 26.36238784105475 26.58212781541842 26.867789782091194 27.10950375389123 27.527009705182202 28.16425563083684 28.53781358725508 29.109137520600623 29.504669474455227 29.9221754257462 30.44955136421901 30.845083318073613 31.59219923091009 32.14154916681926 32.53708112067387 33.020509064273945 33.438015015564915 33.83354696941952 34.27302691814686 34.55868888481963 35.10803882072881 35.37172678996521 35.67936275407435 36.09686870536532 36.58029664896539 37.019776597692726 37.34938655923823 37.67899652078374 38.20637245925654 38.75572239516572 39.5028383080022 40.052188243911374 40.42574620032961 40.79930415674785 41.19483611060245 41.78813404138436 42.35945797472991 42.97472990294818 43.370261856802784 44.18329976194836 44.40303973631203 44.97436366965757 45.52371360556674 45.919245559421356 46.71030946713056 46.93004944149423 47.69913935176707 48.13861930049441 48.57809924922175 49.12744918513093 49.808643105658305 50.270097051822006 50.97326496978575 51.8082768723677 52.57736678264054 53.104742721113354 54.00567661600439 54.84068851858634 55.43398644936825 56.33492034425929 57.21388024171397 57.80717817249588 58.70811206738693 59.54312396996887 60.180369895623514 60.97143380333272 61.7844717084783 62.33382164438748 63.256729536714886 63.696209485442225 64.4433253982787 65.41018128547884 65.91558322651528 66.39901117011536 67.05823109320637 67.51968503937007 68.17890496246109 68.8381248855521 69.51931880607947 70.22248672404322 70.68394067020692 71.3651345907343 71.91448452664348 72.52975645486175 73.2329243728255 73.71635231642557 74.68320820362571 75.18861014466215 75.86980406518953 76.83665995238968 77.18824391137156 77.69364585240798 78.26496978575352 78.7483977293536 79.45156564731734 80.41842153451748 80.90184947811755 81.62699139351767 82.35213330891779 82.8135872550815 83.31898919611793 83.75846914484526 84.57150704999086 85.18677897820913 85.56033693462736 86.10968687053654 86.48324482695477 87.01062076542757 87.51602270646401 88.06537264237319 88.37300860648233 88.83446255264604 89.16407251419155 89.58157846548252 90.10895440395532 90.28474638344626 90.5923823475554 90.81212232191906 91.09778428859184 91.3175242629555 91.51529023988282 91.64713422450102 91.73503021424648 91.8449002014283 91.86687419886468 91.86687419886468 91.88884819630104 91.91082219373742 91.88884819630104 91.88884819630104 91.8449002014283 91.73503021424648 91.66910822193738 91.5812122321919 91.3834462552646 91.1197582860282 90.87804431422816 90.57040835011902 90.35066837575536 89.97711041933712 89.77934444240981 89.55960446804615 89.0542025270097 88.76854056033693 88.43893059879144 87.80168467313679 87.45010071415491 86.9227247756821 86.54916681926387 85.95586888848196 85.31862296282733 84.74729902948178 84.28584508331807 83.6046511627907 83.12122321919063 82.35213330891779 81.58304339864495 81.03369346273576 80.15473356528108 79.25379967039004 78.70444973448086 77.82548983702618 77.25416590368064 76.46310199597144 75.60611609595313 75.03479216260759 74.19978026002565 73.32082036257097 72.4198864676799 71.4310565830434 70.74986266251602 69.78300677531587 69.1018128547885 68.02508698040651 66.99230910089727 66.28914118293352 64.9047793444424 64.22358542391504 63.542391503387655 62.57553561618751 61.63065372642373 61.03735579564182 60.136421900750776 59.56509796740524 58.68613806995056 57.63138619300494 56.9941402673503 56.400842336568395 55.65372642373192 55.08240249038637 54.24739058780443 53.390404687786116 52.62131477751328 51.85222486724043 51.39077092107672 50.73155099798572 50.40194103644021 49.808643105658305 49.2153451748764 48.79783922358543 48.18256729536715 47.61124336202161 47.215711408167 46.402673503021425 45.919245559421356 45.50173960813038 44.79857169016664 44.33711774400293 43.765793810657385 42.996703900384546 42.53524995422084 41.98590001831167 41.39260208752975 41.17286211316609 40.601538179820544 40.206006225965936 39.458890313129466 38.88756637978392 38.51400842336568 38.03058047976561 37.54715253616554 37.28346456692913 36.997802600256364 36.668192638710856 36.470426661783556 36.14081670023805 35.921076725874386 35.56949276689251 35.19593481047427 34.95422083867423 34.55868888481963 34.29500091558323 33.96539095403772 33.635780992492215 33.32814502838308 33.086431056583045 32.91063907709211 32.75682109503754 32.55905511811024 32.2514191540011 32.07562717451016 31.81193920527376 31.636147225782825 31.37245925654642 31.196667277055482 31.020875297564547 30.713239333455412 30.51547335652811 30.273759384728073 30.032045412928035 29.8562534334371 29.61453946163706 29.460721479582496 29.240981505218826 29.065189525727888 28.933345541109688 28.735579564182384 28.47189159494598 28.34004761032778 28.142281633400476 28.010437648782275 27.790697674418606 27.636879692364037 27.417139718000367 27.241347738509432 27.04358176158213 26.845815784654825 26.713971800036624 26.691997802600255 26.648049807727524 26.60410181285479 26.60410181285479 26.58212781541842 26.560153817982055 26.560153817982055 26.538179820545686 26.538179820545686 26.538179820545686 26.538179820545686 26.51620582310932 26.51620582310932 26.472257828236586 26.45028383080022 26.42830983336385 26.406335835927486 26.38436183849112 26.36238784105475 26.340413843618386 26.318439846182017 26.318439846182017 26.29646584874565 26.252517853872916 26.252517853872916 26.208569859000182 26.186595861563816 26.164621864127447 26.14264786669108 26.14264786669108 26.14264786669108 26.120673869254716 26.120673869254716 26.120673869254716 26.120673869254716 26.120673869254716 26.120673869254716 26.098699871818347 26.098699871818347 26.07672587438198 26.07672587438198 26.054751876945616 26.054751876945616 26.054751876945616 26.054751876945616 26.032777879509247 26.032777879509247 26.032777879509247 26.032777879509247 26.01080388207288 26.01080388207288 25.988829884636512 25.966855887200147 25.966855887200147 25.944881889763778 25.944881889763778 25.922907892327412 25.922907892327412 25.922907892327412 25.922907892327412 25.922907892327412 25.922907892327412 25.922907892327412 25.922907892327412 25.922907892327412 25.922907892327412 25.944881889763778 25.944881889763778 25.944881889763778 25.922907892327412 25.922907892327412 25.944881889763778 25.944881889763778 25.944881889763778 25.944881889763778 25.944881889763778 25.922907892327412 25.922907892327412 25.944881889763778 25.944881889763778 25.922907892327412 25.922907892327412 25.922907892327412 25.922907892327412 25.922907892327412 25.922907892327412 25.944881889763778 25.922907892327412 25.922907892327412 25.922907892327412 25.922907892327412 25.922907892327412 25.922907892327412 25.944881889763778 25.944881889763778 25.944881889763778 25.944881889763778 25.944881889763778 25.944881889763778 25.944881889763778 25.922907892327412 25.922907892327412 25.922907892327412 25.944881889763778 25.922907892327412 25.922907892327412 25.922907892327412 25.944881889763778 25.922907892327412 25.944881889763778 25.922907892327412 25.922907892327412 25.922907892327412 25.922907892327412 25.922907892327412 25.922907892327412 25.922907892327412 25.922907892327412 25.922907892327412 25.922907892327412 25.922907892327412 25.922907892327412 25.900933894891047 25.922907892327412 25.900933894891047 25.900933894891047 25.900933894891047 25.900933894891047 25.900933894891047 25.900933894891047 25.900933894891047 25.900933894891047 25.922907892327412 25.900933894891047 25.900933894891047 25.900933894891047 25.900933894891047 25.922907892327412 25.900933894891047 25.900933894891047 25.900933894891047 25.922907892327412 25.900933894891047 25.900933894891047 25.900933894891047 25.900933894891047 25.900933894891047 25.922907892327412 25.900933894891047 25.900933894891047 25.900933894891047 25.922907892327412 25.900933894891047 25.922907892327412 25.900933894891047 25.922907892327412 25.922907892327412 25.900933894891047 25.922907892327412 25.922907892327412 25.900933894891047 25.900933894891047 25.922907892327412 25.922907892327412 25.900933894891047 25.900933894891047 25.922907892327412 25.922907892327412 25.922907892327412 25.900933894891047 25.900933894891047 25.900933894891047 25.922907892327412 25.900933894891047 25.922907892327412 25.922907892327412 25.922907892327412 25.900933894891047 25.900933894891047 25.900933894891047 25.922907892327412 25.922907892327412 25.922907892327412 25.922907892327412 25.900933894891047 25.900933894891047 25.900933894891047 25.900933894891047 25.922907892327412 25.922907892327412 25.922907892327412 25.922907892327412 25.922907892327412 25.922907892327412 25.900933894891047 25.900933894891047 25.922907892327412 25.922907892327412 25.922907892327412 25.922907892327412 25.922907892327412 25.922907892327412 25.922907892327412 25.922907892327412 25.922907892327412 25.900933894891047 25.922907892327412 25.900933894891047 25.922907892327412 25.922907892327412 25.922907892327412 25.922907892327412 25.922907892327412 25.922907892327412 25.922907892327412 25.922907892327412 25.922907892327412 25.922907892327412 25.922907892327412 25.922907892327412 25.922907892327412 25.900933894891047 25.922907892327412 25.922907892327412 25.900933894891047 25.900933894891047 25.900933894891047 25.900933894891047 25.878959897454678 25.878959897454678 25.856985900018312 25.856985900018312 25.856985900018312 25.856985900018312 25.856985900018312 25.878959897454678 25.856985900018312 25.878959897454678 25.856985900018312 25.856985900018312 25.856985900018312 25.856985900018312 25.856985900018312 25.856985900018312 25.856985900018312 25.856985900018312 25.878959897454678 25.856985900018312 25.856985900018312 25.856985900018312 25.856985900018312 25.878959897454678 25.856985900018312 25.878959897454678 25.878959897454678 25.878959897454678 25.900933894891047 25.966855887200147 26.098699871818347 26.472257828236586 26.757919794909355 27.307269730818533 27.68082768723677 28.12030763596411 29.109137520600623 29.680461453946165 30.36165537447354 31.15271928218275 31.94378318989196 32.69089910272844 32.998535066837576 33.74565097967405 34.47079289507416 34.9761948361106 35.63541475920161 36.492400659219925 36.909906610510895 37.327412561801864 37.8328145028383 38.22834645669291 38.79967039003846 39.39296832082036 39.810474272111335 40.33785021058414 40.71140816700238 41.45852407983885 41.78813404138436 42.0957700054935 42.62314594396631 43.106573887566384 43.54605383629372 44.02948177989379 44.33711774400293 44.84251968503937 45.21607764145761 45.72147958249405 46.248855520966856 46.64438747482146 47.23768540560337 47.85295733382164 48.27046328511261 48.88573521333089 49.52298113898553 49.984435085149244 50.665629005676614 51.149056949276684 52.11591283647684 52.797106757004215 53.280534700604285 53.67606665445889 54.79674052371361 55.23622047244095 55.74162241347739 56.247024354513826 56.906244277604834 57.85112616736861 58.24665812122322 58.79600805713239 59.47720197765977 59.938655923823475 60.641823841787215 61.10327778795092 61.82841970335103 62.53158762131478 63.036989562351216 64.02581944698773 64.35542940853324 65.34425929316976 65.87163523164256 66.42098516755172 67.1681010803882 68.17890496246109 68.72825489837027 69.4973448086431 70.04669474455227 70.61801867789782 71.34316059329794 72.11225050357078 72.8373924189709 73.58450833180737 74.08991027284381 75.03479216260759 75.27650613440761 75.97967405237137 76.63889397546237 77.10034792162608 77.75956784471708 78.44076176524446 78.96813770371728 79.58340963193555 80.28657754989928 80.77000549349935 81.42922541659037 81.89067936275407 82.57187328328145 83.23109320637246 83.91228712689984 84.57150704999086 85.03296099615454 85.71415491668193 86.15363486540927 86.63706280900934 87.49404870902765 88.17524262955503 88.68064457059147 89.36183849111885 90.04303241164622 90.52646035524629 91.1197582860282 91.55923823475554 92.15253616553744 92.94360007324666 93.33913202710126 93.75663797839223 94.28401391686505 94.78941585790149 95.11902581944699 95.42666178355613 95.86614173228347 96.28364768357443 96.52536165537448 96.87694561435634 96.98681560153818 97.11865958615638 97.16260758102912 97.18458157846548 97.20655557590185 97.20655557590185 97.20655557590185 97.18458157846548 97.09668558872002 96.92089360922908 96.5033876579381 96.28364768357443 95.84416773484709 95.44863578099249 94.83336385277421 94.13019593481047 93.6467679912104 92.63596410913752 92.08661417322836 91.49331624244644 90.65830433986449 89.77934444240981 88.87841054751877 88.19721662699139 87.36220472440945 86.43929683208204 85.58231093206373 84.98901300128182 84.11005310382714 83.23109320637246 82.41805530122689 81.86870536531771 81.31935542940855 80.55026551913569 79.82512360373559 79.25379967039004 78.57260574986266 78.02325581395348 77.29811389855337 76.26533601904413 75.73796008057133 75.14466214978941 74.39754623695293 73.84819630104377 72.74949642922542 72.17817249587988 71.2992125984252 70.42025270097052 69.80498077275224 68.88207288042483 67.95916498809743 67.29994506500641 66.35506317524263 65.73979124702436 64.83885735213332 63.93792345724226 63.322651529023986 62.18000366233291 61.34499175975096 61.03735579564182 60.246291887932614 59.718915949459806 58.8619300494415 57.63138619300494 57.104010254532135 56.598608313495696 55.89544039553195 55.54385643655009 54.88463651345907 54.11554660318623 53.346456692913385 52.57736678264054 52.006042849295 51.19300494414942 50.62168101080388 49.852591100531036 48.77586522614906 48.16059329793078 47.58926936458524 46.86412744918513 46.314777513275956 45.58963559787585 44.90844167734847 44.44698773118476 43.91961179271196 43.54605383629372 43.01867789782091 42.42537996703901 42.1616919978026 41.74418604651163 41.45852407983885 41.19483611060245 40.93114814136605 40.62351217725691 40.29390221571141 39.964292254165905 39.744552279802235 39.41494231825673 39.15125434902033 38.75572239516572 38.38216443874748 38.09650247207471 37.74491851309284 37.34938655923823 37.041750595129095 36.602270646401756 36.294634682292624 35.67936275407435 35.34975279252884 35.02014283098333 34.53671488738326 33.98736495147409 33.877494964292254 33.39406702069218 33.130379051455776 32.800769089910276 32.581029115546606 32.29536714887384 32.03167917963743 31.81193920527376 31.68009522065556 31.482329243728255 31.37245925654642 31.174693279619117 30.976927302691813 30.823109320637247 30.603369346273574 30.405603369346274 30.14191540010987 29.834279436000735 29.63651345907343 29.350851492400658 29.065189525727888 28.889397546236953 28.603735579564184 28.34004761032778 28.076359641091376 27.834645669291337 27.658853689800402 27.417139718000367 27.153451748763963 26.999633766709394 26.779893792345725 26.67002380516389 26.538179820545686 26.51620582310932 26.472257828236586 26.45028383080022 26.45028383080022 26.42830983336385 26.42830983336385 26.406335835927486 26.406335835927486 26.406335835927486 26.38436183849112 26.38436183849112 26.36238784105475 26.36238784105475 26.340413843618386 26.318439846182017 26.318439846182017 26.274491851309286 26.252517853872916 26.23054385643655 26.208569859000182 26.186595861563816 26.14264786669108 26.120673869254716 26.098699871818347 26.054751876945616 26.054751876945616 26.032777879509247 26.032777879509247 26.032777879509247 26.032777879509247 26.032777879509247 26.032777879509247 26.032777879509247 26.032777879509247 26.032777879509247 26.032777879509247 26.01080388207288 26.01080388207288 26.01080388207288 25.988829884636512 26.01080388207288 26.01080388207288 25.988829884636512 25.988829884636512 25.988829884636512 26.01080388207288 25.988829884636512 25.988829884636512 25.988829884636512 25.988829884636512 25.966855887200147 25.966855887200147 25.966855887200147 25.966855887200147 25.944881889763778 25.944881889763778 25.944881889763778 25.944881889763778 25.922907892327412 25.922907892327412 25.922907892327412 25.922907892327412 25.922907892327412 25.922907892327412 25.922907892327412 25.922907892327412 25.922907892327412 25.922907892327412 25.922907892327412 25.922907892327412 25.922907892327412 25.922907892327412 25.922907892327412 25.922907892327412 25.922907892327412 25.922907892327412 25.922907892327412 25.922907892327412 25.900933894891047 25.922907892327412 25.922907892327412 25.922907892327412 25.900933894891047 25.900933894891047 25.900933894891047 25.900933894891047 25.900933894891047 25.900933894891047 25.900933894891047 25.900933894891047 25.922907892327412 25.900933894891047 25.922907892327412 25.900933894891047 25.922907892327412 25.922907892327412 25.922907892327412 25.922907892327412 25.922907892327412 25.922907892327412 25.900933894891047 25.900933894891047 25.900933894891047 25.900933894891047 25.900933894891047 25.900933894891047 25.900933894891047 25.900933894891047 25.900933894891047 25.900933894891047 25.922907892327412 25.900933894891047 25.900933894891047 25.900933894891047 25.900933894891047 25.900933894891047 25.900933894891047 25.900933894891047 25.900933894891047 25.900933894891047 25.900933894891047 25.900933894891047 25.900933894891047 25.900933894891047 25.900933894891047 25.900933894891047 25.900933894891047 25.900933894891047 25.900933894891047 25.900933894891047 25.900933894891047 25.900933894891047 25.900933894891047 25.900933894891047 25.900933894891047 25.900933894891047 25.900933894891047 25.900933894891047 25.900933894891047 25.900933894891047 25.900933894891047 25.900933894891047 25.900933894891047 25.900933894891047 25.900933894891047 25.900933894891047 25.900933894891047 25.900933894891047 25.900933894891047 25.900933894891047 25.900933894891047 25.900933894891047 25.900933894891047 25.900933894891047 25.878959897454678 25.900933894891047 25.900933894891047 25.900933894891047 25.900933894891047 25.900933894891047 25.900933894891047 25.900933894891047 25.900933894891047 25.900933894891047 25.900933894891047 25.900933894891047 25.900933894891047 25.900933894891047 25.900933894891047 25.900933894891047 25.900933894891047 25.900933894891047 25.900933894891047 25.900933894891047 25.900933894891047 25.878959897454678 25.900933894891047 25.900933894891047 25.878959897454678 25.900933894891047 25.878959897454678 25.900933894891047 25.900933894891047 25.900933894891047 25.878959897454678 25.900933894891047 25.900933894891047 25.900933894891047 25.878959897454678 25.900933894891047 25.878959897454678 25.900933894891047 25.900933894891047 25.900933894891047 25.900933894891047 25.900933894891047 25.900933894891047 25.900933894891047 25.922907892327412 25.922907892327412 25.966855887200147 26.032777879509247 26.14264786669108 26.274491851309286 26.494231825672955 26.691997802600255 27.04358176158213 27.417139718000367 27.68082768723677 28.076359641091376 28.49386559238235 28.91137154367332 29.372825489837027 29.70243545138253 30.054019410364404 30.559421351400843 30.932979307819082 31.50430324116462 32.49313312580114 32.75682109503754 33.32814502838308 33.723676982237684 34.31697491301959 34.7125068668742 35.28383080021974 35.89910272843802 36.316608679728986 36.909906610510895 37.5032045412928 37.89873649514741 38.64585240798389 38.99743636696576 39.370994323384 39.8324482695477 40.206006225965936 40.97509613623878 41.56839406702069 41.98590001831167 42.57919794909357 42.996703900384546 43.392235854239146 44.05145577733016 44.53488372093023 45.50173960813038 46.292803515839594 46.842153451748764 47.67716535433071 48.29243728254899 49.105475187694566 49.89653909540377 50.379967039003844 51.28090093389489 51.7423548800586 52.2697308185314 53.03882072880425 53.851858633949824 54.42318256729537 55.12635048525911 55.67570042116829 56.51071232375023 57.36769822376854 57.98297015198681 59.0596960263688 59.674967954587075 60.158395898187145 61.05932979307819 61.87236769822377 62.50961362387841 63.652261490569494 64.70701336751512 65.34425929316976 66.39901117011536 67.12415308551547 68.20087895989745 68.90404687786119 70.00274674967955 71.12342061893426 71.91448452664348 72.88134041384362 73.8921442959165 74.83702618568029 75.43032411646219 76.04559604468047 76.8806079472624 78.2210217908808 78.81431972166271 79.34169566013551 79.84709760117195 80.33052554477202 80.87987548068119 81.53909540377221 82.19831532686322 82.87950924739059 83.3409631935543 84.0661051089544 84.5275590551181 85.09888298846366 85.95586888848196 86.41732283464567 87.12049075260941 87.82365867057317 88.37300860648233 89.31789049624611 89.86724043215528 90.39461637062809 91.03186229628274 91.75700421168284 92.19648416041018 93.03149606299212 93.4490020142831 94.04229994506501 94.43783189891961 94.83336385277421 95.29481779893793 95.80021973997437 96.26167368613807 96.67917963742904 96.92089360922908 97.27247756821096 97.49221754257462 97.75590551181102 97.93169749130196 98.08551547335652 98.26130745284746 98.41512543490204 98.48104742721114 98.65683940670206 98.72276139901118 98.81065738875664 98.85460538362938 98.89855337850211 98.92052737593848 98.94250137337484 98.9644753708112 98.98644936824758 99.00842336568394 98.92052737593848 98.78868339132028 98.59091741439298 98.15143746566564 97.77787950924738 97.47024354513825 96.94286760666544 96.54733565281084 95.9100897271562 95.16297381431973 94.65757187328327 93.95440395531953 93.1853140450467 92.723860098883 91.91082219373742 91.00988829884636 90.10895440395532 89.40578648599158 88.81248855520967 87.73576268082769 87.01062076542757 85.62625892693646 84.63742904229994 83.802417139718 82.8135872550815 82.19831532686322 81.18751144479035 80.17670756271745 79.49551364219008 78.46273576268084 77.45193188060796 76.79271195751694 75.75993407800769 74.66123420618933 73.84819630104377 72.63962644204358 71.78264054202528 70.50814869071598 69.25563083684307 67.93719099066105 66.61875114447903 65.78373924189708 64.97070133675152 63.67423548800586 62.35579564182384 61.12525178538729 59.41127998535067 58.97180003662333 57.82915216993224 57.060062259659404 56.09320637245926 55.12635048525911 54.48910455960447 53.566196667277055 52.62131477751328 51.98406885185864 51.01721296465848 50.028383080021975 49.43508514924007 48.66599523896723 48.13861930049441 47.50137337483977 46.556491485075995 46.09503753891229 45.67753158762132 44.84251968503937 44.64475370811206 44.05145577733016 43.45815784654825 42.90880791063908 42.35945797472991 41.98590001831167 41.48049807727523 41.084966123420614 40.535616187511444 39.964292254165905 39.590734297747666 39.08533235671123 38.47006042849295 38.16242446438381 37.72294451565647 37.4372825489837 36.997802600256364 36.712140633583594 36.404504669474456 36.00897271561985 35.43764878227431 35.17396081303791 34.7784288591833 34.53671488738326 34.27302691814686 33.943416956601354 33.61380699505585 33.306171030946714 32.998535066837576 32.778795092473906 32.47115912836477 32.2514191540011 31.94378318989196 31.65812122321919 31.43838124885552 31.174693279619117 30.86705731550998 30.647317341146312 30.20783739241897 29.9880974180553 29.680461453946165 29.41677348470976 29.219007507782457 29.043215528291523 28.69163156930965 28.515839589818714 28.208203625709576 28.05438564365501 27.944515656473172 27.790697674418606 27.614905694927668 27.417139718000367 27.219373741073063 27.10950375389123 26.933711774400294 26.82384178721846 26.67002380516389 26.560153817982055 26.51620582310932 26.494231825672955 26.472257828236586 26.494231825672955 26.472257828236586 26.472257828236586 26.45028383080022 26.42830983336385 26.406335835927486 26.36238784105475 26.340413843618386 26.318439846182017 26.274491851309286 26.252517853872916 26.208569859000182 26.186595861563816 26.164621864127447 26.120673869254716 26.098699871818347 26.07672587438198 26.054751876945616 26.032777879509247 26.032777879509247 26.01080388207288 26.01080388207288 26.01080388207288 26.01080388207288 26.01080388207288 25.988829884636512 25.988829884636512 25.988829884636512 25.988829884636512 25.988829884636512 25.988829884636512 25.988829884636512 25.966855887200147 25.966855887200147 25.966855887200147 25.966855887200147 25.966855887200147 25.944881889763778 25.966855887200147 25.944881889763778 25.944881889763778 25.944881889763778 25.944881889763778 25.944881889763778 25.944881889763778 25.944881889763778 25.944881889763778 25.944881889763778 25.944881889763778 25.922907892327412 25.922907892327412 25.922907892327412 25.922907892327412 25.900933894891047 25.922907892327412 25.900933894891047 25.900933894891047 25.900933894891047 25.922907892327412 25.922907892327412 25.922907892327412 25.900933894891047 25.900933894891047 25.922907892327412 25.922907892327412 25.900933894891047 25.900933894891047 25.922907892327412 25.900933894891047 25.922907892327412 25.900933894891047 25.900933894891047 25.900933894891047 25.900933894891047 25.900933894891047 25.900933894891047 25.922907892327412 25.900933894891047 25.900933894891047 25.900933894891047 25.900933894891047 25.900933894891047 25.900933894891047 25.900933894891047 25.900933894891047 25.900933894891047 25.922907892327412 25.900933894891047 25.900933894891047 25.900933894891047 25.900933894891047 25.900933894891047 25.922907892327412 25.900933894891047 25.922907892327412 25.900933894891047 25.900933894891047 25.900933894891047 25.922907892327412 25.922907892327412 25.900933894891047 25.900933894891047 25.900933894891047 25.900933894891047 25.922907892327412 25.900933894891047 25.900933894891047 25.900933894891047 25.900933894891047 25.922907892327412 25.900933894891047 25.900933894891047 25.922907892327412 25.922907892327412 25.922907892327412 25.900933894891047 25.900933894891047 25.922907892327412 25.922907892327412 25.900933894891047 25.922907892327412 25.922907892327412 25.900933894891047 25.900933894891047 25.900933894891047 25.900933894891047 25.900933894891047 25.900933894891047 25.900933894891047 25.900933894891047 25.922907892327412 25.900933894891047 25.900933894891047 25.900933894891047 25.922907892327412 25.900933894891047 25.900933894891047 25.900933894891047 25.900933894891047 25.900933894891047 25.900933894891047 25.922907892327412 25.900933894891047 25.922907892327412 25.900933894891047 25.922907892327412 25.900933894891047 25.900933894891047 25.922907892327412 25.900933894891047 25.900933894891047 25.922907892327412 25.900933894891047 25.922907892327412 25.922907892327412 25.900933894891047 25.900933894891047 25.922907892327412 25.922907892327412 25.900933894891047 25.900933894891047 25.900933894891047 25.900933894891047 25.900933894891047 25.900933894891047 25.900933894891047 25.900933894891047 25.900933894891047 25.900933894891047 25.900933894891047 25.900933894891047 25.900933894891047 25.900933894891047 25.900933894891047 25.900933894891047 25.900933894891047 25.900933894891047 25.900933894891047 25.900933894891047 25.900933894891047 25.900933894891047 25.900933894891047 25.900933894891047 25.900933894891047 25.900933894891047 25.900933894891047 25.900933894891047 25.900933894891047 25.900933894891047 25.900933894891047 25.900933894891047 25.900933894891047 25.900933894891047 25.900933894891047 25.900933894891047 25.900933894891047 25.900933894891047 25.900933894891047 25.900933894891047 25.900933894891047 25.900933894891047 25.900933894891047 25.900933894891047 25.900933894891047 25.900933894891047 25.900933894891047 25.900933894891047 25.900933894891047 25.900933894891047 25.900933894891047 25.900933894891047 25.900933894891047 25.900933894891047 25.900933894891047 25.922907892327412 25.922907892327412 25.922907892327412 25.944881889763778 25.988829884636512 26.032777879509247 26.098699871818347 26.208569859000182 26.29646584874565 26.45028383080022 26.60410181285479 26.757919794909355 26.97765976927303 27.263321735945798 27.439113715436733 27.790697674418606 28.09833363852774 28.669657571873284 28.999267533418788 29.372825489837027 29.9221754257462 30.647317341146312 31.020875297564547 31.636147225782825 32.09760117194653 32.95458707196484 33.152353048892145 33.767624977110415 34.40487090276506 35.0421168284197 35.48159677714705 36.16279069767442 36.58029664896539 37.21754257462003 37.74491851309284 38.11847646951108 38.64585240798389 38.97546236952939 39.5028383080022 40.227980223402305 40.645486174693275 41.06299212598425 41.59036806445706 41.98590001831167 42.60117194652994 43.194469877311846 43.787767808093754 44.40303973631203 44.84251968503937 45.50173960813038 45.985167551730456 46.64438747482146 47.36952939022157 47.94085332356711 48.66599523896723 49.45705914667643 49.962461087712875 51.25892693645852 51.83025086980406 52.40157480314961 53.412378685222485 53.54422266984069 54.24739058780443 55.65372642373192 55.93938839040469 56.796374290423 57.47756821095037 58.00494414942318 58.9278520417506 59.521149972532506 60.729719831532684 61.60867972898736 62.22395165720564 63.146859549533055 63.80607947262406 64.66306537264236 65.65189525727888 66.3111151803699 67.25599707013367 68.22285295733383 68.90404687786119 69.84892876762498 71.167368613807 71.84856253433438 72.52975645486175 73.14502838308002 73.91411829335286 74.74913019593481 75.62809009338949 76.39718000366233 77.21021790880792 77.73759384728072 78.26496978575352 79.05603369346274 79.58340963193555 80.52829152169933 81.0776414576085 81.75883537813587 82.26423731917231 83.01135323200879 83.75846914484526 84.24189708844534 84.94506500640908 85.64823292437282 86.15363486540927 86.74693279619117 87.12049075260941 87.53799670390038 88.19721662699139 88.70261856802784 89.33986449368247 90.57040835011902 90.7901483244827 91.49331624244644 91.93279619117378 92.35030214246476 92.87767808093756 93.33913202710126 93.80058597326497 94.17414392968321 94.43783189891961 94.76744186046513 94.96520783739241 95.18494781175609 95.44863578099249 95.58047976561069 95.71232375022889 95.778245742538 95.778245742538 95.778245742538 95.778245742538 95.71232375022889 95.44863578099249 95.40468778611975 95.11902581944699 94.56967588353781 94.10822193737411 93.7786119758286 93.383080021974 92.87767808093756 92.32832814502838 91.91082219373742 91.27357626808276 90.57040835011902 89.95513642190075 88.9882805347006 88.7245925654642 88.13129463468229 87.58194469877311 86.87877678080937 86.3953488372093 85.71415491668193 85.23072697308186 84.28584508331807 83.802417139718 82.8135872550815 82.33015931148142 82.02252334737227 81.34132942684491 80.61618751144479 79.91301959348105 79.23182567295368 78.46273576268084 77.86943783189892 77.276139901117 76.66086797289874 75.71598608313496 75.12268815235305 74.22175425746201 73.25489837026186 72.57370444973449 70.88170664713422 70.59604468046146 69.78300677531587 68.7062809009339 67.93719099066105 66.86046511627907 65.78373924189708 64.641091375206 63.652261490569494 62.94909357260575 62.35579564182384 61.49880974180553 60.90551181102362 59.69694195202344 58.83995605200513 58.24665812122322 57.389672221204904 56.77440029298663 56.09320637245926 55.30214246475005 54.75279252884087 53.720014649331624 53.214612708295185 52.731184764695115 51.98406885185864 50.95129097234938 50.42391503387658 49.91851309284014 49.39113715436733 48.64402124153085 47.94085332356711 47.50137337483977 46.402673503021425 46.00714154916682 45.76542757736678 45.21607764145761 44.66672770554844 43.80974180553012 43.370261856802784 42.88683391320271 42.13971800036623 41.43655008240249 40.93114814136605 40.27192821827504 39.854422266984066 39.26112433620216 38.73374839772936 38.40413843618385 37.96465848745651 37.67899652078374 37.261490569492764 36.843984618201794 36.536348654092656 36.184764695110786 35.67936275407435 35.39370078740157 35.10803882072881 34.53671488738326 34.36092290789233 33.98736495147409 33.591832997619484 33.152353048892145 32.932613074528476 32.778795092473906 32.53708112067387 32.3832631386193 32.16352316425563 31.987731184764694 31.833913202710125 31.65812122321919 31.46035524629189 31.328511261673686 31.020875297564547 30.86705731550998 30.691265336019043 30.383629371909905 30.20783739241897 30.032045412928035 29.790331441127996 29.460721479582496 29.306903497527927 29.109137520600623 28.84544955136422 28.69163156930965 28.449917597509614 28.230177623145945 28.05438564365501 27.922541659036806 27.74674967954587 27.614905694927668 27.395165720564 27.307269730818533 27.197399743636698 27.065555759018494 26.911737776963925 26.80186778978209 26.626075810291155 26.58212781541842 26.51620582310932 26.494231825672955 26.45028383080022 26.42830983336385 26.36238784105475 26.340413843618386 26.318439846182017 26.29646584874565 26.252517853872916 26.23054385643655 26.186595861563816 26.164621864127447 26.14264786669108 26.120673869254716 26.07672587438198 26.054751876945616 26.032777879509247 25.988829884636512 25.988829884636512 25.944881889763778 25.922907892327412 25.900933894891047 25.878959897454678 25.878959897454678 25.856985900018312 25.856985900018312 25.856985900018312 25.856985900018312 25.835011902581943 25.835011902581943 25.813037905145578 25.813037905145578 25.813037905145578 25.813037905145578 25.791063907709212 25.769089910272843 25.769089910272843 25.769089910272843 25.769089910272843 25.747115912836477 25.747115912836477 25.747115912836477 25.747115912836477 25.747115912836477 25.769089910272843 25.747115912836477 25.747115912836477 25.747115912836477 25.747115912836477 25.747115912836477 25.747115912836477 25.747115912836477 25.72514191540011 25.72514191540011 25.72514191540011 25.72514191540011 25.72514191540011 25.703167917963743 25.703167917963743 25.703167917963743 25.703167917963743 25.703167917963743 25.703167917963743 25.703167917963743 25.681193920527377 25.703167917963743 25.703167917963743 25.703167917963743 25.703167917963743 25.681193920527377 25.681193920527377 25.681193920527377 25.681193920527377 25.681193920527377 25.65921992309101 25.65921992309101 25.65921992309101 25.65921992309101 25.65921992309101 25.65921992309101 25.65921992309101 25.65921992309101 25.65921992309101 25.65921992309101 25.65921992309101 25.65921992309101 25.65921992309101 25.65921992309101 25.65921992309101 25.637245925654643 25.637245925654643 25.65921992309101 25.65921992309101 25.65921992309101 25.637245925654643 25.65921992309101 25.65921992309101 25.637245925654643 25.65921992309101 25.65921992309101 25.65921992309101 25.637245925654643 25.637245925654643 25.637245925654643 25.637245925654643 25.65921992309101 25.65921992309101 25.637245925654643 25.637245925654643 25.637245925654643 25.637245925654643 25.637245925654643 25.637245925654643 25.637245925654643 25.637245925654643 25.637245925654643 25.637245925654643 25.637245925654643 25.637245925654643 25.637245925654643 25.637245925654643 25.65921992309101 25.637245925654643 25.637245925654643 25.637245925654643 25.637245925654643 25.65921992309101 25.637245925654643 25.637245925654643 25.637245925654643 25.637245925654643 25.637245925654643 25.637245925654643 25.637245925654643 25.637245925654643 25.637245925654643 25.637245925654643 25.637245925654643 25.637245925654643 25.637245925654643 25.637245925654643 25.637245925654643 25.637245925654643 25.637245925654643 25.637245925654643 25.637245925654643 25.637245925654643 25.637245925654643 25.637245925654643 25.637245925654643 25.637245925654643 25.637245925654643 25.637245925654643 25.637245925654643 25.637245925654643 25.637245925654643 25.65921992309101 25.637245925654643 25.637245925654643 25.637245925654643 25.637245925654643 25.637245925654643 25.637245925654643 25.637245925654643 25.637245925654643 25.637245925654643 25.637245925654643 25.637245925654643 25.637245925654643 25.637245925654643 25.637245925654643 25.637245925654643 25.637245925654643 25.637245925654643 25.637245925654643 25.637245925654643 25.637245925654643 25.637245925654643 25.637245925654643 25.637245925654643 25.637245925654643 25.637245925654643 25.637245925654643 25.637245925654643 25.637245925654643 25.637245925654643 25.637245925654643 25.637245925654643 25.637245925654643 25.637245925654643 25.637245925654643 25.637245925654643 25.637245925654643 25.637245925654643 25.637245925654643 25.637245925654643 25.637245925654643 25.637245925654643 25.637245925654643 25.637245925654643 25.637245925654643 25.637245925654643 25.637245925654643 25.637245925654643 25.637245925654643 25.637245925654643 25.637245925654643 25.637245925654643 25.637245925654643 25.637245925654643 25.637245925654643 25.615271928218274 25.637245925654643 25.637245925654643 25.615271928218274 25.615271928218274 25.615271928218274 25.615271928218274 25.615271928218274 25.615271928218274 25.615271928218274 25.615271928218274 25.615271928218274 25.615271928218274 25.615271928218274 25.615271928218274 25.615271928218274 25.615271928218274 25.615271928218274 25.615271928218274 25.637245925654643 25.637245925654643 25.637245925654643 25.637245925654643 25.65921992309101 25.681193920527377 25.72514191540011 25.791063907709212 25.856985900018312 25.988829884636512 26.14264786669108 26.274491851309286 26.494231825672955 26.648049807727524 26.911737776963925 27.197399743636698 27.373191723127633 27.636879692364037 27.922541659036806 28.076359641091376 28.427943600073245 28.515839589818714 28.77952755905512 28.955319538546053 29.372825489837027 29.54861746932796 29.812305438564366 30.097967405237135 30.42757736678264 30.845083318073613 31.328511261673686 31.855887200146494 32.20747115912837 32.734847097601175 33.086431056583045 33.525911005310384 33.98736495147409 34.40487090276506 34.82237685405603 35.10803882072881 35.45962277971068 35.81120673869255 36.14081670023805 36.778062625892694 37.2395165720564 37.5691265336019 38.05255447720198 38.47006042849295 38.84361838491119 39.305072331074896 39.8324482695477 40.35982420802051 41.10694012085699 41.52444607214796 41.89800402856619 42.27156198498443 42.68906793627541 43.238417872184584 43.655923823475554 44.24922175425746 44.86449368247574 45.50173960813038 46.117011536348656 46.534517487639626 47.10584142098517 47.43545138253067 47.80900933894891 48.33638527742171 49.08350119025819 49.52298113898553 50.094305072331075 50.73155099798572 51.12708295184032 51.76432887749496 52.18183482878594 52.841054751876946 54.24739058780443 54.31331258011353 54.86266251602271 56.09320637245926 56.532686321186596 57.104010254532135 57.63138619300494 58.18073612891412 58.9278520417506 59.433253982787036 60.444057864859914 60.94945980589635 61.45486174693279 62.22395165720564 62.773301593114816 63.586339498260394 64.70701336751512 65.30031129829702 66.13532320087896 67.05823109320637 67.40981505218824 68.46456692913387 69.03589086247939 69.8928767624977 70.70591466764328 71.27723860098882 72.11225050357078 72.66160043947995 73.6943783189892 74.22175425746201 74.77110419337117 75.54019410364401 76.37520600622597 76.92455594213514 78.00128181651712 78.44076176524446 79.07800769089911 79.80314960629921 80.30855154733565 81.2754074345358 81.80278337300861 82.26423731917231 83.23109320637246 83.75846914484526 84.3957150704999 84.87914301409998 85.51638893975462 86.17560886284564 86.70298480131844 87.09851675517305 87.58194469877311 88.10932063724593 88.74656656290057 89.55960446804615 90.13092840139169 90.9219923091009 91.69108221937374 92.3942501373375 92.8557040835012 93.29518403222853 94.13019593481047 94.54770188610145 94.96520783739241 96.01995971433803 96.3715436733199 96.72312763230178 97.33839956052005 97.49221754257462 97.82182750412012 98.01959348104744 98.3052554477202 98.52499542208386 98.65683940670206 98.832631386193 98.87657938106574 98.92052737593848 98.9644753708112 98.9644753708112 98.94250137337484 98.92052737593848 98.89855337850211 98.78868339132028 98.59091741439298 98.54696941952024 98.34920344259294 97.9756454861747 97.77787950924738 97.49221754257462 97.18458157846548 96.85497161691998 96.52536165537448 96.26167368613807 95.9100897271562 95.44863578099249 95.11902581944699 94.70151986815601 94.30598791430141 93.7786119758286 93.16334004761033 92.96557407068303 92.43819813221022 92.15253616553744 91.86687419886468 91.09778428859184 90.70225233473722 90.26277238600989 89.71342245010072 89.31789049624611 88.24116462186413 88.04339864493683 87.60391869620949 87.16443874748215 86.74693279619117 86.04376487822742 85.45046694744553 85.05493499359092 84.41768906793627 83.51675517304523 83.01135323200879 82.50595129097235 82.00054934993591 81.2754074345358 80.59421351400843 80.08881157297199 79.47353964475371 78.30891778062626 78.1550997985717 77.67167185497162 77.21021790880792 76.50704999084417 75.80388207288043 75.27650613440761 74.44149423182567 73.71635231642557 72.85936641640725 71.95843252151622 71.32118659586156 70.28840871635232 69.1018128547885 68.79417689067935 67.76139901117011 67.1681010803882 66.39901117011536 65.60794726240616 65.08057132393334 64.06976744186046 63.564365500824024 62.61948361106025 62.39974363669658 61.9163156930965 61.16919978026002 60.444057864859914 59.938655923823475 58.64219007507782 58.13678813404138 57.63138619300494 56.884270280168465 56.20307635964109 55.76359641091375 55.17029848013185 54.73081853140451 54.04962461087713 53.412378685222485 52.731184764695115 52.31367881340414 51.65445889031313 51.19300494414942 50.42391503387658 49.63285112616737 49.479033144112805 49.03955319538546 48.62204724409449 47.85295733382164 47.63321735945797 47.061893426112434 46.51254349020326 46.13898553378502 45.17212964658488 44.820545687603 44.4250137337484 43.91961179271196 43.61197582860282 43.172495879875484 42.88683391320271 42.44735396447537 41.98590001831167 41.34865409265702 41.19483611060245 40.645486174693275 40.29390221571141 39.612708295184035 39.26112433620216 38.93151437465666 38.47006042849295 38.18439846182018 37.65702252334737 37.28346456692913 37.041750595129095 36.646218641274494 36.404504669474456 36.118842702801686 35.72331074894708 35.34975279252884 34.9761948361106 34.6465848745651 34.40487090276506 34.141182933528654 33.943416956601354 33.701702984801315 33.48196301043765 33.350119025819446 33.108405054019414 32.91063907709211 32.778795092473906 32.55905511811024 32.40523713605567 32.33931514374657 32.14154916681926 31.987731184764694 31.767991210401025 31.57022523347372 31.30653726423732 31.08679728987365 30.801135323200878 30.691265336019043 30.42757736678264 30.163889397546235 29.834279436000735 29.570591466764327 29.372825489837027 29.19703351034609 28.933345541109688 28.75755356161875 28.49386559238235 28.296099615455045 27.944515656473172 27.790697674418606 27.614905694927668 27.417139718000367 27.131477751327594 27.065555759018494 26.95568577183666 26.88976377952756 26.88976377952756 26.867789782091194 26.88976377952756 26.933711774400294 26.95568577183666 26.95568577183666 26.95568577183666 26.911737776963925 26.82384178721846 26.691997802600255 26.58212781541842 26.538179820545686 26.472257828236586 26.42830983336385 26.38436183849112 26.38436183849112 26.36238784105475 26.340413843618386 26.340413843618386 26.340413843618386 26.340413843618386 26.340413843618386 26.318439846182017 26.29646584874565 26.274491851309286 26.274491851309286 26.274491851309286 26.274491851309286 26.252517853872916 26.23054385643655 26.208569859000182 26.164621864127447 26.098699871818347 26.032777879509247 25.988829884636512 25.944881889763778 25.922907892327412 25.878959897454678 25.835011902581943 25.813037905145578 25.791063907709212 25.791063907709212 25.769089910272843 25.769089910272843 25.769089910272843 25.769089910272843 25.769089910272843 25.769089910272843 25.769089910272843 25.769089910272843 25.747115912836477 25.747115912836477 25.747115912836477 25.747115912836477 25.747115912836477 25.72514191540011 25.72514191540011 25.72514191540011 25.72514191540011 25.72514191540011 25.72514191540011 25.72514191540011 25.72514191540011 25.72514191540011 25.72514191540011 25.72514191540011 25.72514191540011 25.72514191540011 25.72514191540011 25.72514191540011 25.703167917963743 25.703167917963743 25.703167917963743 25.703167917963743 25.681193920527377 25.681193920527377 25.681193920527377 25.681193920527377 25.681193920527377 25.681193920527377 25.681193920527377 25.681193920527377 25.681193920527377 25.681193920527377 25.681193920527377 25.65921992309101 25.65921992309101 25.637245925654643 25.637245925654643 25.615271928218274 25.615271928218274 25.615271928218274 25.593297930781908 25.571323933345543 25.571323933345543 25.571323933345543 25.571323933345543 25.571323933345543 25.549349935909174 25.549349935909174 25.571323933345543 25.571323933345543 25.549349935909174 25.527375938472808 25.527375938472808 25.549349935909174 25.527375938472808 25.527375938472808 25.527375938472808 25.50540194103644 25.50540194103644 25.50540194103644 25.50540194103644 25.50540194103644 25.50540194103644 25.483427943600073 25.50540194103644 25.483427943600073 25.50540194103644 25.483427943600073 25.483427943600073 25.483427943600073 25.483427943600073 25.461453946163708 25.483427943600073 25.483427943600073 25.483427943600073 25.461453946163708 25.461453946163708 25.461453946163708 25.461453946163708 25.43947994872734 25.43947994872734 25.43947994872734 25.417505951290973 25.417505951290973 25.395531953854604 25.395531953854604 25.395531953854604 25.395531953854604 25.395531953854604 25.395531953854604 25.395531953854604 25.37355795641824 25.37355795641824 25.395531953854604 25.37355795641824 25.37355795641824 25.37355795641824 25.37355795641824 25.37355795641824 25.37355795641824 