25.0 25.0 25.0 25.0 25.0 25.0 25.0 25.0 25.0 25.0 25.0 25.0 25.0 25.0 25.0 25.0 25.0 25.0 25.0 25.0 25.0 25.0 25.0 25.0 25.0 25.0 25.0 25.0 25.0 25.0 25.0 25.0 25.0 25.0 25.0 25.0 25.0 25.0 25.0 25.0 25.0 25.0 25.0 25.0 25.0 25.0 25.0 25.0 25.0 25.0 25.0 25.0 25.0 25.0 25.0 25.0 25.0 25.0 25.0 25.0 25.0 25.0 25.0 25.0 25.0 25.0 25.0 25.0 25.0 25.0 25.0 25.0 25.0 25.0 25.0 25.0 25.0 25.0 25.0 25.0 25.0 25.0 25.0 25.0 25.0 25.0 25.0 25.0 25.0 25.0 25.0 25.0 25.0 25.0 25.0 25.0 25.0 25.0 25.0 25.0 25.0 25.0 25.0 25.0 25.0 25.0 25.0 25.0 25.0 25.0 25.0 25.0 25.0 25.0 25.0 25.0 25.0 25.0 25.0 25.0 25.0 25.0 25.0 25.0 25.0 25.0 25.0 25.0 25.0 25.0 25.0 25.0 25.0 25.0 25.0 25.0 25.0 25.0 25.0 25.0 25.0 25.0 25.0 25.0 25.0 25.0 25.0 25.0 25.0 25.0 25.0 25.0 25.0 25.0 25.0 25.0 25.0 25.0 25.0 25.0 25.0 25.0 25.0 25.0 25.0 25.0 25.0 25.0 25.0 25.0 25.0 25.0 25.0 25.0 25.0 25.0 25.0 25.0 25.0 25.0 25.0 25.0 25.0 25.0 25.0 25.0 25.0 25.0 25.0 25.0 25.0 25.0 25.0 25.0 25.0 25.0 25.0 25.0 25.0 25.0 25.0 25.0 25.0 25.0 25.0 25.0 25.0 25.0 25.0 25.0 25.0 25.0 25.0 25.0 25.0 25.0 25.0 25.0 25.0 25.0 25.0 25.0 25.0 25.0 25.0 25.0 25.0 25.0 25.0 25.0 25.0 25.0 25.0 25.0 25.0 25.0 25.0 25.0 25.0 25.0 25.0 25.0 25.0 25.0 25.0 25.0 25.0 25.0 25.0 25.0 25.0 25.0 25.0 25.0 25.0 25.0 25.0 25.0 25.0 25.0 25.0 25.0 25.0 25.0 25.0 25.0 25.0 25.0 25.0 25.0 25.0 25.0 25.0 25.0 25.0 25.0 25.0 25.0 25.0 25.0 25.0 25.0 25.0 25.0 25.0 25.0 25.0 25.0 25.0 25.0 25.0 25.0 25.0 25.0 25.0 25.0 25.0 25.0 25.0 25.0 25.0 25.0 25.0 25.0 25.0 25.0 25.0 25.0 25.0 25.0 25.0 25.0 25.0 25.0 25.0 25.0 25.0 25.0 25.0 25.0 25.0 25.0 25.0 25.0 25.0 25.0 25.0 25.0 25.0 25.0 25.0 25.0 25.0 25.0 25.0 25.0 25.0 25.0 25.0 25.0 25.0 25.0 25.0 25.0 25.0 25.0 25.0 25.0 25.0 25.0 25.0 25.0 25.0 25.0 25.0 25.0 25.0 25.0 25.0 25.0 25.0 25.0 25.0 25.0 25.0 25.0 25.0 25.0 25.0 25.0 25.0 25.0 25.0 25.0 25.0 25.0 25.0 25.0 25.0 25.0 25.0 25.0 25.0 25.0 25.0 25.0 25.0 25.0 25.0 25.0 25.0 25.0 25.0 25.0 25.0 25.0 25.0 25.0 25.0 25.0 25.0 25.0 25.0 25.0 25.0 25.0 25.0 25.0 25.0 25.0 25.0 25.0 25.0 25.0 25.0 25.0 25.0 25.0 25.0 25.0 25.0 25.0 25.0 25.0 25.0 25.0 25.0 25.0 25.0 25.0 25.0 25.0 25.0 25.0 25.0 25.0 25.0 25.0 25.0 25.0 25.0 25.0 25.0 25.0 25.0 25.0 25.0 25.0 25.0 25.0 25.0 25.0 25.0 25.0 25.0 25.0 25.0 25.0 25.0 25.0 25.0 25.0 25.0 25.0 25.0 25.0 25.0 25.0 25.0 25.0 25.0 25.0 25.0 25.0 25.0 25.0 25.0 25.0 25.0 25.0 25.0 25.0 25.0 25.0 25.0 25.0 25.0 25.0 25.0 25.0 25.0 25.0 25.0 25.0 25.0 25.0 25.0 25.0 25.0 25.0 25.0 25.0 25.0 25.0 25.0 25.0 25.0 25.0 25.0 25.0 25.0 25.0 25.0 25.0 25.0 25.0 25.0 25.0 25.0 25.0 25.0 25.0 25.0 25.0 25.0 25.0 25.0 25.0 25.0 25.0 25.0 25.0 25.0 25.0 25.0 25.0 25.0 25.0 25.0 25.0 25.0 25.0 25.0 25.0 25.0 25.0 25.0 25.0 25.0 25.0 25.0 25.0 25.0 25.0 25.0 25.0 25.0 25.0 25.0 24.978026002563634 25.0 25.0 25.0 25.0 25.0 25.0 25.0 25.0 25.0 25.0 25.0 25.0 25.0 25.0 25.0 25.0 25.0 25.0 25.0 25.0 25.0 25.0 25.0 25.0 25.0 25.0 25.0 25.0 25.0 25.0 25.0 25.0 25.0 25.0 25.0 25.0 25.0 25.0 25.0 25.0 25.0 25.0 25.0 25.0 25.0 25.0 25.0 25.0 25.0 25.0 25.0 25.0 25.0 25.0 25.0 25.0 25.0 25.0 25.0 25.0 25.0 25.0 25.0 25.0 25.0 25.0 25.0 25.0 25.0 25.0 25.0 25.0 25.0 25.0 25.0 25.0 25.0 25.0 25.0 25.0 25.0 25.0 25.0 25.0 25.0 25.0 25.0 25.0 25.0 25.0 25.0 25.0 25.0 25.0 25.0 25.0 25.0 25.0 25.0 25.0 25.0 25.0 25.0 25.0 25.0 25.0 25.0 25.0 25.0 25.0 25.0 25.0 25.0 25.0 25.0 25.0 25.0 25.0 25.0 25.0 25.0 25.0 25.0 25.0 25.0 25.0 25.0 25.0 25.0 25.0 25.0 25.021973997436366 25.0 25.0 25.021973997436366 25.021973997436366 25.043947994872735 25.0659219923091 25.08789598974547 25.109869987181835 25.15381798205457 25.175791979490935 25.197765976927304 25.21973997436367 25.21973997436367 25.241713971800035 25.241713971800035 25.263687969236404 25.30763596410914 25.37355795641824 25.417505951290973 25.50540194103644 25.615271928218274 25.72514191540011 25.900933894891047 26.120673869254716 26.340413843618386 26.626075810291155 26.933711774400294 27.307269730818533 27.988463651345906 28.34004761032778 28.75755356161875 29.284929500091557 29.724409448818896 30.317707379600805 30.779161325764512 31.833913202710125 32.36128914118294 32.866691082219376 33.438015015564915 34.18513092840139 35.06409082585607 35.81120673869255 36.602270646401756 37.635048525911 38.71177440029299 39.6346822926204 40.667460172129644 41.34865409265702 42.53524995422084 43.655923823475554 44.4909357260575 45.56766160043948 46.688335469694195 47.78703534151254 48.18256729536715 48.35835927485809 49.43508514924007 50.665629005676614 51.21497894158579 51.9401208569859 52.64328877494964 53.346456692913385 53.61014466214979 54.15949459805896 54.6648965390954 55.14832448269547 55.49990844167735 56.00531038271379 56.51071232375023 57.016114264786665 57.52151620582311 57.96099615455045 58.59824208020509 59.23548800585973 59.718915949459806 60.509979857169014 61.01538179820545 61.43288774949643 61.80644570591467 62.13605566746017 62.61948361106025 63.146859549533055 63.586339498260394 64.06976744186046 64.55319538546054 64.88280534700604 65.25636330342428 65.67386925471524 66.1133492034426 66.5748031496063 66.88243911371544 67.32191906244277 67.76139901117011 68.20087895989745 68.48654092657023 68.77220289324299 69.16773484709759 69.5632668009522 69.98077275224318 70.35433070866142 70.70591466764328 71.01355063175242 71.32118659586156 71.60684856253434 71.95843252151622 72.46383446255265 72.72752243178905 73.12305438564366 73.40871635231643 73.71635231642557 74.04596227797106 74.26570225233473 74.61728621131661 74.96887017029849 75.23255813953489 75.5621681010804 75.80388207288043 76.11151803698957 76.46310199597144 76.59494598058964 76.8146859549533 77.03442592931697 77.21021790880792 77.36403589086248 77.53982787035342 77.73759384728072 77.91338582677164 77.97930781908076 78.17707379600806 78.352865775499 78.59457974729904 78.79234572422632 78.96813770371728 79.1439296832082 79.34169566013551 79.47353964475371 79.62735762680828 79.75920161142648 79.86907159860831 79.97894158579015 80.02288958066288 80.06683757553562 80.08881157297199 80.06683757553562 80.08881157297199 80.06683757553562 80.06683757553562 80.06683757553562 80.04486357809925 80.04486357809925 80.02288958066288 80.00091558322652 79.97894158579015 79.91301959348105 79.86907159860831 79.84709760117195 79.78117560886285 79.71525361655375 79.671305621681 79.64933162424464 79.62735762680828 79.62735762680828 79.60538362937191 79.56143563449919 79.58340963193555 79.56143563449919 79.56143563449919 79.56143563449919 79.56143563449919 79.56143563449919 79.56143563449919 79.5394616370628 79.5394616370628 79.5394616370628 79.5394616370628 79.5394616370628 79.5394616370628 79.5394616370628 79.5394616370628 79.5394616370628 79.5394616370628 79.5394616370628 79.5394616370628 79.5394616370628 79.5394616370628 79.5394616370628 79.5394616370628 79.5394616370628 79.5394616370628 79.51748763962644 79.51748763962644 79.49551364219008 79.49551364219008 79.47353964475371 79.42959164988098 79.4076176524446 79.36366965757188 79.34169566013551 79.31972166269914 79.29774766526278 79.2757736678264 79.2757736678264 79.2757736678264 79.2757736678264 79.2757736678264 79.2757736678264 79.25379967039004 79.25379967039004 79.25379967039004 79.2757736678264 79.25379967039004 79.23182567295368 79.23182567295368 79.20985167551731 79.18787767808094 79.1439296832082 79.1439296832082 79.1439296832082 79.09998168833548 79.09998168833548 79.07800769089911 79.07800769089911 79.09998168833548 79.07800769089911 79.09998168833548 79.07800769089911 79.07800769089911 79.05603369346274 79.05603369346274 79.05603369346274 79.05603369346274 79.05603369346274 79.05603369346274 79.05603369346274 79.05603369346274 79.05603369346274 79.05603369346274 79.03405969602638 79.05603369346274 79.05603369346274 79.05603369346274 79.05603369346274 79.03405969602638 79.03405969602638 79.05603369346274 79.05603369346274 79.03405969602638 79.05603369346274 79.03405969602638 79.03405969602638 79.03405969602638 79.01208569859 78.99011170115364 78.99011170115364 78.96813770371728 78.96813770371728 78.90221571140816 78.8802417139718 78.85826771653544 78.81431972166271 78.81431972166271 78.79234572422632 78.79234572422632 78.79234572422632 78.79234572422632 78.79234572422632 78.77037172678996 78.79234572422632 78.79234572422632 78.79234572422632 78.77037172678996 78.79234572422632 78.79234572422632 78.79234572422632 78.79234572422632 78.79234572422632 78.77037172678996 78.77037172678996 78.79234572422632 78.79234572422632 78.77037172678996 78.79234572422632 78.77037172678996 78.77037172678996 78.77037172678996 78.79234572422632 78.77037172678996 78.77037172678996 78.77037172678996 78.77037172678996 78.77037172678996 78.79234572422632 78.77037172678996 78.77037172678996 78.77037172678996 78.77037172678996 78.77037172678996 78.79234572422632 78.77037172678996 78.77037172678996 78.79234572422632 78.77037172678996 78.79234572422632 78.79234572422632 78.77037172678996 78.77037172678996 78.77037172678996 78.77037172678996 78.77037172678996 78.79234572422632 78.77037172678996 78.77037172678996 78.79234572422632 78.77037172678996 78.77037172678996 78.77037172678996 78.79234572422632 78.77037172678996 78.77037172678996 78.77037172678996 78.77037172678996 78.79234572422632 78.79234572422632 78.79234572422632 78.79234572422632 78.77037172678996 78.7483977293536 78.72642373191724 78.70444973448086 78.6824757370445 78.63852774217176 78.6165537447354 78.57260574986266 78.5506317524263 78.4847097601172 78.39681377037172 78.2210217908808 78.13312580113532 78.04522981138985 77.9573338216444 77.80351583958982 77.69364585240798 77.56180186778978 77.36403589086248 77.23219190624428 76.90258194469877 76.70481596777148 76.52902398828054 76.28731001648049 75.957700054935 75.73796008057133 75.40835011902581 75.18861014466215 74.72715619849845 74.39754623695293 74.17780626258927 73.93609229078925 73.51858633949826 73.29884636513458 73.1010803882073 72.94726240615272 72.72752243178905 72.4198864676799 72.31001648049809 72.1561984984435 71.95843252151622 71.82658853689802 71.65079655740706 71.4969785753525 71.2992125984252 71.1014466214979 70.9036806445706 70.44222669840688 70.39827870353415 70.20051272660686 69.95879875480682 69.73905878044314 69.4973448086431 69.1018128547885 68.88207288042483 68.50851492400659 67.98113898553379 67.67350302142464 67.23402307269731 66.86046511627907 66.42098516755172 65.91558322651528 65.56399926753342 65.01464933162424 64.42135140084233 64.02581944698773 63.498443508514924 63.036989562351216 62.57553561618751 62.26789965207837 62.0481596777147 61.67460172129647 61.27906976744186 61.03735579564182 60.597875846914484 60.378135872550814 60.070499908441676 59.718915949459806 59.499175975096136 59.27943600073247 59.08167002380517 58.79600805713239 58.57626808276872 58.40047610327779 58.15876213147775 57.87310016480498 57.52151620582311 57.30177623145944 57.08203625709577 56.796374290423 56.466764328877495 56.20307635964109 55.74162241347739 55.52188243911371 55.21424647500458 55.12635048525911 54.90661051089544 54.64292254165903 54.137520600622594 54.02765061344076 53.654092657022524 53.346456692913385 53.03882072880425 52.797106757004215 52.40157480314961 52.02801684673137 51.63248489287676 51.36879692364036 50.99523896722212 50.665629005676614 50.29207104925838 50.094305072331075 49.742721113349205 49.50100714154917 49.19337117744003 49.01757919794909 48.79783922358543 48.51217725691265 48.33638527742171 48.18256729536715 48.09467130562168 47.85295733382164 47.54532136971251 47.36952939022157 47.10584142098517 46.79820545687603 46.57846548251236 46.33675151071232 46.02911554660319 45.65555759018495 45.17212964658488 44.79857169016664 44.46896172862113 44.073429774766524 43.699871818348285 43.106573887566384 43.01867789782091 42.57919794909357 42.11774400292987 41.74418604651163 41.37062809009339 41.04101812854789 40.62351217725691 40.249954220838674 40.030214246475005 39.612708295184035 39.15125434902033 38.95348837209302 38.57993041567478 38.44808643105658 38.38216443874748 38.25032045412928 38.14045046694744 37.96465848745651 37.8328145028383 37.65702252334737 37.48123054385644 37.415308551547334 37.28346456692913 37.08569859000183 36.931880607947264 36.73411463101996 36.51437465665629 36.250686687419886 36.03094671305622 35.87712873100165 35.63541475920161 35.41567478483794 35.32777879509247 35.06409082585607 34.7125068668742 34.53671488738326 34.29500091558323 34.09723493865592 33.92144295916499 33.657754989928584 33.438015015564915 33.262223036073976 33.04248306171031 32.866691082219376 32.646951107855706 32.47115912836477 32.1195751693829 31.96575718732833 31.89983519501923 31.74601721296466 31.548251236037355 31.394433253982786 31.064823292437282 30.911005310382713 30.669291338582678 30.405603369346274 30.273759384728073 29.9880974180553 29.592565464200696 29.438747482146127 29.394799487273392 29.284929500091557 29.109137520600623 28.933345541109688 28.77952755905512 28.53781358725508 28.362021607764145 28.076359641091376 27.81267167185497 27.614905694927668 27.329243728254898 26.933711774400294 26.73594579747299 26.626075810291155 26.58212781541842 26.494231825672955 26.42830983336385 26.406335835927486 26.406335835927486 26.38436183849112 26.36238784105475 26.340413843618386 26.318439846182017 26.29646584874565 26.252517853872916 26.208569859000182 26.164621864127447 26.098699871818347 26.054751876945616 25.966855887200147 25.922907892327412 25.856985900018312 25.791063907709212 25.769089910272843 25.747115912836477 25.72514191540011 25.703167917963743 25.72514191540011 25.703167917963743 25.681193920527377 25.65921992309101 25.615271928218274 25.615271928218274 25.571323933345543 25.571323933345543 25.549349935909174 25.527375938472808 25.527375938472808 25.527375938472808 25.50540194103644 25.527375938472808 25.50540194103644 25.50540194103644 25.50540194103644 25.50540194103644 25.50540194103644 25.483427943600073 25.50540194103644 25.483427943600073 25.50540194103644 25.483427943600073 25.483427943600073 25.483427943600073 25.483427943600073 25.483427943600073 25.483427943600073 25.461453946163708 25.461453946163708 25.461453946163708 25.461453946163708 25.461453946163708 25.461453946163708 25.461453946163708 25.43947994872734 25.43947994872734 25.43947994872734 25.43947994872734 25.43947994872734 25.43947994872734 25.43947994872734 25.43947994872734 25.43947994872734 25.417505951290973 25.417505951290973 25.417505951290973 25.417505951290973 25.417505951290973 25.395531953854604 25.395531953854604 25.395531953854604 25.37355795641824 25.37355795641824 25.37355795641824 25.37355795641824 25.37355795641824 25.37355795641824 25.37355795641824 25.37355795641824 25.37355795641824 25.37355795641824 25.35158395898187 25.37355795641824 25.35158395898187 25.35158395898187 25.329609961545504 25.329609961545504 25.329609961545504 25.329609961545504 25.329609961545504 25.329609961545504 25.329609961545504 25.329609961545504 25.329609961545504 25.329609961545504 25.329609961545504 25.329609961545504 25.329609961545504 25.329609961545504 25.329609961545504 25.329609961545504 25.329609961545504 25.329609961545504 25.329609961545504 25.329609961545504 25.329609961545504 25.329609961545504 25.329609961545504 25.329609961545504 25.329609961545504 25.329609961545504 25.329609961545504 25.329609961545504 25.329609961545504 25.329609961545504 25.329609961545504 25.329609961545504 25.329609961545504 25.329609961545504 25.329609961545504 25.329609961545504 25.329609961545504 25.329609961545504 25.329609961545504 25.329609961545504 25.329609961545504 25.329609961545504 25.329609961545504 25.329609961545504 25.329609961545504 25.329609961545504 25.329609961545504 25.329609961545504 25.329609961545504 25.329609961545504 25.329609961545504 25.329609961545504 25.329609961545504 25.329609961545504 25.329609961545504 25.329609961545504 25.329609961545504 25.329609961545504 25.329609961545504 25.329609961545504 25.329609961545504 25.329609961545504 25.329609961545504 25.329609961545504 25.329609961545504 25.329609961545504 25.329609961545504 25.329609961545504 25.329609961545504 25.329609961545504 25.329609961545504 25.329609961545504 25.329609961545504 25.329609961545504 25.329609961545504 25.329609961545504 25.329609961545504 25.329609961545504 25.329609961545504 25.329609961545504 25.329609961545504 25.329609961545504 25.329609961545504 25.329609961545504 25.329609961545504 25.329609961545504 25.329609961545504 25.329609961545504 25.329609961545504 25.329609961545504 25.329609961545504 25.329609961545504 25.329609961545504 25.329609961545504 25.329609961545504 25.329609961545504 25.329609961545504 25.329609961545504 25.329609961545504 25.329609961545504 25.329609961545504 25.329609961545504 25.329609961545504 25.329609961545504 25.329609961545504 25.329609961545504 25.329609961545504 25.329609961545504 25.329609961545504 25.329609961545504 25.329609961545504 25.329609961545504 25.329609961545504 25.329609961545504 25.329609961545504 25.329609961545504 25.329609961545504 25.329609961545504 25.329609961545504 25.329609961545504 25.329609961545504 25.329609961545504 25.329609961545504 25.329609961545504 25.329609961545504 25.329609961545504 25.329609961545504 25.329609961545504 25.329609961545504 25.329609961545504 25.329609961545504 25.329609961545504 25.329609961545504 25.329609961545504 25.329609961545504 25.329609961545504 25.329609961545504 25.329609961545504 25.329609961545504 25.329609961545504 25.329609961545504 25.329609961545504 25.329609961545504 25.329609961545504 25.329609961545504 25.329609961545504 25.329609961545504 25.329609961545504 25.329609961545504 25.329609961545504 25.329609961545504 25.329609961545504 25.329609961545504 25.329609961545504 25.329609961545504 25.329609961545504 25.329609961545504 25.329609961545504 25.329609961545504 25.329609961545504 25.329609961545504 25.329609961545504 25.329609961545504 25.329609961545504 25.329609961545504 25.329609961545504 25.329609961545504 25.329609961545504 25.329609961545504 25.329609961545504 25.329609961545504 25.329609961545504 25.329609961545504 25.329609961545504 25.329609961545504 25.329609961545504 25.329609961545504 25.329609961545504 25.329609961545504 25.329609961545504 25.329609961545504 25.329609961545504 25.329609961545504 25.329609961545504 25.329609961545504 25.329609961545504 25.329609961545504 25.329609961545504 25.329609961545504 25.329609961545504 25.329609961545504 25.329609961545504 25.329609961545504 25.329609961545504 25.329609961545504 25.329609961545504 25.329609961545504 25.329609961545504 25.329609961545504 25.329609961545504 25.329609961545504 25.329609961545504 25.329609961545504 25.329609961545504 25.329609961545504 25.329609961545504 25.329609961545504 25.329609961545504 25.329609961545504 25.329609961545504 25.329609961545504 25.329609961545504 25.329609961545504 25.329609961545504 25.329609961545504 25.329609961545504 25.329609961545504 25.329609961545504 25.329609961545504 25.329609961545504 25.329609961545504 25.329609961545504 25.329609961545504 25.329609961545504 25.329609961545504 25.329609961545504 25.329609961545504 25.329609961545504 25.329609961545504 25.329609961545504 25.329609961545504 25.329609961545504 25.329609961545504 25.329609961545504 25.329609961545504 25.329609961545504 25.329609961545504 25.329609961545504 25.329609961545504 25.329609961545504 25.329609961545504 25.329609961545504 25.329609961545504 25.329609961545504 25.329609961545504 25.329609961545504 25.329609961545504 25.329609961545504 25.329609961545504 25.329609961545504 25.329609961545504 25.329609961545504 25.329609961545504 25.329609961545504 25.329609961545504 25.329609961545504 25.329609961545504 25.329609961545504 25.329609961545504 25.329609961545504 25.329609961545504 25.329609961545504 25.329609961545504 25.329609961545504 25.329609961545504 25.329609961545504 25.329609961545504 25.329609961545504 25.329609961545504 25.329609961545504 25.329609961545504 25.329609961545504 25.329609961545504 25.329609961545504 25.329609961545504 25.35158395898187 25.329609961545504 25.35158395898187 25.35158395898187 25.35158395898187 25.35158395898187 25.35158395898187 25.37355795641824 25.37355795641824 25.395531953854604 25.417505951290973 25.43947994872734 25.461453946163708 25.527375938472808 25.637245925654643 25.681193920527377 25.72514191540011 25.791063907709212 25.856985900018312 25.944881889763778 26.032777879509247 26.186595861563816 26.274491851309286 26.36238784105475 26.42830983336385 26.51620582310932 26.60410181285479 26.757919794909355 26.911737776963925 27.131477751327594 27.417139718000367 27.636879692364037 27.834645669291337 28.25215162058231 28.427943600073245 28.69163156930965 28.867423548800588 29.19703351034609 29.570591466764327 29.8562534334371 30.339681377037174 30.823109320637247 31.174693279619117 31.65812122321919 32.00970518220106 32.47115912836477 33.372093023255815 33.74565097967405 34.11920893609229 34.53671488738326 35.21790880791064 35.63541475920161 36.316608679728986 36.975828602819995 37.4372825489837 38.14045046694744 38.64585240798389 39.612708295184035 40.096136238784105 40.73338216443875 41.23878410547519 41.89800402856619 42.40340596960264 42.95275590551181 43.765793810657385 44.139351767075624 44.51290972349386 45.04028566196667 45.39186962094854 45.919245559421356 46.33675151071232 46.973997436366965 47.54532136971251 47.91887932613075 48.55612525178539 49.25929316974913 50.050357077458344 50.577733015931145 51.25892693645852 52.09393883904047 52.906976744186046 53.08276872367698 53.91778062625893 54.70884453396813 55.32411646218641 55.983336385277426 56.554660318622965 57.191906244277604 57.89507416224135 58.57626808276872 58.9937740340597 59.47720197765977 59.850759934078006 60.509979857169014 60.83958981871452 61.16919978026002 61.74052371360557 61.9822376854056 62.44369163156931 62.88317158029665 63.146859549533055 63.454495513642186 63.696209485442225 64.15766343160593 64.46529939571508 64.59714338033328 64.88280534700604 65.19044131111518 65.43215528291522 65.717817249588 65.95953122138803 66.39901117011536 66.70664713422451 66.88243911371544 67.14612708295184 67.36586705731551 67.71745101629739 68.15693096502471 68.42061893426111 68.72825489837027 69.1018128547885 69.3655008240249 69.60721479582494 70.00274674967955 70.35433070866142 70.74986266251602 71.01355063175242 71.4310565830434 71.80461453946164 72.22212049075262 72.4198864676799 72.63962644204358 72.92528840871636 73.2329243728255 73.45266434718917 73.91411829335286 74.26570225233473 74.55136421900751 74.83702618568029 75.14466214978941 75.58414209851676 76.15546603186229 76.44112799853508 77.03442592931697 77.25416590368064 77.51785387291704 77.86943783189892 78.13312580113532 78.4847097601172 78.8802417139718 79.12195568577184 79.5394616370628 79.93499359091741 80.26460355246292 80.77000549349935 81.1435634499176 81.42922541659037 81.82475737044497 81.93462735762681 82.35213330891779 82.68174327046329 82.76963926020875 83.01135323200879 83.0772752243179 83.16517121406336 83.25306720380883 83.27504120124519 83.29701519868156 83.3409631935543 83.36293719099066 83.36293719099066 83.36293719099066 83.38491118842703 83.40688518586339 83.40688518586339 83.40688518586339 83.40688518586339 83.40688518586339 83.40688518586339 83.42885918329976 83.45083318073613 83.4728071781725 83.49478117560886 83.56070316791798 83.62662516022706 83.67057315509979 83.75846914484526 83.75846914484526 83.84636513459074 83.8683391320271 83.91228712689984 83.95623512177258 84.0001831166453 84.04413111151804 84.04413111151804 84.04413111151804 84.0661051089544 84.0661051089544 84.0661051089544 84.0661051089544 84.0661051089544 84.0661051089544 84.0661051089544 84.08807910639078 84.11005310382714 84.11005310382714 84.11005310382714 84.1320271012635 84.1320271012635 84.1320271012635 84.11005310382714 84.1320271012635 84.1320271012635 84.15400109869987 84.15400109869987 84.15400109869987 84.15400109869987 84.15400109869987 84.15400109869987 84.15400109869987 84.15400109869987 84.15400109869987 84.15400109869987 84.15400109869987 84.15400109869987 84.15400109869987 84.15400109869987 84.15400109869987 84.15400109869987 84.15400109869987 84.1979490935726 84.1979490935726 84.21992309100898 84.24189708844534 84.24189708844534 84.2638710858817 84.2638710858817 84.2638710858817 84.2638710858817 84.2638710858817 84.28584508331807 84.2638710858817 84.28584508331807 84.2638710858817 84.2638710858817 84.28584508331807 84.28584508331807 84.2638710858817 84.28584508331807 84.2638710858817 84.2638710858817 84.2638710858817 84.2638710858817 84.2638710858817 84.2638710858817 84.2638710858817 84.2638710858817 84.24189708844534 84.2638710858817 84.24189708844534 84.2638710858817 84.24189708844534 84.2638710858817 84.2638710858817 84.24189708844534 84.24189708844534 84.24189708844534 84.24189708844534 84.24189708844534 84.24189708844534 84.24189708844534 84.24189708844534 84.24189708844534 84.24189708844534 84.24189708844534 84.24189708844534 84.24189708844534 84.24189708844534 84.24189708844534 84.24189708844534 84.24189708844534 84.24189708844534 84.24189708844534 84.21992309100898 84.21992309100898 84.24189708844534 84.24189708844534 84.21992309100898 84.24189708844534 84.24189708844534 84.21992309100898 84.24189708844534 84.21992309100898 84.24189708844534 84.21992309100898 84.24189708844534 84.21992309100898 84.1979490935726 84.17597509613624 84.17597509613624 84.17597509613624 84.15400109869987 84.15400109869987 84.15400109869987 84.15400109869987 84.15400109869987 84.15400109869987 84.15400109869987 84.15400109869987 84.15400109869987 84.15400109869987 84.15400109869987 84.1320271012635 84.15400109869987 84.15400109869987 84.15400109869987 84.15400109869987 84.15400109869987 84.11005310382714 84.11005310382714 84.11005310382714 84.11005310382714 84.08807910639078 84.0661051089544 84.0661051089544 84.04413111151804 84.02215711408166 83.97820911920894 83.97820911920894 83.95623512177258 83.9342611243362 83.9342611243362 83.91228712689984 83.89031312946346 83.8683391320271 83.84636513459074 83.84636513459074 83.82439113715438 83.802417139718 83.802417139718 83.78044314228164 83.78044314228164 83.78044314228164 83.78044314228164 83.78044314228164 83.78044314228164 83.78044314228164 83.78044314228164 83.75846914484526 83.75846914484526 83.75846914484526 83.7364951474089 83.71452114997254 83.69254715253618 83.69254715253618 83.67057315509979 83.67057315509979 83.67057315509979 83.67057315509979 83.67057315509979 83.67057315509979 83.67057315509979 83.64859915766343 83.64859915766343 83.62662516022706 83.62662516022706 83.62662516022706 83.62662516022706 83.58267716535434 83.56070316791798 83.51675517304523 83.49478117560886 83.42885918329976 83.36293719099066 83.31898919611793 83.27504120124519 83.23109320637246 83.14319721662699 83.09924922175426 83.03332722944516 82.92345724226331 82.85753524995422 82.76963926020875 82.65976927302691 82.57187328328145 82.48397729353599 82.37410730635415 82.30818531404505 82.19831532686322 82.08844533968139 82.00054934993591 81.91265336019043 81.78080937557223 81.58304339864495 81.51712140633583 81.40725141915401 81.2754074345358 81.20948544222671 81.12158945248123 80.96777147042667 80.81395348837209 80.66013550631753 80.55026551913569 80.35249954220839 80.15473356528108 79.97894158579015 79.84709760117195 79.71525361655375 79.5394616370628 79.36366965757188 79.18787767808094 79.01208569859 78.7483977293536 78.66050173960812 78.52865775498992 78.44076176524446 78.33089177806264 78.17707379600806 78.0891778062626 77.9573338216444 77.86943783189892 77.69364585240798 77.53982787035342 77.40798388573522 77.21021790880792 76.99047793444424 76.83665995238968 76.63889397546237 76.46310199597144 76.2213880241714 76.02362204724409 75.84783006775316 75.6940120856986 75.45229811389855 75.25453213697125 74.90294817798939 74.70518220106207 74.44149423182567 74.15583226515291 73.95806628822561 73.73832631386193 73.4306903497528 73.25489837026186 73.07910639077092 72.90331441127998 72.70554843435269 72.48580845998902 72.26606848562534 72.06830250869804 71.82658853689802 71.67277055484342 71.34316059329794 71.27723860098882 71.1014466214979 70.88170664713422 70.79381065738875 70.70591466764328 70.61801867789782 70.55209668558872 70.46420069584326 70.37630470609778 70.26643471891595 70.15656473173412 70.06866874198866 69.98077275224318 69.80498077275224 69.71708478300678 69.60721479582494 69.51931880607947 69.3655008240249 69.18970884453397 69.03589086247939 68.88207288042483 68.7062809009339 68.55246291887933 68.33272294451567 68.13495696758835 67.91521699322467 67.58560703167919 67.40981505218824 67.25599707013367 67.08020509064274 66.75059512909723 66.48690715986083 66.35506317524263 66.04742721113348 65.717817249588 65.36623329060612 65.21241530855156 64.86083134956968 64.5092473905878 64.13568943416956 63.696209485442225 63.432521516205824 63.036989562351216 62.707379600805716 62.33382164438748 62.0481596777147 61.60867972898736 61.16919978026002 60.75169382896905 60.356161875114445 60.070499908441676 59.872733931514375 59.63101995971434 59.4552279802234 59.14759201611427 58.94982603918696 58.77403405969603 58.55429408533236 58.31258011353232 58.18073612891412 57.98297015198681 57.85112616736861 57.65336019044131 57.47756821095037 57.34572422633217 57.08203625709577 56.906244277604834 56.77440029298663 56.664530305804796 56.51071232375023 56.33492034425929 56.13715436733199 55.89544039553195 55.63175242629555 55.39003845449551 55.19227247756821 54.97253250320454 54.77476652627723 54.335286577549894 54.00567661600439 53.763962644204355 53.434352682658854 52.994872733931516 52.88500274674968 52.64328877494964 52.357626808276876 51.96209485442226 51.78630287493133 51.56656290056766 51.30287493133126 51.12708295184032 50.79747299029482 50.62168101080388 50.46786302874931 50.248123054385644 50.050357077458344 49.89653909540377 49.654825123603736 49.479033144112805 49.2812671671855 49.03955319538546 48.97363120307636 48.64402124153085 48.46822926203992 48.20454129280351 47.98480131843985 47.80900933894891 47.56729536714887 47.3475553927852 47.17176341329427 46.93004944149423 46.71030946713056 46.534517487639626 46.292803515839594 46.02911554660319 45.65555759018495 45.23805163889398 45.12818165171214 45.0183116645303 44.820545687603 44.71067570042116 44.53488372093023 44.38106573887566 44.205273759384724 44.073429774766524 43.98553378502106 43.897637795275585 43.80974180553012 43.74381981322102 43.633949826039185 43.502105841420985 43.348287859366415 43.194469877311846 43.062625892693646 42.88683391320271 42.64511994140267 42.46932796191174 42.2276139901117 42.0957700054935 41.83208203625709 41.61234206189343 41.39260208752975 41.06299212598425 40.77733015931148 40.55759018494781 40.227980223402305 39.986266251602274 39.722578282365866 39.590734297747666 39.722578282365866 39.590734297747666 39.458890313129466 39.239150338765796 39.08533235671123 38.95348837209302 38.90954037722029 38.79967039003846 38.75572239516572 38.66782640542025 38.60190441311115 38.42611243362022 38.31624244643838 38.18439846182018 37.98663248489288 37.8328145028383 37.74491851309284 37.61307452847464 37.48123054385644 37.21754257462003 36.822010620765425 36.602270646401756 36.118842702801686 35.59146676432888 35.32777879509247 35.08606482329244 34.88829884636513 34.58066288225599 34.36092290789233 34.207104925837754 34.009338948910454 33.657754989928584 33.48196301043765 33.32814502838308 33.174327046328514 33.04248306171031 32.84471708478301 32.69089910272844 32.3832631386193 32.1195751693829 31.96575718732833 31.855887200146494 31.702069218091925 31.46035524629189 31.196667277055482 31.042849295000916 30.801135323200878 30.537447353964474 30.317707379600805 30.07599340780077 29.878227430873466 29.526643471891596 29.262955502655192 29.021241530855153 28.77952755905512 28.515839589818714 28.38399560520051 28.230177623145945 28.16425563083684 27.988463651345906 27.856619666727706 27.768723676982237 27.658853689800402 27.570957700054933 27.373191723127633 27.351217725691264 27.285295733382164 27.197399743636698 26.97765976927303 26.88976377952756 26.713971800036624 26.538179820545686 26.318439846182017 26.054751876945616 25.878959897454678 25.813037905145578 25.769089910272843 25.747115912836477 25.747115912836477 25.769089910272843 25.813037905145578 26.01080388207288 26.120673869254716 26.29646584874565 26.36238784105475 26.38436183849112 26.36238784105475 26.472257828236586 26.60410181285479 26.626075810291155 26.60410181285479 26.60410181285479 26.538179820545686 26.494231825672955 26.45028383080022 26.406335835927486 26.340413843618386 26.29646584874565 26.252517853872916 26.23054385643655 26.208569859000182 26.208569859000182 26.186595861563816 26.186595861563816 26.164621864127447 26.14264786669108 26.14264786669108 26.098699871818347 26.054751876945616 26.01080388207288 25.944881889763778 25.856985900018312 25.813037905145578 25.791063907709212 25.747115912836477 25.747115912836477 25.72514191540011 25.72514191540011 25.703167917963743 25.703167917963743 25.703167917963743 25.681193920527377 25.681193920527377 25.681193920527377 25.681193920527377 25.681193920527377 25.65921992309101 25.637245925654643 25.615271928218274 25.593297930781908 25.571323933345543 25.549349935909174 25.549349935909174 25.549349935909174 25.527375938472808 25.527375938472808 25.50540194103644 25.50540194103644 25.50540194103644 25.50540194103644 25.483427943600073 25.483427943600073 25.483427943600073 25.461453946163708 25.461453946163708 25.461453946163708 25.43947994872734 25.43947994872734 25.43947994872734 25.43947994872734 25.43947994872734 25.43947994872734 25.43947994872734 25.43947994872734 25.43947994872734 25.43947994872734 25.417505951290973 25.43947994872734 25.43947994872734 25.417505951290973 25.43947994872734 25.417505951290973 25.417505951290973 25.417505951290973 25.417505951290973 25.417505951290973 25.395531953854604 25.395531953854604 25.417505951290973 25.395531953854604 25.395531953854604 25.395531953854604 25.395531953854604 25.395531953854604 25.395531953854604 25.395531953854604 25.395531953854604 25.395531953854604 25.395531953854604 25.395531953854604 25.395531953854604 25.395531953854604 25.395531953854604 25.395531953854604 25.395531953854604 25.395531953854604 25.395531953854604 25.395531953854604 25.395531953854604 25.395531953854604 25.395531953854604 25.395531953854604 25.395531953854604 25.395531953854604 25.37355795641824 25.37355795641824 25.37355795641824 25.37355795641824 25.37355795641824 25.37355795641824 25.37355795641824 25.37355795641824 25.37355795641824 25.37355795641824 25.37355795641824 25.37355795641824 25.37355795641824 25.37355795641824 25.37355795641824 25.37355795641824 25.37355795641824 25.37355795641824 25.37355795641824 25.35158395898187 25.37355795641824 25.37355795641824 25.37355795641824 25.35158395898187 25.35158395898187 25.35158395898187 25.35158395898187 25.35158395898187 25.35158395898187 25.35158395898187 25.35158395898187 25.35158395898187 25.35158395898187 25.35158395898187 25.35158395898187 25.35158395898187 25.35158395898187 25.35158395898187 25.35158395898187 25.35158395898187 25.35158395898187 25.35158395898187 25.35158395898187 25.35158395898187 25.35158395898187 25.35158395898187 25.35158395898187 25.35158395898187 25.35158395898187 25.35158395898187 25.35158395898187 25.35158395898187 25.35158395898187 25.35158395898187 25.35158395898187 25.35158395898187 25.35158395898187 25.35158395898187 25.35158395898187 25.35158395898187 25.35158395898187 25.35158395898187 25.35158395898187 25.329609961545504 25.35158395898187 25.329609961545504 25.329609961545504 25.35158395898187 25.35158395898187 25.329609961545504 25.329609961545504 25.35158395898187 25.35158395898187 25.329609961545504 25.329609961545504 25.329609961545504 25.35158395898187 25.35158395898187 25.35158395898187 25.35158395898187 25.35158395898187 25.329609961545504 25.329609961545504 25.329609961545504 25.35158395898187 25.329609961545504 25.329609961545504 25.329609961545504 25.329609961545504 25.329609961545504 25.329609961545504 25.329609961545504 25.329609961545504 25.329609961545504 25.329609961545504 25.329609961545504 25.329609961545504 25.329609961545504 25.329609961545504 25.329609961545504 25.329609961545504 25.35158395898187 25.35158395898187 25.329609961545504 25.329609961545504 25.329609961545504 25.329609961545504 25.329609961545504 25.329609961545504 25.329609961545504 25.329609961545504 25.329609961545504 25.329609961545504 25.329609961545504 25.329609961545504 25.329609961545504 25.329609961545504 25.329609961545504 25.329609961545504 25.329609961545504 25.30763596410914 25.329609961545504 25.30763596410914 25.329609961545504 25.329609961545504 25.329609961545504 25.329609961545504 25.30763596410914 25.329609961545504 25.329609961545504 25.329609961545504 25.329609961545504 25.329609961545504 25.30763596410914 25.329609961545504 25.329609961545504 25.329609961545504 25.329609961545504 25.329609961545504 25.329609961545504 25.329609961545504 25.30763596410914 25.30763596410914 25.30763596410914 25.30763596410914 25.30763596410914 25.30763596410914 25.30763596410914 25.30763596410914 25.30763596410914 25.30763596410914 25.30763596410914 25.30763596410914 25.30763596410914 25.30763596410914 25.30763596410914 25.30763596410914 25.30763596410914 25.30763596410914 25.30763596410914 25.329609961545504 25.329609961545504 25.30763596410914 25.329609961545504 25.30763596410914 25.30763596410914 25.30763596410914 25.30763596410914 25.30763596410914 25.30763596410914 25.30763596410914 25.30763596410914 25.30763596410914 25.30763596410914 25.329609961545504 25.30763596410914 25.30763596410914 25.28566196667277 25.28566196667277 25.28566196667277 25.28566196667277 25.28566196667277 25.28566196667277 25.28566196667277 25.28566196667277 25.28566196667277 25.28566196667277 25.28566196667277 25.28566196667277 25.28566196667277 25.28566196667277 25.28566196667277 25.28566196667277 25.28566196667277 25.28566196667277 25.28566196667277 25.28566196667277 25.28566196667277 25.28566196667277 25.28566196667277 25.28566196667277 25.28566196667277 25.28566196667277 25.28566196667277 25.28566196667277 25.28566196667277 25.28566196667277 25.28566196667277 25.28566196667277 25.28566196667277 25.28566196667277 25.28566196667277 25.28566196667277 25.28566196667277 25.28566196667277 25.28566196667277 25.28566196667277 25.28566196667277 25.28566196667277 25.28566196667277 25.28566196667277 25.28566196667277 25.28566196667277 25.28566196667277 25.28566196667277 25.28566196667277 25.28566196667277 25.28566196667277 25.28566196667277 25.28566196667277 25.28566196667277 25.28566196667277 25.28566196667277 25.28566196667277 25.28566196667277 25.28566196667277 25.28566196667277 25.28566196667277 25.28566196667277 25.28566196667277 25.28566196667277 25.28566196667277 25.28566196667277 25.28566196667277 25.28566196667277 25.28566196667277 25.28566196667277 25.28566196667277 25.28566196667277 25.30763596410914 25.28566196667277 25.28566196667277 25.28566196667277 25.28566196667277 25.28566196667277 25.28566196667277 25.28566196667277 25.28566196667277 25.28566196667277 25.28566196667277 25.28566196667277 25.28566196667277 25.28566196667277 25.28566196667277 25.28566196667277 25.28566196667277 25.28566196667277 25.28566196667277 25.28566196667277 25.28566196667277 25.28566196667277 25.28566196667277 25.28566196667277 25.28566196667277 25.28566196667277 25.28566196667277 25.28566196667277 25.28566196667277 25.28566196667277 25.28566196667277 25.28566196667277 25.28566196667277 25.28566196667277 25.28566196667277 25.28566196667277 25.28566196667277 25.28566196667277 25.28566196667277 25.28566196667277 25.28566196667277 25.28566196667277 25.28566196667277 25.28566196667277 25.28566196667277 25.28566196667277 25.28566196667277 25.28566196667277 25.28566196667277 25.28566196667277 25.28566196667277 25.28566196667277 25.28566196667277 25.28566196667277 25.28566196667277 25.28566196667277 25.28566196667277 25.28566196667277 25.28566196667277 25.28566196667277 25.28566196667277 25.28566196667277 25.28566196667277 25.28566196667277 25.28566196667277 25.28566196667277 25.28566196667277 25.28566196667277 25.28566196667277 25.28566196667277 25.28566196667277 25.28566196667277 25.28566196667277 25.28566196667277 25.28566196667277 25.28566196667277 25.28566196667277 25.28566196667277 25.28566196667277 25.28566196667277 25.28566196667277 25.28566196667277 25.28566196667277 25.28566196667277 25.28566196667277 25.28566196667277 25.28566196667277 25.28566196667277 25.28566196667277 25.28566196667277 25.28566196667277 25.28566196667277 25.28566196667277 25.28566196667277 25.28566196667277 25.28566196667277 25.28566196667277 25.28566196667277 25.28566196667277 25.28566196667277 25.28566196667277 25.28566196667277 25.28566196667277 25.28566196667277 25.28566196667277 25.28566196667277 25.28566196667277 25.28566196667277 25.28566196667277 25.28566196667277 25.28566196667277 25.28566196667277 25.28566196667277 25.30763596410914 25.28566196667277 25.28566196667277 25.28566196667277 25.28566196667277 25.28566196667277 25.28566196667277 25.28566196667277 25.28566196667277 25.28566196667277 25.28566196667277 25.28566196667277 25.28566196667277 25.28566196667277 25.28566196667277 25.28566196667277 25.28566196667277 25.28566196667277 25.28566196667277 25.28566196667277 25.30763596410914 25.28566196667277 25.28566196667277 25.28566196667277 25.28566196667277 25.28566196667277 25.28566196667277 25.28566196667277 25.28566196667277 25.28566196667277 25.28566196667277 25.28566196667277 25.28566196667277 25.28566196667277 25.28566196667277 25.28566196667277 25.28566196667277 25.28566196667277 25.28566196667277 25.28566196667277 25.28566196667277 25.28566196667277 25.28566196667277 25.28566196667277 25.28566196667277 25.28566196667277 25.28566196667277 25.28566196667277 25.30763596410914 25.28566196667277 25.28566196667277 25.28566196667277 25.28566196667277 25.28566196667277 25.28566196667277 25.28566196667277 25.28566196667277 25.28566196667277 25.28566196667277 25.28566196667277 25.28566196667277 25.28566196667277 25.28566196667277 25.28566196667277 25.28566196667277 25.28566196667277 25.28566196667277 25.28566196667277 25.28566196667277 25.28566196667277 25.28566196667277 25.28566196667277 25.28566196667277 25.28566196667277 25.30763596410914 25.28566196667277 25.30763596410914 25.28566196667277 25.28566196667277 25.28566196667277 25.28566196667277 25.28566196667277 25.28566196667277 25.28566196667277 25.28566196667277 25.28566196667277 25.28566196667277 25.28566196667277 25.28566196667277 25.28566196667277 25.28566196667277 25.30763596410914 25.28566196667277 25.28566196667277 25.28566196667277 25.30763596410914 25.30763596410914 25.28566196667277 25.30763596410914 25.28566196667277 25.30763596410914 25.28566196667277 25.28566196667277 25.28566196667277 25.28566196667277 25.28566196667277 25.28566196667277 25.28566196667277 25.28566196667277 25.28566196667277 25.28566196667277 25.28566196667277 25.28566196667277 25.28566196667277 25.28566196667277 25.28566196667277 25.28566196667277 25.28566196667277 25.28566196667277 25.28566196667277 25.28566196667277 25.28566196667277 25.28566196667277 25.28566196667277 25.28566196667277 25.28566196667277 25.28566196667277 25.30763596410914 25.28566196667277 25.28566196667277 25.28566196667277 25.28566196667277 25.28566196667277 25.28566196667277 25.30763596410914 25.28566196667277 25.28566196667277 25.28566196667277 25.28566196667277 25.28566196667277 25.28566196667277 25.30763596410914 25.28566196667277 25.28566196667277 25.28566196667277 25.28566196667277 25.28566196667277 25.28566196667277 25.30763596410914 25.28566196667277 25.28566196667277 25.28566196667277 25.28566196667277 25.28566196667277 25.28566196667277 25.28566196667277 25.28566196667277 25.28566196667277 25.28566196667277 25.28566196667277 25.28566196667277 25.28566196667277 25.28566196667277 25.28566196667277 25.28566196667277 25.28566196667277 25.28566196667277 25.30763596410914 25.28566196667277 25.28566196667277 25.28566196667277 25.28566196667277 25.28566196667277 25.28566196667277 25.28566196667277 25.28566196667277 25.28566196667277 25.28566196667277 25.28566196667277 25.28566196667277 25.28566196667277 25.28566196667277 25.28566196667277 25.28566196667277 25.28566196667277 25.28566196667277 25.28566196667277 25.28566196667277 25.28566196667277 25.28566196667277 25.28566196667277 25.28566196667277 25.28566196667277 25.28566196667277 25.28566196667277 25.28566196667277 25.28566196667277 25.28566196667277 25.28566196667277 25.28566196667277 25.28566196667277 25.28566196667277 25.28566196667277 25.28566196667277 25.28566196667277 25.30763596410914 25.28566196667277 25.28566196667277 25.28566196667277 25.28566196667277 25.28566196667277 25.28566196667277 25.28566196667277 25.28566196667277 25.28566196667277 25.28566196667277 25.28566196667277 25.28566196667277 25.28566196667277 25.28566196667277 25.28566196667277 25.28566196667277 25.28566196667277 25.28566196667277 25.28566196667277 25.28566196667277 25.28566196667277 25.28566196667277 25.28566196667277 25.30763596410914 25.28566196667277 25.28566196667277 25.28566196667277 25.28566196667277 25.28566196667277 25.28566196667277 25.30763596410914 25.28566196667277 25.28566196667277 25.28566196667277 25.28566196667277 25.28566196667277 25.28566196667277 25.30763596410914 25.28566196667277 25.30763596410914 25.30763596410914 25.28566196667277 25.28566196667277 25.28566196667277 25.28566196667277 25.28566196667277 25.28566196667277 25.28566196667277 25.28566196667277 25.28566196667277 25.28566196667277 25.28566196667277 
