25.0 25.0 24.978026002563634 25.0 25.0 25.0 25.0 25.0 25.0 25.0 25.0 24.978026002563634 24.978026002563634 25.0 25.0 25.0 24.978026002563634 25.0 25.0 24.978026002563634 24.978026002563634 24.978026002563634 24.978026002563634 25.0 25.0 25.0 25.0 24.978026002563634 24.978026002563634 25.0 25.0 25.0 24.978026002563634 25.0 25.0 25.0 25.0 25.0 25.0 25.0 25.0 25.0 24.978026002563634 24.978026002563634 25.0 24.978026002563634 25.0 25.0 25.0 25.0 25.0 25.0 25.0 24.978026002563634 24.978026002563634 25.0 25.0 24.978026002563634 24.978026002563634 25.0 24.978026002563634 25.0 24.978026002563634 24.978026002563634 25.0 25.0 24.978026002563634 25.0 25.0 24.978026002563634 25.0 24.978026002563634 25.0 25.0 24.978026002563634 25.0 24.978026002563634 25.0 25.0 24.978026002563634 25.0 25.0 25.0 25.0 25.0 24.978026002563634 24.978026002563634 25.0 25.0 24.978026002563634 25.0 24.978026002563634 25.0 25.0 24.978026002563634 25.0 24.978026002563634 25.0 24.978026002563634 25.0 25.0 25.0 25.0 25.0 25.0 24.978026002563634 25.0 25.0 24.978026002563634 25.0 25.0 25.0 25.0 25.0 25.0 25.0 24.978026002563634 25.0 25.0 25.0 24.978026002563634 25.0 24.978026002563634 24.978026002563634 25.0 24.978026002563634 25.0 25.0 24.978026002563634 24.978026002563634 25.0 24.978026002563634 24.978026002563634 25.0 24.978026002563634 24.978026002563634 25.0 25.0 25.0 25.0 24.978026002563634 25.0 25.0 25.0 24.978026002563634 25.0 25.0 24.978026002563634 24.978026002563634 24.978026002563634 25.0 24.978026002563634 25.0 25.0 25.0 24.978026002563634 25.0 24.978026002563634 25.0 25.0 24.978026002563634 25.0 25.0 24.978026002563634 25.0 24.978026002563634 24.978026002563634 24.978026002563634 25.0 24.978026002563634 25.0 25.0 24.978026002563634 24.978026002563634 24.978026002563634 24.978026002563634 24.978026002563634 24.978026002563634 25.0 24.978026002563634 25.0 25.0 24.978026002563634 24.978026002563634 24.978026002563634 24.978026002563634 24.978026002563634 24.978026002563634 24.978026002563634 24.978026002563634 24.978026002563634 24.978026002563634 24.978026002563634 24.978026002563634 24.978026002563634 24.978026002563634 24.978026002563634 24.978026002563634 24.978026002563634 24.978026002563634 24.978026002563634 24.978026002563634 24.978026002563634 24.978026002563634 24.978026002563634 24.978026002563634 24.978026002563634 24.978026002563634 24.978026002563634 24.978026002563634 24.978026002563634 24.978026002563634 24.978026002563634 24.978026002563634 24.978026002563634 24.978026002563634 24.978026002563634 24.978026002563634 24.978026002563634 24.978026002563634 24.978026002563634 24.978026002563634 24.978026002563634 24.978026002563634 24.978026002563634 24.978026002563634 24.978026002563634 24.956052005127265 24.978026002563634 24.978026002563634 24.978026002563634 24.978026002563634 24.978026002563634 24.978026002563634 24.978026002563634 24.978026002563634 24.978026002563634 24.978026002563634 24.978026002563634 24.978026002563634 24.978026002563634 24.978026002563634 24.978026002563634 24.978026002563634 24.978026002563634 24.978026002563634 24.978026002563634 24.978026002563634 24.978026002563634 24.978026002563634 24.978026002563634 24.978026002563634 24.978026002563634 24.978026002563634 24.978026002563634 24.978026002563634 24.978026002563634 24.978026002563634 24.978026002563634 24.978026002563634 24.978026002563634 24.978026002563634 24.978026002563634 24.978026002563634 24.978026002563634 24.978026002563634 24.978026002563634 24.978026002563634 24.978026002563634 24.978026002563634 25.0 24.978026002563634 24.978026002563634 24.978026002563634 24.978026002563634 24.978026002563634 24.978026002563634 24.978026002563634 24.978026002563634 24.978026002563634 24.978026002563634 24.978026002563634 24.978026002563634 24.978026002563634 24.978026002563634 24.978026002563634 24.978026002563634 24.978026002563634 24.978026002563634 24.978026002563634 24.978026002563634 24.978026002563634 24.978026002563634 24.978026002563634 24.978026002563634 24.978026002563634 24.978026002563634 24.978026002563634 24.978026002563634 24.978026002563634 24.978026002563634 24.978026002563634 24.978026002563634 24.978026002563634 24.978026002563634 24.978026002563634 24.978026002563634 24.978026002563634 24.978026002563634 24.978026002563634 24.978026002563634 24.978026002563634 24.978026002563634 24.978026002563634 24.978026002563634 24.978026002563634 24.978026002563634 24.978026002563634 25.0 25.0 25.0 25.0 25.0 25.0 25.0 25.0 25.0 25.0 25.0 25.0 25.0 25.0 25.0 25.0 25.0 24.978026002563634 25.0 25.0 25.0 25.0 25.0 24.978026002563634 25.0 24.978026002563634 25.0 25.0 25.0 24.978026002563634 25.0 25.0 25.0 24.978026002563634 25.0 25.0 25.0 25.0 25.0 25.0 24.978026002563634 24.978026002563634 25.0 25.0 25.0 25.0 25.0 25.0 25.0 25.0 25.0 25.0 24.978026002563634 24.978026002563634 25.0 25.0 25.0 25.0 25.0 25.0 25.0 25.0 25.0 25.0 25.0 25.0 25.0 25.0 25.0 25.0 25.0 25.0 25.0 25.0 25.0 25.0 24.978026002563634 25.0 25.0 25.0 24.978026002563634 25.0 25.0 25.0 25.0 24.978026002563634 25.0 25.0 25.0 25.0 25.0 25.0 25.0 25.0 25.0 24.978026002563634 25.0 25.0 25.0 25.0 25.0 25.0 24.978026002563634 24.978026002563634 25.0 25.0 25.0 25.0 25.0 25.0 24.978026002563634 24.978026002563634 25.0 25.0 24.978026002563634 24.978026002563634 24.978026002563634 25.0 24.978026002563634 24.978026002563634 24.978026002563634 24.978026002563634 25.0 24.978026002563634 24.978026002563634 25.0 24.978026002563634 24.978026002563634 24.978026002563634 24.978026002563634 24.978026002563634 24.978026002563634 24.978026002563634 24.978026002563634 24.978026002563634 24.978026002563634 24.978026002563634 24.978026002563634 24.978026002563634 24.978026002563634 24.978026002563634 24.978026002563634 24.978026002563634 24.978026002563634 24.978026002563634 24.978026002563634 24.978026002563634 24.978026002563634 24.978026002563634 24.978026002563634 24.978026002563634 24.978026002563634 24.978026002563634 24.978026002563634 24.978026002563634 24.978026002563634 24.978026002563634 24.978026002563634 24.978026002563634 24.978026002563634 24.978026002563634 24.978026002563634 24.978026002563634 24.978026002563634 24.978026002563634 24.978026002563634 24.978026002563634 24.978026002563634 24.978026002563634 24.978026002563634 24.978026002563634 24.978026002563634 24.978026002563634 24.978026002563634 24.978026002563634 24.978026002563634 24.978026002563634 24.978026002563634 24.978026002563634 24.978026002563634 24.978026002563634 24.978026002563634 24.978026002563634 24.978026002563634 24.978026002563634 24.978026002563634 24.978026002563634 24.978026002563634 24.978026002563634 24.978026002563634 24.978026002563634 24.978026002563634 24.978026002563634 24.978026002563634 24.978026002563634 25.0 24.978026002563634 24.978026002563634 24.978026002563634 24.978026002563634 25.0 24.978026002563634 24.978026002563634 24.978026002563634 24.978026002563634 25.0 24.978026002563634 24.978026002563634 24.978026002563634 24.978026002563634 25.0 24.978026002563634 24.978026002563634 24.978026002563634 24.978026002563634 24.978026002563634 24.978026002563634 24.978026002563634 24.978026002563634 24.978026002563634 25.0 24.978026002563634 24.978026002563634 24.978026002563634 24.978026002563634 24.978026002563634 25.0 24.978026002563634 24.978026002563634 25.0 24.978026002563634 25.0 24.978026002563634 24.978026002563634 25.0 24.978026002563634 24.978026002563634 24.978026002563634 24.978026002563634 24.978026002563634 25.0 25.0 25.0 24.978026002563634 25.0 25.0 25.0 25.0 24.978026002563634 25.0 24.978026002563634 25.0 24.978026002563634 24.978026002563634 24.978026002563634 25.0 24.978026002563634 25.0 24.978026002563634 25.0 24.978026002563634 24.978026002563634 25.0 25.0 25.0 24.978026002563634 25.0 24.978026002563634 24.978026002563634 25.0 25.0 25.0 25.0 25.0 24.978026002563634 25.0 25.0 25.0 24.978026002563634 25.0 25.0 25.0 25.0 25.0 25.0 25.0 25.0 24.978026002563634 25.0 25.0 25.0 24.978026002563634 25.0 25.0 25.0 25.0 25.0 25.0 25.0 25.0 25.0 25.0 25.0 25.0 25.0 25.0 25.0 25.0 25.0 25.0 24.978026002563634 25.0 25.0 25.0 25.0 25.0 25.0 25.0 25.0 25.0 25.0 25.0 25.0 25.0 25.0 25.0 25.0 25.0 25.0 25.0 25.0 25.0 25.0 25.0 25.0 25.0 25.0 25.0 25.0 25.0 25.0 25.0 25.0 25.0 25.0 25.0 25.0 25.0 25.0 25.0 25.0 25.0 25.0 25.0 25.0 25.0 25.0 25.0 25.0 25.0 25.0 25.0 25.0 25.0 25.0 25.0 25.0 25.0 25.0 25.0 25.0 25.0 25.0 25.0 25.0 25.0 25.0 25.0 25.0 25.0 25.0 25.0 25.0 25.0 25.0 25.0 25.0 25.0 25.0 25.0 25.0 25.0 25.0 25.0 25.0 25.0 25.0 25.0 25.0 25.0 25.0 25.0 25.0 25.0 25.0 25.0 25.0 25.0 25.0 25.0 25.0 25.0 25.0 25.0 25.0 25.0 25.0 25.0 25.0 25.0 25.0 25.0 25.0 25.0 25.0 25.0 25.0 25.0 25.0 25.0 25.0 25.0 25.0 25.0 25.0 25.0 25.0 25.0 25.0 25.0 25.0 25.0 25.0 25.0 25.0 25.0 25.0 25.0 25.0 25.0 25.0 25.0 25.0 25.0 25.0 25.0 25.0 25.0 25.0 25.0 25.0 25.0 25.0 25.0 25.0 25.0 25.0 25.0 25.0 25.0 25.0 25.0 25.0 25.0 25.0 25.0 25.0 25.0 25.0 25.0 25.0 25.0 25.0 25.0 25.0 25.0 25.0 25.0 25.0 25.0 25.0 25.0 25.0 25.0 25.0 25.0 25.0 25.0 25.0 25.0 25.0 25.0 25.0 25.0 25.0 25.0 25.0 25.0 25.0 25.0 25.0 25.0 25.0 25.0 25.0 25.0 25.0 25.0 25.0 24.978026002563634 25.0 25.0 25.0 25.0 25.0 25.0 25.0 25.0 25.0 25.0 25.0 25.0 25.0 25.0 25.0 25.021973997436366 25.021973997436366 25.021973997436366 25.021973997436366 25.021973997436366 25.043947994872735 25.043947994872735 25.0659219923091 25.08789598974547 25.109869987181835 25.109869987181835 25.109869987181835 25.109869987181835 25.109869987181835 25.109869987181835 25.109869987181835 25.109869987181835 25.109869987181835 25.109869987181835 25.109869987181835 25.1318439846182 25.1318439846182 25.1318439846182 25.1318439846182 25.1318439846182 25.15381798205457 25.1318439846182 25.15381798205457 25.15381798205457 25.15381798205457 25.15381798205457 25.175791979490935 25.197765976927304 25.241713971800035 25.263687969236404 25.28566196667277 25.30763596410914 25.35158395898187 25.37355795641824 25.43947994872734 25.461453946163708 25.571323933345543 25.65921992309101 25.72514191540011 25.878959897454678 26.01080388207288 26.120673869254716 26.29646584874565 26.38436183849112 26.560153817982055 26.82384178721846 26.88976377952756 27.087529756454863 27.395165720564 27.636879692364037 27.944515656473172 28.16425563083684 28.55978758469145 28.955319538546053 29.219007507782457 29.570591466764327 29.812305438564366 30.163889397546235 30.493499359091743 30.735213330891778 31.108771287310017 31.482329243728255 31.78996520783739 32.29536714887384 32.646951107855706 33.218275041201245 34.05328694378319 34.49276689251053 35.19593481047427 35.67936275407435 36.22871268998352 36.953854605383626 37.7668925105292 38.55795641823842 39.41494231825673 39.942318256729536 40.77733015931148 41.91997802600257 42.05182201062077 43.150521882439115 43.831715802966485 44.820545687603 45.78740157480315 46.490569492766895 47.85295733382164 48.86376121589453 49.56692913385827 50.248123054385644 50.97326496978575 52.02801684673137 53.456326680095216 54.137520600622594 55.12635048525911 56.07123237502289 56.70847830067753 57.30177623145944 57.89507416224135 58.9937740340597 59.806811939205275 60.312213880241714 61.05932979307819 61.7844717084783 62.26789965207837 62.927119575169385 63.608313495696756 64.04779344442409 64.72898736495148 65.23438930598792 65.89360922907892 66.5748031496063 67.05823109320637 67.60758102911555 68.20087895989745 69.1018128547885 70.02472074711591 70.66196667277055 71.73869254715254 72.26606848562534 72.9692364035891 73.47463834462553 73.95806628822561 74.92492217542575 75.73796008057133 76.17744002929867 76.70481596777148 77.03442592931697 77.51785387291704 77.91338582677164 78.17707379600806 78.5506317524263 78.8802417139718 79.12195568577184 79.47353964475371 79.69327961911739 80.13275956784472 80.35249954220839 80.57223951657207 80.90184947811755 81.29738143197216 81.51712140633583 81.78080937557223 81.93462735762681 82.08844533968139 82.17634132942685 82.26423731917231 82.26423731917231 82.26423731917231 82.26423731917231 82.26423731917231 82.28621131660869 82.28621131660869 82.28621131660869 82.26423731917231 82.26423731917231 82.24226332173595 82.22028932429959 82.17634132942685 82.17634132942685 82.15436733199049 82.13239333455411 82.11041933711775 82.08844533968139 82.08844533968139 82.06647134224502 82.04449734480863 82.02252334737227 82.00054934993591 82.00054934993591 82.00054934993591 82.00054934993591 82.00054934993591 82.00054934993591 82.00054934993591 82.00054934993591 81.95660135506317 81.93462735762681 81.91265336019043 81.89067936275407 81.89067936275407 81.86870536531771 81.86870536531771 81.86870536531771 81.86870536531771 81.84673136788135 81.86870536531771 81.84673136788135 81.86870536531771 81.86870536531771 81.86870536531771 81.84673136788135 81.82475737044497 81.80278337300861 81.78080937557223 81.73686138069951 81.69291338582677 81.69291338582677 81.64896539095403 81.62699139351767 81.51712140633583 81.47317341146311 81.42922541659037 81.36330342428127 81.29738143197216 81.20948544222671 81.09961545504487 81.0117194652994 80.9457974729903 80.87987548068119 80.85790148324483 80.81395348837209 80.79197949093573 80.74803149606299 80.70408350119027 80.70408350119027 80.70408350119027 80.70408350119027 80.70408350119027 80.70408350119027 80.70408350119027 80.70408350119027 80.70408350119027 80.70408350119027 80.70408350119027 80.70408350119027 80.70408350119027 80.70408350119027 80.70408350119027 80.68210950375389 80.70408350119027 80.70408350119027 80.70408350119027 80.70408350119027 80.70408350119027 80.70408350119027 80.70408350119027 80.70408350119027 80.70408350119027 80.70408350119027 80.70408350119027 80.70408350119027 80.70408350119027 80.70408350119027 80.70408350119027 80.70408350119027 80.70408350119027 80.70408350119027 80.70408350119027 80.72605749862663 80.70408350119027 80.72605749862663 80.74803149606299 80.77000549349935 80.79197949093573 80.81395348837209 80.81395348837209 80.83592748580847 80.81395348837209 80.81395348837209 80.81395348837209 80.81395348837209 80.81395348837209 80.81395348837209 80.81395348837209 80.83592748580847 80.85790148324483 80.85790148324483 80.87987548068119 80.87987548068119 80.87987548068119 80.90184947811755 80.87987548068119 80.87987548068119 80.87987548068119 80.90184947811755 80.87987548068119 80.87987548068119 80.87987548068119 80.87987548068119 80.87987548068119 80.87987548068119 80.87987548068119 80.87987548068119 80.87987548068119 80.90184947811755 80.87987548068119 80.90184947811755 80.90184947811755 80.90184947811755 80.90184947811755 80.90184947811755 80.90184947811755 80.87987548068119 80.87987548068119 80.87987548068119 80.87987548068119 80.87987548068119 80.87987548068119 80.87987548068119 80.87987548068119 80.90184947811755 80.87987548068119 80.87987548068119 80.90184947811755 80.90184947811755 80.90184947811755 80.90184947811755 80.90184947811755 80.9457974729903 80.92382347555393 80.9457974729903 80.9457974729903 80.9457974729903 80.9457974729903 80.9457974729903 80.9457974729903 80.9457974729903 80.9457974729903 80.9457974729903 80.9457974729903 80.9457974729903 80.9457974729903 80.9457974729903 80.9457974729903 80.9457974729903 80.9457974729903 80.9457974729903 80.96777147042667 80.96777147042667 80.98974546786303 80.98974546786303 80.98974546786303 80.98974546786303 80.98974546786303 80.98974546786303 80.98974546786303 81.0117194652994 80.98974546786303 80.98974546786303 80.98974546786303 80.98974546786303 80.98974546786303 80.98974546786303 81.0117194652994 80.98974546786303 80.98974546786303 80.98974546786303 80.98974546786303 80.98974546786303 80.98974546786303 80.98974546786303 80.96777147042667 80.96777147042667 80.9457974729903 80.9457974729903 80.9457974729903 80.92382347555393 80.90184947811755 80.90184947811755 80.87987548068119 80.87987548068119 80.87987548068119 80.87987548068119 80.87987548068119 80.87987548068119 80.87987548068119 80.87987548068119 80.87987548068119 80.87987548068119 80.90184947811755 80.90184947811755 80.90184947811755 80.90184947811755 80.90184947811755 80.90184947811755 80.92382347555393 80.92382347555393 80.90184947811755 80.92382347555393 80.92382347555393 80.90184947811755 80.90184947811755 80.92382347555393 80.90184947811755 80.90184947811755 80.90184947811755 80.90184947811755 80.90184947811755 80.90184947811755 80.90184947811755 80.90184947811755 80.90184947811755 80.90184947811755 80.90184947811755 80.90184947811755 80.90184947811755 80.90184947811755 80.92382347555393 80.92382347555393 80.92382347555393 80.9457974729903 80.9457974729903 80.9457974729903 80.96777147042667 80.98974546786303 80.98974546786303 81.03369346273576 81.05566746017213 81.0776414576085 81.12158945248123 81.1435634499176 81.1435634499176 81.18751144479035 81.18751144479035 81.20948544222671 81.20948544222671 81.23145943966307 81.23145943966307 81.25343343709943 81.25343343709943 81.25343343709943 81.25343343709943 81.25343343709943 81.25343343709943 81.25343343709943 81.25343343709943 81.25343343709943 81.23145943966307 81.25343343709943 81.23145943966307 81.23145943966307 81.23145943966307 81.23145943966307 81.20948544222671 81.20948544222671 81.16553744735396 81.12158945248123 81.12158945248123 81.05566746017213 80.98974546786303 80.9457974729903 80.90184947811755 80.87987548068119 80.85790148324483 80.83592748580847 80.81395348837209 80.77000549349935 80.77000549349935 80.68210950375389 80.59421351400843 80.52829152169933 80.37447353964475 80.22065555759019 80.11078557040835 79.91301959348105 79.80314960629921 79.5394616370628 79.2757736678264 79.1439296832082 78.99011170115364 78.6165537447354 78.352865775499 78.02325581395348 77.82548983702618 77.49587987548068 77.23219190624428 77.03442592931697 76.59494598058964 76.50704999084417 76.33125801135323 76.02362204724409 75.84783006775316 75.54019410364401 75.16663614722579 74.90294817798939 74.35359824208021 74.11188427028017 73.91411829335286 73.51858633949826 73.25489837026186 72.85936641640725 72.33199047793445 71.98040651895258 71.4969785753525 71.18934261124336 70.66196667277055 70.35433070866142 69.8928767624977 69.47537081120674 68.99194286760667 68.68430690349753 68.24482695477019 67.84929500091559 67.21204907526095 66.86046511627907 66.48690715986083 65.91558322651528 65.45412928035158 65.12451931880608 64.86083134956968 64.641091375206 64.20161142647866 63.850027467496794 63.52041750595129 63.058963559787585 62.55356161875115 62.0481596777147 61.49880974180553 61.19117377769639 60.68577183665995 60.290239882805345 59.76286394433254 59.23548800585973 58.64219007507782 58.24665812122322 57.609412195568574 57.125984251968504 56.532686321186596 55.82951840322285 55.43398644936825 54.77476652627723 54.15949459805896 53.763962644204355 53.192638710858816 52.81908075444058 52.09393883904047 51.56656290056766 51.21497894158579 50.90734297747665 50.336019044131106 50.072331074894706 49.676799121040105 49.4131111518037 49.01757919794909 48.60007324665812 48.31441127998535 47.89690532869437 47.43545138253067 47.10584142098517 46.64438747482146 46.27082951840322 45.83134956967588 45.34792162607581 45.04028566196667 44.6227797106757 44.3590917414393 43.98553378502106 43.61197582860282 43.326313861930046 42.930781908075446 42.60117194652994 42.35945797472991 42.0957700054935 41.76616004394799 41.41457608496612 41.06299212598425 40.82127815418421 40.49166819263871 40.184032228529574 39.986266251602274 39.678630287493135 39.48086431056583 39.173228346456696 38.88756637978392 38.68980040285662 38.38216443874748 38.09650247207471 37.89873649514741 37.635048525911 37.415308551547334 37.1735945797473 36.822010620765425 36.646218641274494 36.360556674601725 36.07489470792895 35.87712873100165 35.67936275407435 35.39370078740157 35.08606482329244 34.7784288591833 34.55868888481963 34.25105292071049 33.943416956601354 33.67972898736495 33.372093023255815 33.130379051455776 32.778795092473906 32.42721113349204 32.16352316425563 31.68009522065556 31.35048525911005 31.130745284746382 30.932979307819082 30.757187328328143 30.493499359091743 30.119941402673504 29.9221754257462 29.61453946163706 29.240981505218826 28.97729353598242 28.69163156930965 28.38399560520051 28.076359641091376 27.90056766160044 27.768723676982237 27.592931697491302 27.461087712873102 27.219373741073063 27.10950375389123 26.911737776963925 26.845815784654825 26.757919794909355 26.691997802600255 26.648049807727524 26.60410181285479 26.560153817982055 26.560153817982055 26.538179820545686 26.51620582310932 26.472257828236586 26.406335835927486 26.340413843618386 26.318439846182017 26.23054385643655 26.164621864127447 26.120673869254716 26.054751876945616 26.01080388207288 25.944881889763778 25.878959897454678 25.856985900018312 25.791063907709212 25.769089910272843 25.72514191540011 25.681193920527377 25.637245925654643 25.615271928218274 25.571323933345543 25.549349935909174 25.527375938472808 25.50540194103644 25.483427943600073 25.461453946163708 25.43947994872734 25.417505951290973 25.417505951290973 25.395531953854604 25.395531953854604 25.395531953854604 25.395531953854604 25.395531953854604 25.37355795641824 25.37355795641824 25.37355795641824 25.37355795641824 25.35158395898187 25.35158395898187 25.37355795641824 25.35158395898187 25.35158395898187 25.35158395898187 25.35158395898187 25.329609961545504 25.35158395898187 25.35158395898187 25.35158395898187 25.329609961545504 25.329609961545504 25.329609961545504 25.329609961545504 25.329609961545504 25.329609961545504 25.329609961545504 25.329609961545504 25.329609961545504 25.329609961545504 25.329609961545504 25.30763596410914 25.30763596410914 25.30763596410914 25.30763596410914 25.30763596410914 25.30763596410914 25.30763596410914 25.30763596410914 25.30763596410914 25.28566196667277 25.28566196667277 25.28566196667277 25.28566196667277 25.28566196667277 25.28566196667277 25.28566196667277 25.263687969236404 25.263687969236404 25.28566196667277 25.263687969236404 25.263687969236404 25.263687969236404 25.263687969236404 25.263687969236404 25.263687969236404 25.263687969236404 25.241713971800035 25.241713971800035 25.241713971800035 25.241713971800035 25.241713971800035 25.241713971800035 25.241713971800035 25.241713971800035 25.241713971800035 25.241713971800035 25.241713971800035 25.241713971800035 25.21973997436367 25.241713971800035 25.21973997436367 25.21973997436367 25.241713971800035 25.21973997436367 25.21973997436367 25.21973997436367 25.21973997436367 25.21973997436367 25.21973997436367 25.21973997436367 25.21973997436367 25.21973997436367 25.21973997436367 25.21973997436367 25.21973997436367 25.21973997436367 25.21973997436367 25.21973997436367 25.21973997436367 25.21973997436367 25.21973997436367 25.21973997436367 25.21973997436367 25.21973997436367 25.197765976927304 25.197765976927304 25.21973997436367 25.197765976927304 25.197765976927304 25.197765976927304 25.21973997436367 25.197765976927304 25.197765976927304 25.197765976927304 25.197765976927304 25.197765976927304 25.197765976927304 25.197765976927304 25.197765976927304 25.197765976927304 25.197765976927304 25.197765976927304 25.197765976927304 25.197765976927304 25.197765976927304 25.197765976927304 25.197765976927304 25.197765976927304 25.197765976927304 25.197765976927304 25.197765976927304 25.197765976927304 25.197765976927304 25.197765976927304 25.197765976927304 25.197765976927304 25.197765976927304 25.175791979490935 25.197765976927304 25.175791979490935 25.197765976927304 25.197765976927304 25.197765976927304 25.197765976927304 25.197765976927304 25.175791979490935 25.175791979490935 25.175791979490935 25.175791979490935 25.175791979490935 25.175791979490935 25.175791979490935 25.175791979490935 25.175791979490935 25.175791979490935 25.175791979490935 25.175791979490935 25.175791979490935 25.175791979490935 25.175791979490935 25.175791979490935 25.175791979490935 25.175791979490935 25.175791979490935 25.175791979490935 25.175791979490935 25.175791979490935 25.175791979490935 25.175791979490935 25.175791979490935 25.197765976927304 25.175791979490935 25.175791979490935 25.175791979490935 25.175791979490935 25.175791979490935 25.175791979490935 25.175791979490935 25.175791979490935 25.175791979490935 25.175791979490935 25.175791979490935 25.175791979490935 25.175791979490935 25.175791979490935 25.175791979490935 25.175791979490935 25.175791979490935 25.175791979490935 25.175791979490935 25.175791979490935 25.175791979490935 25.175791979490935 25.175791979490935 25.175791979490935 25.175791979490935 25.197765976927304 25.175791979490935 25.175791979490935 25.175791979490935 25.175791979490935 25.197765976927304 25.197765976927304 25.197765976927304 25.197765976927304 25.197765976927304 25.197765976927304 25.21973997436367 25.21973997436367 25.241713971800035 25.263687969236404 25.263687969236404 25.30763596410914 25.329609961545504 25.35158395898187 25.37355795641824 25.417505951290973 25.483427943600073 25.549349935909174 25.593297930781908 25.65921992309101 25.72514191540011 25.813037905145578 25.900933894891047 25.966855887200147 26.07672587438198 26.186595861563816 26.274491851309286 26.38436183849112 26.494231825672955 26.626075810291155 26.80186778978209 26.933711774400294 27.197399743636698 27.724775682109502 28.010437648782275 28.38399560520051 28.603735579564184 28.84544955136422 29.065189525727888 29.372825489837027 29.812305438564366 30.339681377037174 30.757187328328143 31.37245925654642 31.767991210401025 32.40523713605567 32.97656106940121 33.372093023255815 33.96539095403772 34.60263687969236 35.23988280534701 36.118842702801686 36.338582677165356 36.997802600256364 37.67899652078374 37.92071049258378 38.64585240798389 39.656656290056766 40.162058231093205 40.99707013367515 41.59036806445706 42.40340596960264 43.260391869620946 43.85368980040286 44.73264969785754 45.61160959531222 46.20490752609412 47.039919428676065 47.58926936458524 48.66599523896723 49.45705914667643 49.91851309284014 50.445889031312944 50.90734297747665 51.50064090825856 52.09393883904047 52.70921076725874 53.346456692913385 53.98370261856803 54.48910455960447 54.95055850576817 55.45596044680461 56.26899835195019 56.9941402673503 57.52151620582311 58.26863211865959 59.01574803149606 59.56509796740524 60.40010986998718 60.99340780076909 61.8503937007874 62.72935359824208 63.322651529023986 64.1796374290423 65.23438930598792 65.78373924189708 66.42098516755172 67.03625709577 67.84929500091559 68.66233290606115 69.18970884453397 70.20051272660686 70.92565464200696 71.45303058047976 71.95843252151622 72.57370444973449 73.2329243728255 73.8921442959165 74.33162424464385 74.96887017029849 75.49624610877129 75.71598608313496 76.33125801135323 76.77073796008057 77.32008789598976 77.84746383446256 78.17707379600806 78.63852774217176 79.07800769089911 79.5394616370628 79.82512360373559 80.24262955502655 80.50631752426295 80.9457974729903 81.1435634499176 81.42922541659037 81.71488738326315 81.89067936275407 82.11041933711775 82.35213330891779 82.63779527559055 82.90148324482695 83.0772752243179 83.31898919611793 83.45083318073613 83.62662516022706 83.802417139718 83.91228712689984 84.08807910639078 84.24189708844534 84.37374107306354 84.5275590551181 84.59348104742722 84.65940303973632 84.72532503204542 84.72532503204542 84.74729902948178 84.76927302691814 84.76927302691814 84.76927302691814 84.76927302691814 84.76927302691814 84.76927302691814 84.76927302691814 84.76927302691814 84.76927302691814 84.76927302691814 84.76927302691814 84.76927302691814 84.76927302691814 84.76927302691814 84.76927302691814 84.74729902948178 84.74729902948178 84.74729902948178 84.76927302691814 84.76927302691814 84.74729902948178 84.76927302691814 84.74729902948178 84.70335103460906 84.65940303973632 84.65940303973632 84.63742904229994 84.59348104742722 84.54953305255447 84.46163706280902 84.3957150704999 84.28584508331807 84.1979490935726 84.15400109869987 84.08807910639078 84.0661051089544 84.04413111151804 83.97820911920894 83.95623512177258 83.89031312946346 83.84636513459074 83.78044314228164 83.7364951474089 83.67057315509979 83.62662516022706 83.58267716535434 83.58267716535434 83.56070316791798 83.53872917048159 83.51675517304523 83.49478117560886 83.4728071781725 83.45083318073613 83.42885918329976 83.40688518586339 83.38491118842703 83.36293719099066 83.31898919611793 83.27504120124519 83.23109320637246 83.14319721662699 83.03332722944516 82.98937923457243 82.9454312396997 82.90148324482695 82.87950924739059 82.85753524995422 82.83556125251786 82.85753524995422 82.83556125251786 82.83556125251786 82.83556125251786 82.83556125251786 82.85753524995422 82.85753524995422 82.83556125251786 82.85753524995422 82.85753524995422 82.85753524995422 82.85753524995422 82.85753524995422 82.83556125251786 82.85753524995422 82.85753524995422 82.85753524995422 82.85753524995422 82.87950924739059 82.87950924739059 82.85753524995422 82.87950924739059 82.87950924739059 82.87950924739059 82.87950924739059 82.87950924739059 82.87950924739059 82.87950924739059 82.87950924739059 82.87950924739059 82.87950924739059 82.87950924739059 82.92345724226331 82.92345724226331 82.9454312396997 82.9454312396997 82.96740523713606 82.96740523713606 82.9454312396997 82.9454312396997 82.9454312396997 82.9454312396997 82.9454312396997 82.9454312396997 82.9454312396997 82.9454312396997 82.9454312396997 82.9454312396997 82.92345724226331 82.92345724226331 82.92345724226331 82.92345724226331 82.92345724226331 82.92345724226331 82.92345724226331 82.92345724226331 82.90148324482695 82.92345724226331 82.92345724226331 82.90148324482695 82.92345724226331 82.92345724226331 82.92345724226331 82.92345724226331 82.92345724226331 82.92345724226331 82.90148324482695 82.90148324482695 82.90148324482695 82.90148324482695 82.90148324482695 82.92345724226331 82.90148324482695 82.90148324482695 82.87950924739059 82.87950924739059 82.87950924739059 82.87950924739059 82.87950924739059 82.87950924739059 82.87950924739059 82.87950924739059 82.87950924739059 82.87950924739059 82.87950924739059 82.87950924739059 82.87950924739059 82.87950924739059 82.85753524995422 82.83556125251786 82.83556125251786 82.8135872550815 82.8135872550815 82.79161325764511 82.76963926020875 82.74766526277239 82.72569126533602 82.70371726789965 82.65976927302691 82.63779527559055 82.61582127815419 82.57187328328145 82.57187328328145 82.57187328328145 82.57187328328145 82.57187328328145 82.57187328328145 82.57187328328145 82.57187328328145 82.57187328328145 82.57187328328145 82.57187328328145 82.57187328328145 82.57187328328145 82.57187328328145 82.57187328328145 82.57187328328145 82.57187328328145 82.57187328328145 82.57187328328145 82.57187328328145 82.57187328328145 82.57187328328145 82.57187328328145 82.57187328328145 82.57187328328145 82.57187328328145 82.57187328328145 82.54989928584509 82.52792528840871 82.48397729353599 82.46200329609962 82.44002929866325 82.41805530122689 82.39608130379051 82.35213330891779 82.35213330891779 82.35213330891779 82.35213330891779 82.33015931148142 82.35213330891779 82.33015931148142 82.33015931148142 82.35213330891779 82.35213330891779 82.35213330891779 82.35213330891779 82.33015931148142 82.33015931148142 82.33015931148142 82.30818531404505 82.24226332173595 82.19831532686322 82.17634132942685 82.06647134224502 82.00054934993591 81.95660135506317 81.91265336019043 81.89067936275407 81.82475737044497 81.73686138069951 81.69291338582677 81.60501739608131 81.56106940120857 81.47317341146311 81.38527742171763 81.29738143197216 81.1435634499176 80.98974546786303 80.85790148324483 80.66013550631753 80.50631752426295 80.13275956784472 79.95696758835379 79.73722761399011 79.45156564731734 79.1439296832082 78.96813770371728 78.63852774217176 78.30891778062626 78.04522981138985 77.82548983702618 77.64969785753524 77.36403589086248 77.05639992675334 76.77073796008057 76.44112799853508 76.2213880241714 75.89177806262589 75.71598608313496 75.43032411646219 74.96887017029849 74.68320820362571 74.39754623695293 73.95806628822561 73.65043032411646 73.21095037538913 72.79344442409815 72.48580845998902 72.11225050357078 71.7606665445889 71.54092657022522 71.21131660867974 70.99157663431606 70.53012268815235 70.22248672404322 70.13459073429775 69.8269547701886 69.431422816334 69.21168284197034 68.90404687786119 68.64035890862479 68.26680095220655 67.80534700604285 67.51968503937007 66.99230910089727 66.5088811572972 66.20124519318806 65.717817249588 65.43215528291522 65.0366233290606 64.70701336751512 64.46529939571508 64.09174143929684 63.828053470060425 63.432521516205824 62.88317158029665 62.64145760849661 62.59750961362388 62.33382164438748 62.20197765976927 61.87236769822377 61.49880974180553 61.03735579564182 60.55392785204175 60.202343893059876 59.69694195202344 59.21351400842337 58.8619300494415 58.40047610327779 58.07086614173228 57.63138619300494 57.169932246841235 56.70847830067753 56.26899835195019 55.917414392968325 55.63175242629555 55.17029848013185 54.86266251602271 54.401208569859 53.763962644204355 53.456326680095216 52.97289873649515 52.48947079289508 52.11591283647684 51.78630287493133 51.23695293902216 50.709577000549345 50.182201062076544 49.852591100531036 49.3471891594946 48.86376121589453 48.33638527742171 47.98480131843985 47.63321735945797 47.10584142098517 46.57846548251236 46.182933528657756 45.43581761582128 44.90844167734847 44.4909357260575 44.09540377220289 43.699871818348285 43.260391869620946 42.82091192089361 42.35945797472991 41.98590001831167 41.61234206189343 41.41457608496612 41.17286211316609 40.84325215162058 40.513642190075075 40.206006225965936 39.986266251602274 39.722578282365866 39.524812305438566 39.239150338765796 38.97546236952939 38.77769639260209 38.51400842336568 38.22834645669291 38.05255447720198 37.7668925105292 37.45925654642007 37.1076725874382 36.843984618201794 36.58029664896539 36.22871268998352 35.78923274125618 35.39370078740157 35.02014283098333 34.75645486174693 34.38289690532869 34.11920893609229 33.767624977110415 33.416041018128546 33.108405054019414 32.866691082219376 32.581029115546606 32.3832631386193 32.09760117194653 31.78996520783739 31.59219923091009 31.28456326680095 30.954953305255447 30.713239333455412 30.36165537447354 30.14191540010987 29.63651345907343 29.350851492400658 29.087163523164257 28.603735579564184 28.208203625709576 28.12030763596411 27.90056766160044 27.790697674418606 27.702801684673137 27.570957700054933 27.461087712873102 27.329243728254898 27.197399743636698 27.087529756454863 26.95568577183666 26.845815784654825 26.713971800036624 26.60410181285479 26.51620582310932 26.42830983336385 26.36238784105475 26.29646584874565 26.23054385643655 26.186595861563816 26.120673869254716 26.032777879509247 26.01080388207288 25.944881889763778 25.900933894891047 25.835011902581943 25.769089910272843 25.72514191540011 25.637245925654643 25.50540194103644 25.483427943600073 25.395531953854604 25.30763596410914 25.30763596410914 25.28566196667277 25.263687969236404 25.241713971800035 25.21973997436367 25.21973997436367 25.21973997436367 25.197765976927304 25.197765976927304 25.175791979490935 25.175791979490935 25.175791979490935 25.175791979490935 25.15381798205457 25.15381798205457 25.15381798205457 25.15381798205457 25.15381798205457 25.15381798205457 25.15381798205457 25.1318439846182 25.1318439846182 25.1318439846182 25.1318439846182 25.109869987181835 25.1318439846182 25.109869987181835 25.109869987181835 25.109869987181835 25.109869987181835 25.109869987181835 25.109869987181835 25.109869987181835 25.109869987181835 25.109869987181835 25.109869987181835 25.109869987181835 25.109869987181835 25.109869987181835 25.109869987181835 25.109869987181835 25.109869987181835 25.109869987181835 25.08789598974547 25.109869987181835 25.109869987181835 25.109869987181835 25.08789598974547 25.08789598974547 25.08789598974547 25.109869987181835 25.109869987181835 25.109869987181835 25.08789598974547 25.109869987181835 25.109869987181835 25.08789598974547 25.08789598974547 25.08789598974547 25.08789598974547 25.08789598974547 25.08789598974547 25.08789598974547 25.08789598974547 25.08789598974547 25.0659219923091 25.0659219923091 25.0659219923091 25.0659219923091 25.0659219923091 25.0659219923091 25.0659219923091 25.0659219923091 25.0659219923091 25.0659219923091 25.0659219923091 25.0659219923091 25.0659219923091 25.0659219923091 25.0659219923091 25.0659219923091 25.043947994872735 25.0659219923091 25.043947994872735 25.043947994872735 25.043947994872735 25.043947994872735 25.043947994872735 25.043947994872735 25.043947994872735 25.043947994872735 25.043947994872735 25.043947994872735 25.043947994872735 25.043947994872735 25.043947994872735 25.043947994872735 25.043947994872735 25.043947994872735 25.043947994872735 25.043947994872735 25.021973997436366 25.043947994872735 25.021973997436366 25.021973997436366 25.043947994872735 25.021973997436366 25.021973997436366 25.021973997436366 25.021973997436366 25.021973997436366 25.021973997436366 25.021973997436366 25.021973997436366 25.021973997436366 25.021973997436366 25.021973997436366 25.021973997436366 25.021973997436366 25.021973997436366 25.021973997436366 25.021973997436366 25.021973997436366 25.021973997436366 25.021973997436366 25.021973997436366 25.021973997436366 25.0 25.021973997436366 25.021973997436366 25.0 25.021973997436366 25.021973997436366 25.0 25.021973997436366 25.0 25.021973997436366 25.0 25.021973997436366 25.0 25.021973997436366 25.021973997436366 25.021973997436366 25.0 25.021973997436366 25.021973997436366 25.0 25.021973997436366 25.0 25.021973997436366 25.021973997436366 25.021973997436366 25.0 25.0 25.0 25.021973997436366 25.0 25.0 25.0 25.0 25.0 25.0 25.0 25.0 25.0 25.0 25.0 25.0 25.0 25.0 25.0 25.0 25.0 25.0 25.0 25.0 25.0 24.978026002563634 24.978026002563634 25.0 24.978026002563634 25.0 25.0 25.0 24.978026002563634 24.978026002563634 24.978026002563634 25.0 24.978026002563634 25.0 24.978026002563634 25.0 25.0 24.978026002563634 24.978026002563634 24.978026002563634 24.978026002563634 24.978026002563634 24.978026002563634 24.978026002563634 24.978026002563634 24.978026002563634 24.978026002563634 24.978026002563634 24.978026002563634 24.978026002563634 24.978026002563634 24.978026002563634 24.978026002563634 24.978026002563634 24.978026002563634 24.978026002563634 24.978026002563634 24.978026002563634 24.978026002563634 24.978026002563634 24.978026002563634 24.978026002563634 24.978026002563634 24.978026002563634 24.978026002563634 24.978026002563634 24.978026002563634 24.978026002563634 24.978026002563634 24.978026002563634 24.978026002563634 24.978026002563634 24.978026002563634 24.978026002563634 24.978026002563634 24.978026002563634 24.978026002563634 24.978026002563634 24.978026002563634 25.0 25.0 25.0 25.0 25.021973997436366 25.0 25.021973997436366 25.021973997436366 25.021973997436366 25.043947994872735 25.043947994872735 25.043947994872735 25.0659219923091 25.0659219923091 25.0659219923091 25.08789598974547 25.08789598974547 25.08789598974547 25.109869987181835 25.1318439846182 25.1318439846182 25.15381798205457 25.15381798205457 25.175791979490935 25.175791979490935 25.241713971800035 25.28566196667277 25.329609961545504 25.37355795641824 25.43947994872734 25.461453946163708 25.50540194103644 25.571323933345543 25.637245925654643 25.703167917963743 25.769089910272843 25.856985900018312 25.944881889763778 26.032777879509247 26.164621864127447 26.274491851309286 26.42830983336385 26.58212781541842 26.713971800036624 26.999633766709394 27.307269730818533 27.527009705182202 27.87859366416407 28.12030763596411 28.49386559238235 28.97729353598242 29.262955502655192 29.63651345907343 30.054019410364404 30.36165537447354 30.779161325764512 31.108771287310017 31.548251236037355 32.03167917963743 32.3832631386193 32.91063907709211 33.262223036073976 33.877494964292254 34.42684490020143 34.8443508514924 35.43764878227431 36.07489470792895 36.536348654092656 37.4372825489837 37.92071049258378 38.62387841054752 39.12928035158396 39.656656290056766 40.447720197765975 41.56839406702069 42.18366599523897 43.01867789782091 43.590001831166454 44.4909357260575 45.34792162607581 45.919245559421356 46.754257462003295 47.54532136971251 48.09467130562168 48.90770921076726 49.45705914667643 50.533785021058414 51.10510895440396 51.65445889031313 52.357626808276876 53.104742721113354 53.632118659586155 54.64292254165903 55.12635048525911 55.85149240065922 56.400842336568395 56.818348287859365 57.52151620582311 58.15876213147775 58.79600805713239 59.433253982787036 59.850759934078006 60.46603186229628 61.05932979307819 61.45486174693279 62.07013367515107 62.68540560336935 63.080937557223955 63.696209485442225 64.1137154367332 64.70701336751512 65.52005127266068 65.78373924189708 66.3111151803699 66.9044131111518 67.29994506500641 67.89324299578831 68.28877494964291 69.25563083684307 69.6291887932613 69.93682475737045 70.39827870353415 70.94762863944334 71.45303058047976 71.8925105292071 72.20014649331624 72.66160043947995 73.14502838308002 73.47463834462553 73.93609229078925 74.26570225233473 74.74913019593481 75.32045412928035 75.71598608313496 76.15546603186229 76.5509979857169 76.8146859549533 77.10034792162608 77.32008789598976 77.60574986266252 78.00128181651712 78.17707379600806 78.44076176524446 78.66050173960812 78.77037172678996 78.99011170115364 79.12195568577184 79.2757736678264 79.4076176524446 79.5394616370628 79.60538362937191 79.71525361655375 79.80314960629921 79.93499359091741 80.00091558322652 80.11078557040835 80.17670756271745 80.22065555759019 80.28657754989928 80.28657754989928 80.28657754989928 80.28657754989928 80.30855154733565 80.33052554477202 80.41842153451748 80.46236952939023 80.50631752426295 80.57223951657207 80.63816150888115 80.68210950375389 80.77000549349935 80.81395348837209 80.90184947811755 80.9457974729903 81.03369346273576 81.1435634499176 81.16553744735396 81.20948544222671 81.20948544222671 81.25343343709943 81.25343343709943 81.29738143197216 81.36330342428127 81.38527742171763 81.47317341146311 81.51712140633583 81.60501739608131 81.73686138069951 81.84673136788135 81.91265336019043 82.02252334737227 82.11041933711775 82.24226332173595 82.37410730635415 82.46200329609962 82.57187328328145 82.65976927302691 82.72569126533602 82.79161325764511 82.83556125251786 82.92345724226331 82.96740523713606 83.01135323200879 83.05530122688153 83.09924922175426 83.12122321919063 83.12122321919063 83.14319721662699 83.14319721662699 83.14319721662699 83.14319721662699 83.14319721662699 83.14319721662699 83.14319721662699 83.14319721662699 83.14319721662699 83.14319721662699 83.14319721662699 83.14319721662699 83.14319721662699 83.14319721662699 83.14319721662699 83.12122321919063 83.09924922175426 83.05530122688153 83.01135323200879 82.98937923457243 82.96740523713606 82.9454312396997 82.96740523713606 82.9454312396997 82.96740523713606 82.96740523713606 82.96740523713606 82.96740523713606 82.96740523713606 82.96740523713606 82.96740523713606 82.98937923457243 82.98937923457243 82.98937923457243 82.96740523713606 82.98937923457243 82.98937923457243 82.98937923457243 82.98937923457243 82.96740523713606 82.98937923457243 82.98937923457243 82.98937923457243 82.96740523713606 82.96740523713606 82.96740523713606 82.96740523713606 82.96740523713606 82.96740523713606 82.96740523713606 82.9454312396997 82.92345724226331 82.92345724226331 82.92345724226331 82.90148324482695 82.92345724226331 82.92345724226331 82.92345724226331 82.92345724226331 82.92345724226331 82.92345724226331 82.92345724226331 82.9454312396997 82.9454312396997 82.9454312396997 82.9454312396997 82.9454312396997 82.9454312396997 82.9454312396997 82.9454312396997 82.9454312396997 82.9454312396997 82.9454312396997 82.9454312396997 82.9454312396997 82.9454312396997 82.96740523713606 82.96740523713606 82.9454312396997 82.9454312396997 82.96740523713606 82.96740523713606 82.98937923457243 83.01135323200879 83.01135323200879 83.01135323200879 83.01135323200879 83.01135323200879 83.01135323200879 83.01135323200879 83.01135323200879 83.01135323200879 83.01135323200879 83.01135323200879 83.01135323200879 83.01135323200879 83.01135323200879 83.01135323200879 83.01135323200879 83.01135323200879 82.98937923457243 82.98937923457243 83.01135323200879 83.01135323200879 82.98937923457243 82.98937923457243 82.98937923457243 82.98937923457243 82.98937923457243 82.98937923457243 82.98937923457243 82.98937923457243 82.98937923457243 82.98937923457243 82.98937923457243 82.98937923457243 82.98937923457243 82.98937923457243 83.01135323200879 83.01135323200879 83.01135323200879 83.03332722944516 83.05530122688153 83.05530122688153 83.0772752243179 83.09924922175426 83.12122321919063 83.14319721662699 83.14319721662699 83.14319721662699 83.14319721662699 83.14319721662699 83.14319721662699 83.16517121406336 83.16517121406336 83.16517121406336 83.16517121406336 83.16517121406336 83.16517121406336 83.16517121406336 83.16517121406336 83.16517121406336 83.16517121406336 83.16517121406336 83.16517121406336 83.16517121406336 83.16517121406336 83.16517121406336 83.16517121406336 83.16517121406336 83.14319721662699 83.14319721662699 83.14319721662699 83.12122321919063 83.12122321919063 83.09924922175426 83.0772752243179 83.05530122688153 83.01135323200879 82.98937923457243 82.90148324482695 82.76963926020875 82.72569126533602 82.61582127815419 82.50595129097235 82.46200329609962 82.33015931148142 82.19831532686322 82.04449734480863 81.91265336019043 81.82475737044497 81.64896539095403 81.47317341146311 81.38527742171763 81.2754074345358 81.18751144479035 81.05566746017213 80.92382347555393 80.81395348837209 80.66013550631753 80.50631752426295 80.44039553195387 80.28657754989928 80.17670756271745 80.00091558322652 79.75920161142648 79.62735762680828 79.42959164988098 79.23182567295368 79.09998168833548 78.96813770371728 78.83629371909907 78.6165537447354 78.46273576268084 78.352865775499 78.17707379600806 78.00128181651712 77.86943783189892 77.73759384728072 77.62772386009888 77.51785387291704 77.38600988829884 77.276139901117 77.03442592931697 76.8146859549533 76.63889397546237 76.44112799853508 76.24336202160777 75.6940120856986 75.58414209851676 75.18861014466215 74.85900018311665 74.44149423182567 74.11188427028017 73.8262223036074 73.34279436000733 72.88134041384362 72.39791247024354 72.04632851126168 71.54092657022522 71.167368613807 70.68394067020692 70.17853872917048 69.84892876762498 69.34352682658854 68.81615088811573 68.44259293169749 67.89324299578831 67.51968503937007 66.70664713422451 66.35506317524263 65.95953122138803 65.41018128547884 64.68503937007874 64.33345541109688 63.784105475187694 63.410547518769455 62.79527559055118 62.22395165720564 61.74052371360557 61.19117377769639 60.53195385460538 60.070499908441676 59.47720197765977 59.10364402124153 58.51034609045962 57.89507416224135 57.47756821095037 56.906244277604834 56.378868339132026 56.02728438015016 55.49990844167735 55.30214246475005 55.03845449551364 54.5330525544772 54.15949459805896 53.368430690349754 52.841054751876946 52.46749679545871 52.24775682109504 51.98406885185864 51.4786669108222 50.95129097234938 50.55575901849478 50.006409082585606 49.43508514924007 49.01757919794909 48.38033327229445 47.78703534151254 47.17176341329427 46.73228346456693 46.33675151071232 45.919245559421356 45.41384361838491 44.97436366965757 44.53488372093023 44.22724775682109 43.831715802966485 43.436183849111885 43.194469877311846 42.930781908075446 42.51327595678447 42.13971800036623 41.76616004394799 41.50247207471159 41.10694012085699 40.71140816700238 40.403772202893244 39.986266251602274 39.678630287493135 39.19520234389306 38.64585240798389 38.27229445156565 37.54715253616554 36.953854605383626 36.668192638710856 36.14081670023805 35.74528474638345 35.17396081303791 34.62461087712873 34.075260941219554 33.61380699505585 33.152353048892145 32.88866507965574 32.4491851309284 32.185497161692 31.87786119758286 31.59219923091009 31.394433253982786 31.15271928218275 30.954953305255447 30.823109320637247 30.603369346273574 30.44955136421901 30.20783739241897 29.944149423182566 29.746383446255265 29.438747482146127 28.91137154367332 28.603735579564184 28.27412561801868 27.922541659036806 27.527009705182202 27.307269730818533 27.153451748763963 26.95568577183666 26.82384178721846 26.757919794909355 26.691997802600255 26.691997802600255 26.67002380516389 26.67002380516389 26.648049807727524 26.626075810291155 26.60410181285479 26.60410181285479 26.560153817982055 26.538179820545686 26.494231825672955 26.406335835927486 26.38436183849112 26.274491851309286 26.23054385643655 26.098699871818347 26.054751876945616 26.01080388207288 25.966855887200147 25.900933894891047 25.835011902581943 25.747115912836477 25.703167917963743 25.637245925654643 25.593297930781908 25.527375938472808 25.461453946163708 25.395531953854604 25.37355795641824 25.35158395898187 25.329609961545504 25.329609961545504 25.30763596410914 25.28566196667277 25.263687969236404 25.241713971800035 25.21973997436367 25.197765976927304 25.175791979490935 25.15381798205457 25.1318439846182 25.109869987181835 25.109869987181835 25.08789598974547 25.08789598974547 25.0659219923091 25.08789598974547 25.0659219923091 25.0659219923091 25.0659219923091 25.0659219923091 25.0659219923091 25.0659219923091 25.0659219923091 25.0659219923091 25.0659219923091 25.043947994872735 25.0659219923091 25.043947994872735 25.0659219923091 25.043947994872735 25.043947994872735 25.043947994872735 25.043947994872735 25.043947994872735 25.0659219923091 25.043947994872735 25.043947994872735 25.043947994872735 25.043947994872735 25.043947994872735 25.043947994872735 25.043947994872735 25.043947994872735 25.043947994872735 25.043947994872735 25.043947994872735 25.043947994872735 25.043947994872735 25.043947994872735 25.043947994872735 25.043947994872735 25.043947994872735 25.043947994872735 25.043947994872735 25.043947994872735 25.043947994872735 25.043947994872735 25.043947994872735 25.043947994872735 25.043947994872735 25.043947994872735 25.043947994872735 25.043947994872735 25.043947994872735 25.043947994872735 25.043947994872735 25.043947994872735 25.043947994872735 25.043947994872735 25.043947994872735 25.043947994872735 25.043947994872735 25.021973997436366 25.043947994872735 25.021973997436366 25.021973997436366 25.043947994872735 25.043947994872735 25.021973997436366 25.043947994872735 25.021973997436366 25.043947994872735 25.021973997436366 25.021973997436366 25.021973997436366 25.043947994872735 25.021973997436366 25.021973997436366 25.021973997436366 25.021973997436366 25.021973997436366 25.021973997436366 25.021973997436366 25.043947994872735 25.021973997436366 25.021973997436366 25.021973997436366 25.021973997436366 25.021973997436366 25.021973997436366 25.021973997436366 25.021973997436366 25.021973997436366 25.021973997436366 25.021973997436366 25.021973997436366 25.021973997436366 25.021973997436366 25.021973997436366 25.021973997436366 25.021973997436366 25.021973997436366 25.021973997436366 25.021973997436366 25.021973997436366 25.021973997436366 25.021973997436366 25.021973997436366 25.021973997436366 25.021973997436366 25.021973997436366 25.021973997436366 25.021973997436366 25.021973997436366 25.021973997436366 25.021973997436366 25.021973997436366 25.021973997436366 25.021973997436366 25.021973997436366 25.021973997436366 25.021973997436366 25.021973997436366 25.021973997436366 25.021973997436366 25.021973997436366 25.021973997436366 25.021973997436366 25.021973997436366 25.021973997436366 25.021973997436366 25.021973997436366 25.021973997436366 25.021973997436366 25.021973997436366 25.021973997436366 25.0 25.021973997436366 25.021973997436366 25.021973997436366 25.021973997436366 25.021973997436366 25.021973997436366 25.0 25.0 25.0 25.021973997436366 25.0 25.0 25.021973997436366 25.021973997436366 25.0 25.021973997436366 25.021973997436366 25.021973997436366 25.021973997436366 25.021973997436366 25.021973997436366 25.0 25.0 25.021973997436366 25.021973997436366 25.021973997436366 25.021973997436366 25.021973997436366 25.021973997436366 25.021973997436366 25.021973997436366 25.021973997436366 25.021973997436366 25.021973997436366 25.0 25.021973997436366 25.021973997436366 25.021973997436366 25.021973997436366 25.021973997436366 25.0 25.0 25.021973997436366 25.021973997436366 25.021973997436366 25.021973997436366 25.021973997436366 25.021973997436366 25.021973997436366 25.021973997436366 25.021973997436366 25.021973997436366 25.021973997436366 25.021973997436366 25.021973997436366 25.021973997436366 25.021973997436366 25.021973997436366 25.021973997436366 25.021973997436366 25.021973997436366 25.0 25.021973997436366 25.021973997436366 25.021973997436366 25.021973997436366 25.021973997436366 25.021973997436366 25.021973997436366 25.021973997436366 25.021973997436366 25.021973997436366 25.021973997436366 25.021973997436366 25.021973997436366 25.021973997436366 25.021973997436366 25.021973997436366 25.021973997436366 25.021973997436366 25.021973997436366 25.021973997436366 25.021973997436366 25.021973997436366 25.021973997436366 25.043947994872735 25.043947994872735 25.021973997436366 25.043947994872735 25.021973997436366 25.021973997436366 25.043947994872735 25.043947994872735 25.043947994872735 25.043947994872735 25.043947994872735 25.0659219923091 25.0659219923091 25.0659219923091 25.0659219923091 25.0659219923091 25.0659219923091 25.0659219923091 25.08789598974547 25.08789598974547 25.08789598974547 25.08789598974547 25.08789598974547 25.109869987181835 25.109869987181835 25.109869987181835 25.1318439846182 25.1318439846182 25.15381798205457 25.175791979490935 25.175791979490935 25.197765976927304 25.197765976927304 25.197765976927304 25.241713971800035 25.263687969236404 25.30763596410914 25.37355795641824 25.417505951290973 25.50540194103644 25.593297930781908 25.65921992309101 25.769089910272843 25.856985900018312 25.944881889763778 26.07672587438198 26.14264786669108 26.274491851309286 26.494231825672955 26.779893792345725 27.087529756454863 27.263321735945798 27.702801684673137 28.142281633400476 28.49386559238235 28.867423548800588 29.372825489837027 29.944149423182566 30.537447353964474 30.932979307819082 31.52627723860099 32.14154916681926 32.53708112067387 33.108405054019414 33.48196301043765 34.05328694378319 34.60263687969236 35.02014283098333 35.56949276689251 36.09686870536532 36.492400659219925 37.1076725874382 37.54715253616554 38.44808643105658 39.21717634132943 39.722578282365866 40.513642190075075 41.30470609778429 41.85405603369347 42.667093938839045 43.238417872184584 44.02948177989379 44.86449368247574 45.39186962094854 46.20490752609412 47.2816334004761 47.67716535433071 48.35835927485809 48.92968320820363 49.76469511078557 50.62168101080388 51.50064090825856 52.40157480314961 53.302508698040654 53.91778062625893 54.51107855704083 55.10437648782275 56.356894341695664 57.257828236586704 57.89507416224135 58.81798205456876 59.69694195202344 60.312213880241714 60.94945980589635 61.80644570591467 62.66343160593298 63.52041750595129 64.06976744186046 64.92675334187878 65.76176524446072 66.5748031496063 67.12415308551547 67.69547701886101 68.50851492400659 69.32155282915217 69.8928767624977 70.92565464200696 71.47500457791614 72.2880424830617 73.1010803882073 73.38674235488006 74.24372825489837 74.94689617286213 75.71598608313496 76.44112799853508 76.9465299395715 77.64969785753524 78.352865775499 78.81431972166271 79.64933162424464 80.06683757553562 80.46236952939023 81.03369346273576 81.38527742171763 81.91265336019043 82.41805530122689 82.70371726789965 83.14319721662699 83.58267716535434 83.8683391320271 84.2638710858817 84.54953305255447 85.12085698590002 85.42849295000916 85.71415491668193 86.1316608679729 86.68101080388207 86.94469877311849 87.29628273210035 87.51602270646401 87.84563266800953 88.06537264237319 88.19721662699139 88.35103460904597 88.43893059879144 88.4609045962278 88.48287859366417 88.48287859366417 88.4609045962278 88.48287859366417 88.48287859366417 88.4609045962278 88.4609045962278 88.4609045962278 88.43893059879144 88.43893059879144 88.41695660135505 88.35103460904597 88.32906061160959 88.32906061160959 88.28511261673685 88.28511261673685 88.26313861930049 88.26313861930049 88.24116462186413 88.21919062442777 88.19721662699139 88.17524262955503 88.17524262955503 88.13129463468229 88.10932063724593 88.08734663980957 88.06537264237319 88.04339864493683 88.02142464750045 88.02142464750045 88.02142464750045 87.97747665262773 87.95550265519137 87.93352865775499 87.88958066288225 87.88958066288225 87.88958066288225 87.86760666544589 87.86760666544589 87.88958066288225 87.86760666544589 87.86760666544589 87.86760666544589 87.84563266800953 87.80168467313679 87.77971067570043 87.77971067570043 87.73576268082769 87.71378868339133 87.69181468595497 87.64786669108221 87.62589269364585 87.60391869620949 87.60391869620949 87.58194469877311 87.58194469877311 87.58194469877311 87.60391869620949 87.58194469877311 87.60391869620949 87.60391869620949 87.58194469877311 87.58194469877311 87.58194469877311 87.58194469877311 87.53799670390038 87.51602270646401 87.51602270646401 87.49404870902765 87.45010071415491 87.42812671671855 87.38417872184581 87.34023072697309 87.29628273210035 87.23036073979125 87.18641274491851 87.14246475004578 87.12049075260941 87.09851675517305 87.07654275773669 87.05456876030031 87.03259476286395 87.01062076542757 86.98864676799121 86.98864676799121 86.96667277055485 86.96667277055485 86.96667277055485 86.96667277055485 86.96667277055485 86.96667277055485 86.96667277055485 86.96667277055485 86.94469877311849 86.94469877311849 86.90075077824574 86.87877678080937 86.83482878593665 86.83482878593665 86.83482878593665 86.81285478850029 86.7908807910639 86.7908807910639 86.76890679362754 86.74693279619117 86.74693279619117 86.72495879875481 86.72495879875481 86.72495879875481 86.72495879875481 86.70298480131844 86.70298480131844 86.70298480131844 86.68101080388207 86.70298480131844 86.68101080388207 86.68101080388207 86.6590368064457 86.6590368064457 86.6590368064457 86.63706280900934 86.63706280900934 86.63706280900934 86.61508881157297 86.61508881157297 86.61508881157297 86.61508881157297 86.61508881157297 86.61508881157297 86.61508881157297 86.61508881157297 86.61508881157297 86.61508881157297 86.61508881157297 86.61508881157297 86.61508881157297 86.61508881157297 86.61508881157297 86.59311481413661 86.59311481413661 86.57114081670024 86.54916681926387 86.54916681926387 86.5271928218275 86.50521882439114 86.50521882439114 86.50521882439114 86.50521882439114 86.50521882439114 86.48324482695477 86.46127082951841 86.43929683208204 86.41732283464567 86.37337483977294 86.35140084233657 86.35140084233657 86.32942684490021 86.30745284746384 86.28547885002747 86.2635048525911 86.24153085515474 86.21955685771837 86.21955685771837 86.19758286028201 86.21955685771837 86.19758286028201 86.19758286028201 86.17560886284564 86.17560886284564 86.17560886284564 86.15363486540927 86.1316608679729 86.08771287310017 86.06573887566381 86.04376487822742 86.02179088079106 85.9998168833547 85.95586888848196 85.9338948910456 85.91192089360922 85.88994689617286 85.88994689617286 85.88994689617286 85.88994689617286 85.88994689617286 85.88994689617286 85.88994689617286 85.8679728987365 85.88994689617286 85.88994689617286 85.88994689617286 85.88994689617286 85.88994689617286 85.88994689617286 85.88994689617286 85.88994689617286 85.91192089360922 85.95586888848196 85.95586888848196 85.95586888848196 85.95586888848196 85.95586888848196 85.95586888848196 85.95586888848196 85.95586888848196 85.95586888848196 85.95586888848196 85.95586888848196 85.95586888848196 85.95586888848196 85.95586888848196 85.95586888848196 85.95586888848196 85.95586888848196 85.9338948910456 85.95586888848196 85.9338948910456 85.9338948910456 85.9338948910456 85.9338948910456 85.91192089360922 85.88994689617286 85.8679728987365 85.84599890130013 85.82402490386376 85.8020509064274 85.78007690899102 85.75810291155466 85.71415491668193 85.6702069218092 85.62625892693646 85.58231093206373 85.51638893975462 85.42849295000916 85.3405969602637 85.29664896539094 85.14283098333638 85.07690899102728 84.92309100897272 84.81322102179088 84.68137703717268 84.37374107306354 84.1320271012635 83.95623512177258 83.67057315509979 83.42885918329976 83.14319721662699 82.70371726789965 82.52792528840871 82.26423731917231 81.89067936275407 81.62699139351767 81.25343343709943 81.0117194652994 80.48434352682659 80.06683757553562 79.75920161142648 79.45156564731734 79.07800769089911 78.77037172678996 78.19904779344444 77.91338582677164 77.47390587804432 77.05639992675334 76.90258194469877 76.33125801135323 76.02362204724409 75.62809009338949 75.14466214978941 74.74913019593481 74.24372825489837 73.71635231642557 73.27687236769822 72.79344442409815 72.44186046511629 71.91448452664348 71.40908258560702 71.05749862662516 70.55209668558872 69.8928767624977 69.5632668009522 69.21168284197034 68.86009888298847 68.22285295733383 67.89324299578831 67.54165903680644 66.83849111884271 66.3111151803699 66.09137520600623 65.60794726240616 65.14649331624244 64.70701336751512 64.3114814136605 64.04779344442409 63.696209485442225 63.300677531587624 63.01501556491485 62.57553561618751 62.26789965207837 61.76249771104193 61.25709577000549 60.90551181102362 60.378135872550814 59.872733931514375 59.34535799304157 58.9937740340597 58.59824208020509 57.89507416224135 57.30177623145944 56.9282182750412 56.356894341695664 55.80754440578649 55.41201245193188 54.95055850576817 54.5989745467863 54.11554660318623 53.61014466214979 53.280534700604285 52.81908075444058 52.357626808276876 52.02801684673137 51.5445889031313 51.149056949276684 50.709577000549345 50.226149056949275 49.720747115912836 49.25929316974913 48.90770921076726 48.57809924922175 48.09467130562168 47.72111334920344 47.1497894158579 46.688335469694195 46.380699505585056 45.94121955685772 45.63358359274858 45.21607764145761 44.79857169016664 44.53488372093023 44.139351767075624 43.721845815784654 43.45815784654825 43.040651895257284 42.62314594396631 42.18366599523897 41.89800402856619 41.63431605932979 41.26075810291155 40.88720014649331 40.645486174693275 40.118110236220474 39.8324482695477 39.41494231825673 39.12928035158396 38.86559238234756 38.49203442592932 37.98663248489288 37.7668925105292 37.4372825489837 37.2395165720564 36.931880607947264 36.624244643838125 36.404504669474456 36.07489470792895 35.70133675151071 35.45962277971068 35.06409082585607 34.82237685405603 34.51474088994689 33.98736495147409 33.855520966855885 33.459989013001284 33.064457059146676 32.734847097601175 32.40523713605567 32.03167917963743 31.81193920527376 31.59219923091009 31.50430324116462 31.196667277055482 30.86705731550998 30.669291338582678 30.36165537447354 30.163889397546235 29.8562534334371 29.460721479582496 29.19703351034609 28.64768357443692 28.38399560520051 27.96648965390954 27.724775682109502 27.592931697491302 27.505035707745833 27.197399743636698 27.065555759018494 26.88976377952756 27.263321735945798 27.241347738509432 27.241347738509432 27.241347738509432 27.197399743636698 27.153451748763963 27.131477751327594 27.087529756454863 27.065555759018494 27.02160776414576 27.10950375389123 27.10950375389123 27.04358176158213 26.95568577183666 26.88976377952756 26.80186778978209 26.713971800036624 26.60410181285479 26.472257828236586 26.36238784105475 26.274491851309286 26.164621864127447 26.054751876945616 25.988829884636512 25.944881889763778 25.900933894891047 25.835011902581943 25.791063907709212 25.703167917963743 25.637245925654643 25.571323933345543 25.483427943600073 25.43947994872734 25.43947994872734 25.417505951290973 25.395531953854604 25.395531953854604 25.35158395898187 25.35158395898187 25.329609961545504 25.329609961545504 25.28566196667277 25.28566196667277 25.28566196667277 25.263687969236404 25.263687969236404 25.263687969236404 25.263687969236404 25.263687969236404 25.263687969236404 25.241713971800035 25.241713971800035 25.241713971800035 25.241713971800035 25.241713971800035 25.241713971800035 25.241713971800035 25.241713971800035 25.241713971800035 25.241713971800035 25.241713971800035 25.241713971800035 25.241713971800035 25.241713971800035 25.241713971800035 25.241713971800035 25.241713971800035 25.241713971800035 25.241713971800035 25.241713971800035 25.241713971800035 25.241713971800035 25.241713971800035 25.241713971800035 25.241713971800035 25.241713971800035 25.241713971800035 25.241713971800035 25.241713971800035 25.241713971800035 25.241713971800035 25.241713971800035 25.241713971800035 25.241713971800035 25.241713971800035 25.241713971800035 25.241713971800035 25.241713971800035 25.241713971800035 25.241713971800035 25.241713971800035 25.241713971800035 25.241713971800035 25.241713971800035 25.241713971800035 25.21973997436367 25.241713971800035 25.241713971800035 25.241713971800035 25.241713971800035 25.241713971800035 25.241713971800035 25.241713971800035 25.241713971800035 25.241713971800035 25.241713971800035 25.21973997436367 25.241713971800035 25.241713971800035 25.241713971800035 25.241713971800035 25.241713971800035 25.241713971800035 25.21973997436367 25.241713971800035 25.21973997436367 25.21973997436367 25.21973997436367 25.241713971800035 25.241713971800035 25.241713971800035 25.241713971800035 25.241713971800035 25.21973997436367 25.241713971800035 25.241713971800035 25.241713971800035 25.241713971800035 25.241713971800035 25.241713971800035 25.241713971800035 25.241713971800035 25.241713971800035 25.21973997436367 25.241713971800035 25.241713971800035 25.241713971800035 25.241713971800035 25.241713971800035 25.241713971800035 25.241713971800035 25.241713971800035 25.241713971800035 25.241713971800035 25.241713971800035 25.241713971800035 25.241713971800035 25.241713971800035 25.241713971800035 25.241713971800035 25.241713971800035 25.241713971800035 25.241713971800035 25.241713971800035 25.241713971800035 25.241713971800035 25.241713971800035 25.241713971800035 25.241713971800035 25.241713971800035 25.241713971800035 25.241713971800035 25.241713971800035 25.241713971800035 25.241713971800035 25.241713971800035 25.241713971800035 25.241713971800035 25.241713971800035 25.263687969236404 25.241713971800035 25.263687969236404 25.263687969236404 25.263687969236404 25.263687969236404 25.28566196667277 25.28566196667277 25.28566196667277 25.28566196667277 25.30763596410914 25.30763596410914 25.329609961545504 25.329609961545504 25.329609961545504 25.35158395898187 25.37355795641824 25.395531953854604 25.417505951290973 25.43947994872734 25.483427943600073 25.527375938472808 25.549349935909174 25.571323933345543 25.615271928218274 25.637245925654643 25.681193920527377 25.72514191540011 25.747115912836477 25.813037905145578 25.856985900018312 25.900933894891047 25.988829884636512 26.054751876945616 26.14264786669108 26.23054385643655 26.318439846182017 26.51620582310932 26.691997802600255 27.10950375389123 27.351217725691264 27.570957700054933 28.03241164621864 28.40596960263688 28.669657571873284 29.065189525727888 29.350851492400658 29.746383446255265 30.14191540010987 30.383629371909905 30.735213330891778 31.08679728987365 31.328511261673686 31.72404321552829 32.16352316425563 32.4491851309284 32.88866507965574 33.218275041201245 33.67972898736495 34.27302691814686 34.58066288225599 35.0421168284197 35.34975279252884 35.81120673869255 36.272660684856255 36.44845266434719 36.931880607947264 37.4372825489837 37.96465848745651 38.55795641823842 38.97546236952939 39.612708295184035 40.27192821827504 40.75535616187511 41.43655008240249 41.87603003112983 42.51327595678447 43.172495879875484 43.87566379783922 44.53488372093023 45.23805163889398 45.74345357993042 46.248855520966856 46.754257462003295 47.56729536714887 48.24848928767625 48.70994323383995 49.369163156930966 50.006409082585606 50.270097051822006 51.10510895440396 51.5445889031313 52.18183482878594 52.841054751876946 53.302508698040654 53.91778062625893 54.73081853140451 55.14832448269547 55.54385643655009 55.96136238784105 56.488738326313864 57.016114264786665 57.36769822376854 58.02691814685955 58.48837209302326 58.81798205456876 59.14759201611427 59.4552279802234 59.82878593664164 60.444057864859914 60.77366782640542 61.23512177256912 61.74052371360557 62.09210767258744 62.61948361106025 62.993041567478485 63.564365500824024 64.13568943416956 64.53122138802416 65.10254532136972 65.69584325215162 66.1133492034426 66.70664713422451 67.1681010803882 67.76139901117011 68.39864493682475 68.81615088811573 69.45339681377037 70.06866874198866 70.63999267533418 71.07947262406154 71.47500457791614 72.09027650613442 72.57370444973449 72.90331441127998 73.38674235488006 73.6943783189892 74.13385826771653 74.55136421900751 74.81505218824393 75.18861014466215 75.54019410364401 75.75993407800769 76.04559604468047 76.2213880241714 76.44112799853508 76.63889397546237 76.79271195751694 76.99047793444424 77.23219190624428 77.40798388573522 77.75956784471708 77.86943783189892 78.17707379600806 78.33089177806264 78.50668375755356 78.83629371909907 79.1439296832082 79.38564365500824 79.71525361655375 79.97894158579015 80.33052554477202 80.70408350119027 80.9457974729903 81.31935542940855 81.69291338582677 81.95660135506317 82.30818531404505 82.70371726789965 82.96740523713606 83.27504120124519 83.49478117560886 83.7364951474089 83.9342611243362 84.08807910639078 84.17597509613624 84.24189708844534 84.3297930781908 84.3957150704999 84.3957150704999 84.3957150704999 84.3957150704999 84.3957150704999 84.3957150704999 84.3957150704999 84.3957150704999 84.3957150704999 84.3957150704999 84.3957150704999 84.3957150704999 84.3957150704999 84.3957150704999 84.3957150704999 84.3957150704999 84.3957150704999 84.37374107306354 84.37374107306354 84.35176707562718 84.3297930781908 84.3297930781908 84.3297930781908 84.3297930781908 84.3297930781908 84.3297930781908 84.3297930781908 84.3297930781908 84.3297930781908 84.3297930781908 84.3297930781908 84.3297930781908 84.3297930781908 84.3297930781908 84.3297930781908 84.3297930781908 84.35176707562718 84.3297930781908 84.3297930781908 84.3297930781908 84.3297930781908 84.3297930781908 84.3297930781908 84.3297930781908 84.30781908075444 84.2638710858817 84.24189708844534 84.21992309100898 84.1979490935726 84.17597509613624 84.15400109869987 84.1320271012635 84.11005310382714 84.11005310382714 84.08807910639078 84.08807910639078 84.0661051089544 84.04413111151804 84.04413111151804 84.02215711408166 84.02215711408166 84.02215711408166 84.02215711408166 84.0001831166453 84.02215711408166 84.02215711408166 84.02215711408166 84.02215711408166 84.02215711408166 84.02215711408166 84.02215711408166 84.02215711408166 84.02215711408166 84.02215711408166 84.02215711408166 84.02215711408166 84.02215711408166 84.02215711408166 84.02215711408166 84.02215711408166 84.0001831166453 84.0001831166453 83.97820911920894 83.97820911920894 83.97820911920894 83.97820911920894 83.95623512177258 83.95623512177258 83.95623512177258 83.9342611243362 83.9342611243362 83.9342611243362 83.91228712689984 83.89031312946346 83.89031312946346 83.89031312946346 83.89031312946346 83.89031312946346 83.89031312946346 83.89031312946346 83.89031312946346 83.8683391320271 83.8683391320271 83.8683391320271 83.8683391320271 83.8683391320271 83.8683391320271 83.8683391320271 83.8683391320271 83.89031312946346 83.89031312946346 83.8683391320271 83.8683391320271 83.8683391320271 83.89031312946346 83.8683391320271 83.84636513459074 83.82439113715438 83.802417139718 83.75846914484526 83.7364951474089 83.7364951474089 83.7364951474089 83.7364951474089 83.7364951474089 83.7364951474089 83.7364951474089 83.7364951474089 83.7364951474089 83.75846914484526 83.75846914484526 83.75846914484526 83.75846914484526 83.75846914484526 83.78044314228164 83.75846914484526 83.78044314228164 83.75846914484526 83.75846914484526 83.78044314228164 83.78044314228164 83.78044314228164 83.802417139718 83.802417139718 83.802417139718 83.82439113715438 83.82439113715438 83.84636513459074 83.8683391320271 83.8683391320271 83.8683391320271 83.8683391320271 83.89031312946346 83.89031312946346 83.89031312946346 83.89031312946346 83.89031312946346 83.91228712689984 83.91228712689984 83.91228712689984 83.91228712689984 83.91228712689984 83.91228712689984 83.91228712689984 83.91228712689984 83.91228712689984 83.91228712689984 83.91228712689984 83.91228712689984 83.91228712689984 83.89031312946346 83.91228712689984 83.91228712689984 83.91228712689984 83.91228712689984 83.91228712689984 83.9342611243362 83.95623512177258 83.97820911920894 84.0001831166453 84.0001831166453 84.0001831166453 84.0001831166453 84.0001831166453 84.0001831166453 84.0001831166453 84.0001831166453 84.0001831166453 84.0001831166453 83.97820911920894 83.97820911920894 83.97820911920894 83.95623512177258 83.95623512177258 83.9342611243362 83.9342611243362 83.9342611243362 83.9342611243362 83.9342611243362 83.9342611243362 83.9342611243362 83.9342611243362 83.9342611243362 83.91228712689984 83.91228712689984 83.91228712689984 83.91228712689984 83.91228712689984 83.91228712689984 83.91228712689984 83.91228712689984 83.91228712689984 83.91228712689984 83.91228712689984 83.91228712689984 83.91228712689984 83.91228712689984 83.89031312946346 83.8683391320271 83.84636513459074 83.82439113715438 83.82439113715438 83.802417139718 83.78044314228164 83.75846914484526 83.71452114997254 83.71452114997254 83.69254715253618 83.69254715253618 83.69254715253618 83.69254715253618 83.69254715253618 83.69254715253618 83.67057315509979 83.69254715253618 83.69254715253618 83.69254715253618 83.67057315509979 83.64859915766343 83.6046511627907 83.6046511627907 83.58267716535434 83.58267716535434 83.56070316791798 83.56070316791798 83.53872917048159 83.56070316791798 83.53872917048159 83.53872917048159 83.51675517304523 83.51675517304523 83.51675517304523 83.51675517304523 83.51675517304523 83.53872917048159 83.51675517304523 83.51675517304523 83.51675517304523 83.51675517304523 83.49478117560886 83.4728071781725 83.42885918329976 83.38491118842703 83.31898919611793 83.23109320637246 83.14319721662699 83.0772752243179 82.98937923457243 82.85753524995422 82.8135872550815 82.72569126533602 82.65976927302691 82.54989928584509 82.41805530122689 82.37410730635415 82.22028932429959 82.08844533968139 82.02252334737227 81.82475737044497 81.69291338582677 81.42922541659037 81.29738143197216 81.1435634499176 80.92382347555393 80.70408350119027 80.55026551913569 80.33052554477202 80.15473356528108 79.93499359091741 79.69327961911739 79.42959164988098 79.16590368064458 78.99011170115364 78.70444973448086 78.52865775498992 78.33089177806264 77.97930781908076 77.71561984984436 77.56180186778978 77.32008789598976 77.10034792162608 76.92455594213514 76.72678996520784 76.57297198315328 76.33125801135323 76.0895440395532 75.93572605749863 75.71598608313496 75.43032411646219 75.25453213697125 75.12268815235305 74.96887017029849 74.79307819080753 74.61728621131661 74.41952023438931 74.22175425746201 74.08991027284381 73.8921442959165 73.73832631386193 73.58450833180737 73.21095037538913 72.90331441127998 72.63962644204358 72.17817249587988 71.8925105292071 71.60684856253434 70.99157663431606 70.81578465482514 70.37630470609778 69.91485075993407 69.60721479582494 69.18970884453397 68.90404687786119 68.33272294451567 68.00311298297015 67.67350302142464 67.27797106757004 66.79454312396996 66.4429591649881 65.78373924189708 65.47610327778796 65.01464933162424 64.70701336751512 64.39937740340596 63.784105475187694 63.322651529023986 62.94909357260575 62.46566562900568 62.09210767258744 61.49880974180553 60.81761582127815 60.312213880241714 59.652993957150706 58.97180003662333 58.57626808276872 58.07086614173228 57.76323017762314 57.36769822376854 56.972166269913934 56.8622962827321 56.664530305804796 56.488738326313864 56.29097234938656 56.13715436733199 55.89544039553195 55.63175242629555 55.34609045962278 55.19227247756821 54.84068851858634 54.48910455960447 54.18146859549533 53.80791063907709 53.500274674967955 53.060794726240616 52.57736678264054 52.24775682109504 51.7423548800586 51.39077092107672 50.81944698773118 50.248123054385644 49.786669108221936 49.237319172312766 48.68796923640359 48.27046328511261 47.74308734663981 47.36952939022157 46.64438747482146 46.117011536348656 45.74345357993042 45.21607764145761 44.77659769273027 44.5568577183666 44.09540377220289 43.831715802966485 43.48013184398462 43.106573887566384 42.864859915766345 42.46932796191174 41.98590001831167 41.65629005676616 41.17286211316609 40.88720014649331 40.447720197765975 39.920344259293174 39.39296832082036 38.62387841054752 38.20637245925654 37.92071049258378 37.1735945797473 36.778062625892694 36.14081670023805 35.72331074894708 35.48159677714705 35.08606482329244 34.80040285661967 34.58066288225599 33.96539095403772 33.701702984801315 33.350119025819446 33.152353048892145 32.932613074528476 32.800769089910276 32.40523713605567 32.16352316425563 31.96575718732833 31.767991210401025 31.46035524629189 31.196667277055482 31.064823292437282 30.669291338582678 30.317707379600805 30.163889397546235 29.878227430873466 29.70243545138253 29.350851492400658 28.823475553927853 28.47189159494598 27.90056766160044 27.461087712873102 26.97765976927303 26.713971800036624 26.626075810291155 26.626075810291155 26.252517853872916 25.944881889763778 25.637245925654643 25.461453946163708 25.747115912836477 25.813037905145578 25.813037905145578 25.791063907709212 25.747115912836477 25.747115912836477 25.747115912836477 25.878959897454678 26.42830983336385 26.713971800036624 26.713971800036624 26.88976377952756 26.82384178721846 26.80186778978209 26.73594579747299 26.67002380516389 26.60410181285479 26.538179820545686 26.45028383080022 26.36238784105475 26.23054385643655 26.164621864127447 26.054751876945616 25.988829884636512 25.900933894891047 25.813037905145578 25.791063907709212 25.747115912836477 25.72514191540011 25.681193920527377 25.681193920527377 25.65921992309101 25.637245925654643 25.593297930781908 25.593297930781908 25.571323933345543 25.549349935909174 25.549349935909174 25.549349935909174 25.549349935909174 25.527375938472808 25.50540194103644 25.50540194103644 25.50540194103644 25.483427943600073 25.483427943600073 25.483427943600073 25.461453946163708 25.461453946163708 25.461453946163708 25.461453946163708 25.461453946163708 25.461453946163708 25.43947994872734 25.43947994872734 25.417505951290973 25.417505951290973 25.417505951290973 25.417505951290973 25.395531953854604 25.395531953854604 25.395531953854604 25.395531953854604 25.37355795641824 25.37355795641824 25.37355795641824 25.37355795641824 25.37355795641824 25.37355795641824 25.35158395898187 25.37355795641824 25.35158395898187 25.35158395898187 25.35158395898187 25.35158395898187 25.35158395898187 25.35158395898187 25.35158395898187 25.329609961545504 25.329609961545504 25.329609961545504 25.329609961545504 25.329609961545504 25.329609961545504 25.329609961545504 25.329609961545504 25.329609961545504 25.329609961545504 25.30763596410914 25.30763596410914 25.30763596410914 25.30763596410914 25.30763596410914 25.30763596410914 25.30763596410914 25.30763596410914 25.30763596410914 25.30763596410914 25.30763596410914 25.30763596410914 25.28566196667277 25.30763596410914 25.30763596410914 25.30763596410914 25.30763596410914 25.30763596410914 25.30763596410914 25.28566196667277 25.30763596410914 25.30763596410914 25.30763596410914 25.30763596410914 25.30763596410914 25.28566196667277 25.30763596410914 25.28566196667277 25.28566196667277 25.28566196667277 25.28566196667277 25.28566196667277 25.28566196667277 25.28566196667277 25.28566196667277 25.28566196667277 25.28566196667277 25.28566196667277 25.28566196667277 25.28566196667277 25.28566196667277 25.28566196667277 25.28566196667277 25.263687969236404 25.263687969236404 25.263687969236404 25.28566196667277 25.263687969236404 25.263687969236404 25.263687969236404 25.263687969236404 25.263687969236404 25.263687969236404 25.263687969236404 25.263687969236404 25.263687969236404 25.263687969236404 25.263687969236404 25.263687969236404 25.263687969236404 25.263687969236404 25.263687969236404 25.263687969236404 25.263687969236404 25.263687969236404 25.263687969236404 25.263687969236404 25.263687969236404 25.263687969236404 25.263687969236404 25.263687969236404 25.263687969236404 25.263687969236404 25.263687969236404 25.263687969236404 25.263687969236404 25.263687969236404 25.263687969236404 25.263687969236404 25.263687969236404 25.263687969236404 25.263687969236404 25.241713971800035 25.263687969236404 25.263687969236404 25.263687969236404 25.263687969236404 25.263687969236404 25.263687969236404 25.263687969236404 25.263687969236404 25.263687969236404 25.263687969236404 25.263687969236404 25.241713971800035 25.241713971800035 25.263687969236404 25.241713971800035 25.263687969236404 25.241713971800035 25.263687969236404 25.263687969236404 25.241713971800035 25.263687969236404 25.241713971800035 25.263687969236404 25.263687969236404 25.263687969236404 25.263687969236404 25.263687969236404 25.241713971800035 25.241713971800035 25.241713971800035 25.241713971800035 25.241713971800035 25.21973997436367 25.21973997436367 25.21973997436367 25.21973997436367 25.21973997436367 25.21973997436367 25.21973997436367 25.21973997436367 25.21973997436367 25.21973997436367 25.21973997436367 25.21973997436367 25.21973997436367 25.21973997436367 25.21973997436367 25.21973997436367 25.21973997436367 25.197765976927304 25.21973997436367 25.21973997436367 25.21973997436367 25.21973997436367 25.21973997436367 25.21973997436367 25.21973997436367 25.197765976927304 25.21973997436367 25.21973997436367 25.21973997436367 25.21973997436367 25.21973997436367 25.21973997436367 25.197765976927304 25.197765976927304 25.21973997436367 25.21973997436367 25.21973997436367 25.197765976927304 25.197765976927304 25.197765976927304 25.197765976927304 25.21973997436367 25.21973997436367 25.197765976927304 25.21973997436367 25.21973997436367 25.21973997436367 25.21973997436367 25.21973997436367 25.21973997436367 25.21973997436367 25.21973997436367 25.21973997436367 25.241713971800035 25.241713971800035 25.21973997436367 25.21973997436367 25.241713971800035 25.241713971800035 25.241713971800035 25.241713971800035 25.28566196667277 25.30763596410914 25.329609961545504 25.37355795641824 25.43947994872734 25.527375938472808 25.615271928218274 25.72514191540011 25.856985900018312 25.966855887200147 26.14264786669108 26.36238784105475 26.626075810291155 26.95568577183666 27.17542574620033 27.527009705182202 28.010437648782275 28.53781358725508 29.043215528291523 29.41677348470976 29.944149423182566 30.44955136421901 30.779161325764512 31.46035524629189 31.81193920527376 32.185497161692 32.66892510529207 33.020509064273945 33.48196301043765 34.31697491301959 34.38289690532869 34.82237685405603 35.15198681560154 35.59146676432888 36.052920710492586 36.38253067203809 37.063724592565464 37.635048525911 37.94268449002014 38.42611243362022 38.82164438747482 39.4369163156931 40.249954220838674 40.667460172129644 41.28273210034792 41.89800402856619 42.33748397729354 43.01867789782091 43.45815784654825 44.11737776963926 45.04028566196667 45.26002563633034 45.94121955685772 46.600439479948726 47.083867423548796 47.67716535433071 48.16059329793078 48.77586522614906 49.45705914667643 49.940487090276505 50.643655008240245 51.6105108954404 52.11591283647684 52.59934078007691 53.060794726240616 53.961728621131655 54.5989745467863 54.90661051089544 55.65372642373192 56.22505035707746 56.598608313495696 57.14795824940487 57.47756821095037 57.96099615455045 58.44442409815052 58.77403405969603 59.23548800585973 59.69694195202344 60.026551913568944 60.46603186229628 60.795641823841784 61.25709577000549 61.7185497161692 62.20197765976927 62.66343160593298 62.993041567478485 63.498443508514924 63.828053470060425 64.15766343160593 64.88280534700604 65.38820728804248 65.76176524446072 66.3111151803699 66.70664713422451 67.23402307269731 67.76139901117011 68.11298297015199 68.50851492400659 69.05786485991577 69.47537081120674 70.09064273942502 70.77183665995238 71.21131660867974 71.7606665445889 72.1561984984435 72.72752243178905 73.29884636513458 73.8921442959165 74.44149423182567 74.81505218824393 75.34242812671673 75.67203808826221 76.02362204724409 76.59494598058964 76.99047793444424 77.25416590368064 77.56180186778978 77.73759384728072 78.02325581395348 78.37483977293536 78.6165537447354 78.96813770371728 79.34169566013551 79.58340963193555 79.95696758835379 80.24262955502655 80.77000549349935 81.05566746017213 81.29738143197216 81.71488738326315 82.08844533968139 82.35213330891779 82.87950924739059 83.18714521149973 83.53872917048159 83.9342611243362 84.08807910639078 84.59348104742722 84.92309100897272 85.14283098333638 85.42849295000916 85.58231093206373 85.84599890130013 86.1316608679729 86.30745284746384 86.50521882439114 86.72495879875481 86.85680278337301 86.98864676799121 87.09851675517305 87.20838674235489 87.31825672953671 87.34023072697309 87.38417872184581 87.40615271928218 87.45010071415491 87.47207471159129 87.51602270646401 87.55997070133675 87.55997070133675 87.55997070133675 87.53799670390038 87.55997070133675 87.53799670390038 87.53799670390038 87.53799670390038 87.53799670390038 87.55997070133675 87.53799670390038 87.55997070133675 87.58194469877311 87.60391869620949 87.62589269364585 87.62589269364585 87.62589269364585 87.62589269364585 87.62589269364585 87.62589269364585 87.62589269364585 87.60391869620949 87.60391869620949 87.58194469877311 87.58194469877311 87.51602270646401 87.49404870902765 87.47207471159129 87.45010071415491 87.45010071415491 87.45010071415491 87.45010071415491 87.45010071415491 87.45010071415491 87.47207471159129 87.45010071415491 87.47207471159129 87.47207471159129 87.47207471159129 87.47207471159129 87.47207471159129 87.45010071415491 87.45010071415491 87.40615271928218 87.38417872184581 87.34023072697309 87.31825672953671 87.29628273210035 87.27430873466398 87.27430873466398 87.27430873466398 87.27430873466398 87.27430873466398 87.27430873466398 87.29628273210035 87.29628273210035 87.29628273210035 87.29628273210035 87.29628273210035 87.29628273210035 87.29628273210035 87.27430873466398 87.27430873466398 87.29628273210035 87.27430873466398 87.27430873466398 87.27430873466398 87.27430873466398 87.27430873466398 87.27430873466398 87.27430873466398 87.27430873466398 87.27430873466398 87.25233473722761 87.23036073979125 87.23036073979125 87.23036073979125 87.20838674235489 87.18641274491851 87.18641274491851 87.16443874748215 87.14246475004578 87.14246475004578 87.14246475004578 87.14246475004578 87.14246475004578 87.14246475004578 87.14246475004578 87.12049075260941 87.12049075260941 87.12049075260941 87.09851675517305 87.09851675517305 87.09851675517305 87.07654275773669 87.05456876030031 87.03259476286395 87.01062076542757 87.01062076542757 86.98864676799121 86.96667277055485 86.9227247756821 86.9227247756821 86.9227247756821 86.90075077824574 86.90075077824574 86.90075077824574 86.87877678080937 86.87877678080937 86.87877678080937 86.87877678080937 86.87877678080937 86.85680278337301 86.87877678080937 86.85680278337301 86.83482878593665 86.85680278337301 86.85680278337301 86.83482878593665 86.83482878593665 86.83482878593665 86.83482878593665 86.83482878593665 86.83482878593665 86.83482878593665 86.83482878593665 86.83482878593665 86.81285478850029 86.81285478850029 86.83482878593665 86.81285478850029 86.81285478850029 86.81285478850029 86.81285478850029 86.81285478850029 86.81285478850029 86.81285478850029 86.81285478850029 86.83482878593665 86.83482878593665 86.83482878593665 86.83482878593665 86.83482878593665 86.83482878593665 86.83482878593665 86.83482878593665 86.83482878593665 86.83482878593665 86.83482878593665 86.81285478850029 86.81285478850029 86.81285478850029 86.81285478850029 86.7908807910639 86.83482878593665 86.7908807910639 86.81285478850029 86.81285478850029 86.81285478850029 86.83482878593665 86.83482878593665 86.83482878593665 86.83482878593665 86.83482878593665 86.83482878593665 86.83482878593665 86.83482878593665 86.83482878593665 86.83482878593665 86.81285478850029 86.7908807910639 86.76890679362754 86.76890679362754 86.76890679362754 86.74693279619117 86.76890679362754 86.74693279619117 86.74693279619117 86.74693279619117 86.72495879875481 86.70298480131844 86.70298480131844 86.70298480131844 86.68101080388207 86.68101080388207 86.6590368064457 86.61508881157297 86.59311481413661 86.54916681926387 86.50521882439114 86.48324482695477 86.41732283464567 86.35140084233657 86.30745284746384 86.24153085515474 86.17560886284564 86.04376487822742 85.9998168833547 85.95586888848196 85.91192089360922 85.91192089360922 85.88994689617286 85.8679728987365 85.84599890130013 85.84599890130013 85.84599890130013 85.82402490386376 85.8020509064274 85.75810291155466 85.7361289141183 85.6702069218092 85.64823292437282 85.538362937191 85.42849295000916 85.38454495513642 85.29664896539094 85.23072697308186 85.16480498077274 85.12085698590002 85.07690899102728 85.05493499359092 85.01098699871818 84.98901300128182 84.98901300128182 84.96703900384546 84.94506500640908 84.92309100897272 84.90111701153634 84.85716901666362 84.76927302691814 84.70335103460906 84.59348104742722 84.48361106024538 84.43966306537266 84.3957150704999 84.37374107306354 84.30781908075444 84.21992309100898 84.17597509613624 84.0661051089544 83.97820911920894 83.84636513459074 83.71452114997254 83.58267716535434 83.4728071781725 83.40688518586339 83.3409631935543 83.27504120124519 83.2091192089361 83.12122321919063 83.01135323200879 82.92345724226331 82.79161325764511 82.61582127815419 82.48397729353599 82.28621131660869 82.13239333455411 81.86870536531771 81.73686138069951 81.58304339864495 81.38527742171763 81.1435634499176 80.9457974729903 80.74803149606299 80.55026551913569 80.28657754989928 80.02288958066288 79.73722761399011 79.47353964475371 79.20985167551731 79.05603369346274 78.85826771653544 78.63852774217176 78.30891778062626 77.78154184215344 77.47390587804432 77.0124519318806 76.5509979857169 76.15546603186229 75.6940120856986 75.38637612158945 74.92492217542575 74.41952023438931 74.04596227797106 73.58450833180737 73.18897637795277 72.77147042666178 72.50778245742538 72.20014649331624 71.80461453946164 71.4310565830434 71.14539461637062 70.66196667277055 70.28840871635232 70.00274674967955 69.6951107855704 69.34352682658854 68.64035890862479 68.20087895989745 67.38784105475187 66.7725691265336 66.28914118293352 65.65189525727888 64.97070133675152 64.55319538546054 63.981871452114994 63.476469511078555 63.146859549533055 62.707379600805716 62.37776963926021 61.96026368796924 61.54275773667826 61.25709577000549 60.81761582127815 60.40010986998718 60.158395898187145 59.850759934078006 59.3893059879143 58.9937740340597 58.70811206738693 58.42245010071415 57.74125618018678 57.389672221204904 57.125984251968504 56.64255630836843 56.312946346822926 55.82951840322285 55.21424647500458 54.84068851858634 54.24739058780443 53.588170664713424 53.14869071598608 52.31367881340414 51.8082768723677 51.36879692364036 50.79747299029482 50.445889031312944 49.83061710309467 49.32521516205823 48.88573521333089 48.46822926203992 48.24848928767625 47.83098333638527 47.457425379967034 47.325581395348834 46.842153451748764 46.44662149789416 46.20490752609412 45.69950558505768 45.41384361838491 44.93041567478484 44.4250137337484 43.98553378502106 43.45815784654825 43.01867789782091 42.75498992858451 42.31550997985717 41.85405603369347 41.37062809009339 40.90917414392968 40.68943416956601 40.140084233656836 39.7006042849295 38.90954037722029 38.11847646951108 37.65702252334737 37.327412561801864 36.909906610510895 36.602270646401756 36.14081670023805 35.76725874381981 35.32777879509247 35.0421168284197 34.75645486174693 34.36092290789233 33.789598974546784 33.657754989928584 33.48196301043765 33.459989013001284 33.284197033510345 33.086431056583045 32.932613074528476 32.60300311298297 32.42721113349204 32.29536714887384 31.94378318989196 31.68009522065556 31.24061527192822 30.51547335652811 30.054019410364404 29.350851492400658 28.867423548800588 28.55978758469145 28.12030763596411 27.81267167185497 27.461087712873102 27.197399743636698 26.757919794909355 25.769089910272843 24.186962094854422 23.461820179454314 23.066288225599706 23.57169016663615 26.82384178721846 27.197399743636698 27.219373741073063 27.241347738509432 27.219373741073063 27.197399743636698 27.17542574620033 27.10950375389123 27.02160776414576 26.88976377952756 26.757919794909355 26.58212781541842 26.36238784105475 26.23054385643655 26.032777879509247 25.922907892327412 25.791063907709212 25.703167917963743 25.637245925654643 25.593297930781908 25.571323933345543 25.527375938472808 25.50540194103644 25.483427943600073 25.461453946163708 25.417505951290973 25.37355795641824 25.37355795641824 25.37355795641824 25.35158395898187 25.35158395898187 25.329609961545504 25.329609961545504 25.30763596410914 25.30763596410914 25.30763596410914 25.30763596410914 25.30763596410914 25.30763596410914 25.30763596410914 25.30763596410914 25.30763596410914 25.30763596410914 25.30763596410914 25.28566196667277 25.30763596410914 25.28566196667277 25.28566196667277 25.28566196667277 25.28566196667277 25.28566196667277 25.28566196667277 25.30763596410914 25.28566196667277 25.28566196667277 25.28566196667277 25.28566196667277 25.28566196667277 25.28566196667277 25.28566196667277 25.28566196667277 25.28566196667277 25.28566196667277 25.28566196667277 25.28566196667277 25.263687969236404 25.263687969236404 25.263687969236404 25.263687969236404 25.263687969236404 25.263687969236404 25.263687969236404 25.263687969236404 25.263687969236404 25.263687969236404 25.263687969236404 25.263687969236404 25.263687969236404 25.263687969236404 25.263687969236404 25.263687969236404 25.263687969236404 25.263687969236404 25.263687969236404 25.263687969236404 25.263687969236404 25.263687969236404 25.263687969236404 25.263687969236404 25.263687969236404 25.263687969236404 25.263687969236404 25.263687969236404 25.263687969236404 25.263687969236404 25.263687969236404 25.263687969236404 25.263687969236404 25.263687969236404 25.263687969236404 25.263687969236404 25.263687969236404 25.263687969236404 25.263687969236404 25.241713971800035 25.263687969236404 25.263687969236404 25.263687969236404 25.263687969236404 25.263687969236404 25.263687969236404 25.263687969236404 25.263687969236404 25.263687969236404 25.263687969236404 25.263687969236404 25.263687969236404 25.263687969236404 25.263687969236404 25.241713971800035 25.263687969236404 25.263687969236404 25.263687969236404 25.241713971800035 25.241713971800035 25.263687969236404 25.241713971800035 25.241713971800035 25.263687969236404 25.241713971800035 25.263687969236404 25.263687969236404 25.241713971800035 25.263687969236404 25.241713971800035 25.241713971800035 25.263687969236404 25.241713971800035 25.263687969236404 25.241713971800035 25.263687969236404 25.263687969236404 25.241713971800035 25.241713971800035 25.241713971800035 25.241713971800035 25.263687969236404 25.263687969236404 25.263687969236404 25.263687969236404 25.263687969236404 25.241713971800035 25.241713971800035 25.241713971800035 25.263687969236404 25.241713971800035 25.263687969236404 25.241713971800035 25.241713971800035 25.263687969236404 25.263687969236404 25.263687969236404 25.241713971800035 25.241713971800035 25.263687969236404 25.241713971800035 25.263687969236404 25.241713971800035 25.241713971800035 25.263687969236404 25.241713971800035 25.241713971800035 25.263687969236404 25.263687969236404 25.241713971800035 25.263687969236404 25.263687969236404 25.263687969236404 25.241713971800035 25.263687969236404 25.241713971800035 25.241713971800035 25.263687969236404 25.263687969236404 25.241713971800035 25.263687969236404 25.263687969236404 25.263687969236404 25.241713971800035 25.241713971800035 25.241713971800035 25.263687969236404 25.241713971800035 25.241713971800035 25.263687969236404 25.263687969236404 25.241713971800035 25.263687969236404 25.263687969236404 25.263687969236404 25.263687969236404 25.241713971800035 25.263687969236404 25.263687969236404 25.241713971800035 25.241713971800035 25.241713971800035 25.263687969236404 25.263687969236404 25.241713971800035 25.263687969236404 25.241713971800035 25.241713971800035 25.263687969236404 25.263687969236404 25.263687969236404 25.263687969236404 25.263687969236404 25.263687969236404 25.263687969236404 25.241713971800035 25.263687969236404 25.263687969236404 25.263687969236404 25.241713971800035 25.241713971800035 25.241713971800035 25.263687969236404 25.263687969236404 25.263687969236404 25.241713971800035 25.241713971800035 25.241713971800035 25.263687969236404 25.241713971800035 25.241713971800035 25.263687969236404 25.263687969236404 25.241713971800035 25.241713971800035 25.241713971800035 25.263687969236404 25.263687969236404 25.241713971800035 25.241713971800035 25.263687969236404 25.263687969236404 25.241713971800035 25.241713971800035 25.263687969236404 25.263687969236404 25.263687969236404 25.263687969236404 25.263687969236404 25.263687969236404 25.263687969236404 25.263687969236404 25.263687969236404 25.263687969236404 25.28566196667277 25.28566196667277 25.28566196667277 25.28566196667277 25.28566196667277 25.28566196667277 25.30763596410914 25.329609961545504 25.329609961545504 25.37355795641824 25.395531953854604 25.417505951290973 25.461453946163708 25.527375938472808 25.571323933345543 25.615271928218274 25.65921992309101 25.747115912836477 25.835011902581943 25.922907892327412 26.032777879509247 26.120673869254716 26.23054385643655 26.340413843618386 26.45028383080022 26.538179820545686 26.713971800036624 26.82384178721846 26.999633766709394 27.153451748763963 27.439113715436733 27.790697674418606 27.988463651345906 28.38399560520051 28.77952755905512 29.065189525727888 29.48269547701886 29.790331441127996 30.405603369346274 30.735213330891778 31.042849295000916 31.52627723860099 32.0536531770738 32.40523713605567 32.95458707196484 33.525911005310384 34.075260941219554 34.66855887200147 35.06409082585607 35.67936275407435 36.272660684856255 36.712140633583594 37.34938655923823 37.78886650796557 38.44808643105658 39.107306354147596 39.546786302874935 40.184032228529574 40.79930415674785 41.26075810291155 41.9639260208753 42.44735396447537 43.150521882439115 44.16132576451199 44.44698773118476 45.26002563633034 45.83134956967588 46.93004944149423 47.74308734663981 48.27046328511261 49.03955319538546 49.808643105658305 50.116279069767444 50.99523896722212 51.4786669108222 52.15986083134957 52.841054751876946 53.280534700604285 53.961728621131655 54.62094854422267 55.10437648782275 55.76359641091375 56.22505035707746 56.906244277604834 57.609412195568574 58.29060611609595 58.94982603918696 59.301409998168836 59.674967954587075 60.114447903314414 60.53195385460538 61.47683574436916 62.15802966489654 62.61948361106025 63.322651529023986 63.981871452114994 64.42135140084233 64.99267533418788 65.36623329060612 65.9815052188244 66.5748031496063 67.05823109320637 67.62955502655191 68.42061893426111 68.66233290606115 69.2336568394067 69.6291887932613 70.22248672404322 70.88170664713422 71.21131660867974 71.65079655740706 72.06830250869804 72.37593847280718 72.68357443691632 73.03515839589818 73.6943783189892 74.24372825489837 74.61728621131661 75.12268815235305 75.67203808826221 76.02362204724409 76.39718000366233 76.77073796008057 77.21021790880792 77.60574986266252 77.89141182933528 78.39681377037172 78.66050173960812 79.05603369346274 79.29774766526278 79.5394616370628 79.89104559604468 80.24262955502655 80.48434352682659 80.96777147042667 81.23145943966307 81.58304339864495 81.82475737044497 82.06647134224502 82.57187328328145 82.92345724226331 83.14319721662699 83.45083318073613 83.71452114997254 84.0661051089544 84.43966306537266 84.70335103460906 85.05493499359092 85.42849295000916 85.6702069218092 85.9998168833547 86.19758286028201 86.57114081670024 86.76890679362754 86.87877678080937 87.05456876030031 87.23036073979125 87.31825672953671 87.38417872184581 87.49404870902765 87.60391869620949 87.62589269364585 87.66984068851858 87.66984068851858 87.66984068851858 87.69181468595497 87.66984068851858 87.66984068851858 87.66984068851858 87.64786669108221 87.62589269364585 87.58194469877311 87.53799670390038 87.51602270646401 87.45010071415491 87.42812671671855 87.36220472440945 87.31825672953671 87.27430873466398 87.23036073979125 87.20838674235489 87.14246475004578 87.12049075260941 87.09851675517305 87.05456876030031 87.01062076542757 86.96667277055485 86.90075077824574 86.85680278337301 86.7908807910639 86.74693279619117 86.72495879875481 86.6590368064457 86.6590368064457 86.61508881157297 86.59311481413661 86.57114081670024 86.54916681926387 86.5271928218275 86.5271928218275 86.50521882439114 86.48324482695477 86.48324482695477 86.43929683208204 86.41732283464567 86.35140084233657 86.30745284746384 86.28547885002747 86.24153085515474 86.19758286028201 86.17560886284564 86.15363486540927 86.15363486540927 86.10968687053654 86.06573887566381 86.02179088079106 85.97784288591834 85.9338948910456 85.91192089360922 85.88994689617286 85.8679728987365 85.8020509064274 85.7361289141183 85.64823292437282 85.56033693462736 85.45046694744553 85.4065189525728 85.38454495513642 85.3405969602637 85.29664896539094 85.25270097051822 85.23072697308186 85.16480498077274 85.12085698590002 85.12085698590002 85.07690899102728 85.07690899102728 85.01098699871818 84.94506500640908 84.90111701153634 84.83519501922726 84.79124702435452 84.72532503204542 84.63742904229994 84.61545504486358 84.50558505768174 84.43966306537266 84.3957150704999 84.3297930781908 84.30781908075444 84.28584508331807 84.28584508331807 84.28584508331807 84.28584508331807 84.28584508331807 84.28584508331807 84.24189708844534 84.24189708844534 84.24189708844534 84.1979490935726 84.17597509613624 84.15400109869987 84.15400109869987 84.15400109869987 84.11005310382714 84.11005310382714 84.08807910639078 84.0661051089544 84.0661051089544 84.0661051089544 84.08807910639078 84.08807910639078 84.08807910639078 84.08807910639078 84.08807910639078 84.08807910639078 84.08807910639078 84.08807910639078 84.08807910639078 84.0661051089544 84.0661051089544 84.0661051089544 84.04413111151804 83.97820911920894 83.9342611243362 83.89031312946346 83.84636513459074 83.84636513459074 83.84636513459074 83.82439113715438 83.82439113715438 83.802417139718 83.802417139718 83.802417139718 83.78044314228164 83.78044314228164 83.78044314228164 83.78044314228164 83.78044314228164 83.78044314228164 83.78044314228164 83.78044314228164 83.75846914484526 83.75846914484526 83.78044314228164 83.75846914484526 83.78044314228164 83.78044314228164 83.78044314228164 83.78044314228164 83.75846914484526 83.78044314228164 83.78044314228164 83.78044314228164 83.78044314228164 83.75846914484526 83.75846914484526 83.78044314228164 83.78044314228164 83.75846914484526 83.78044314228164 83.78044314228164 83.78044314228164 83.78044314228164 83.78044314228164 83.75846914484526 83.75846914484526 83.75846914484526 83.75846914484526 83.75846914484526 83.75846914484526 83.75846914484526 83.75846914484526 83.75846914484526 83.75846914484526 83.75846914484526 83.75846914484526 83.75846914484526 83.75846914484526 83.75846914484526 83.75846914484526 83.75846914484526 83.7364951474089 83.7364951474089 83.71452114997254 83.69254715253618 83.69254715253618 83.67057315509979 83.69254715253618 83.67057315509979 83.67057315509979 83.67057315509979 83.67057315509979 83.67057315509979 83.67057315509979 83.64859915766343 83.62662516022706 83.62662516022706 83.6046511627907 83.6046511627907 83.62662516022706 83.6046511627907 83.6046511627907 83.58267716535434 83.58267716535434 83.6046511627907 83.58267716535434 83.6046511627907 83.58267716535434 83.6046511627907 83.58267716535434 83.58267716535434 83.53872917048159 83.53872917048159 83.51675517304523 83.51675517304523 83.49478117560886 83.49478117560886 83.49478117560886 83.49478117560886 83.4728071781725 83.49478117560886 83.4728071781725 83.4728071781725 83.49478117560886 83.49478117560886 83.49478117560886 83.49478117560886 83.4728071781725 83.4728071781725 83.4728071781725 83.4728071781725 83.45083318073613 83.4728071781725 83.4728071781725 83.4728071781725 83.4728071781725 83.4728071781725 83.4728071781725 83.45083318073613 83.45083318073613 83.45083318073613 83.45083318073613 83.45083318073613 83.45083318073613 83.45083318073613 83.45083318073613 83.45083318073613 83.45083318073613 83.45083318073613 83.45083318073613 83.4728071781725 83.45083318073613 83.45083318073613 83.45083318073613 83.42885918329976 83.45083318073613 83.42885918329976 83.42885918329976 83.40688518586339 83.36293719099066 83.29701519868156 83.29701519868156 83.2091192089361 83.09924922175426 83.01135323200879 82.87950924739059 82.68174327046329 82.46200329609962 82.22028932429959 82.13239333455411 81.86870536531771 81.67093938839041 81.38527742171763 80.98974546786303 80.77000549349935 80.46236952939023 80.15473356528108 80.02288958066288 79.62735762680828 79.42959164988098 79.1439296832082 78.85826771653544 78.6824757370445 78.39681377037172 78.13312580113532 77.9573338216444 77.67167185497162 77.47390587804432 77.05639992675334 76.85863394982604 76.63889397546237 76.17744002929867 75.8258560703168 75.54019410364401 75.29848013184399 75.03479216260759 74.46346822926205 74.17780626258927 73.65043032411646 73.12305438564366 72.52975645486175 72.13422450100714 71.54092657022522 70.92565464200696 70.57407068302508 70.13459073429775 69.84892876762498 69.3655008240249 68.86009888298847 68.53048892144295 68.15693096502471 67.89324299578831 67.40981505218824 66.72862113166087 66.377037172679 66.02545321369712 65.36623329060612 65.01464933162424 64.68503937007874 64.33345541109688 63.652261490569494 63.124885552096686 62.79527559055118 62.31184764695111 61.80644570591467 61.45486174693279 60.94945980589635 60.597875846914484 60.026551913568944 59.41127998535067 58.97180003662333 58.11481413660502 57.82915216993224 57.323750228895804 56.70847830067753 56.26899835195019 55.56583043398645 54.79674052371361 54.09357260574986 53.368430690349754 52.994872733931516 52.51144479033144 52.15986083134957 51.89617286211316 51.23695293902216 50.68760300311298 50.314045046694744 49.69877311847647 49.2812671671855 49.03955319538546 48.81981322102179 48.38033327229445 47.91887932613075 47.54532136971251 47.325581395348834 46.995971433803334 46.66636147225783 46.358725508148694 46.09503753891229 45.89727156198498 45.43581761582128 44.97436366965757 44.40303973631203 43.67789782091192 43.348287859366415 42.930781908075446 42.55722395165721 42.293535982420806 41.83208203625709 41.21681010803882 40.90917414392968 40.42574620032961 40.118110236220474 39.656656290056766 39.06335835927486 38.84361838491119 38.49203442592932 37.92071049258378 37.635048525911 37.34938655923823 37.041750595129095 36.51437465665629 36.16279069767442 35.89910272843802 35.65738875663798 35.08606482329244 34.95422083867423 34.27302691814686 33.877494964292254 33.591832997619484 33.152353048892145 32.95458707196484 32.712873100164806 32.53708112067387 32.3832631386193 32.29536714887384 32.03167917963743 31.81193920527376 31.548251236037355 31.41640725141915 31.15271928218275 30.954953305255447 30.735213330891778 30.493499359091743 30.273759384728073 29.966123420618935 29.526643471891596 29.262955502655192 28.999267533418788 28.55978758469145 27.592931697491302 26.911737776963925 26.67002380516389 26.472257828236586 26.36238784105475 26.51620582310932 26.208569859000182 25.966855887200147 25.527375938472808 25.483427943600073 25.329609961545504 25.263687969236404 25.109869987181835 25.0659219923091 25.021973997436366 25.0 24.91210401025453 24.8681560153818 24.736312030763596 24.71433803332723 24.56052005127266 24.34078007690899 24.450650064090826 24.516572056399927 24.69236403589086 25.175791979490935 25.835011902581943 26.098699871818347 26.120673869254716 26.07672587438198 25.988829884636512 25.922907892327412 25.878959897454678 25.813037905145578 25.791063907709212 25.72514191540011 25.637245925654643 25.615271928218274 25.549349935909174 25.50540194103644 25.483427943600073 25.461453946163708 25.461453946163708 25.43947994872734 25.43947994872734 25.417505951290973 25.417505951290973 25.417505951290973 25.395531953854604 25.37355795641824 25.37355795641824 25.37355795641824 25.35158395898187 25.35158395898187 25.35158395898187 25.35158395898187 25.329609961545504 25.30763596410914 25.30763596410914 25.30763596410914 25.28566196667277 25.28566196667277 25.28566196667277 25.263687969236404 25.263687969236404 25.241713971800035 25.241713971800035 25.241713971800035 25.241713971800035 25.21973997436367 25.21973997436367 25.21973997436367 25.21973997436367 25.21973997436367 25.21973997436367 25.197765976927304 25.197765976927304 25.175791979490935 25.15381798205457 25.15381798205457 25.15381798205457 25.15381798205457 25.15381798205457 25.15381798205457 25.15381798205457 25.15381798205457 25.15381798205457 25.15381798205457 25.15381798205457 25.15381798205457 25.15381798205457 25.15381798205457 25.15381798205457 25.15381798205457 25.1318439846182 25.15381798205457 25.15381798205457 25.15381798205457 25.15381798205457 25.15381798205457 25.15381798205457 25.1318439846182 25.15381798205457 25.15381798205457 25.15381798205457 25.1318439846182 25.15381798205457 25.15381798205457 25.1318439846182 25.15381798205457 25.15381798205457 25.15381798205457 25.1318439846182 25.15381798205457 25.15381798205457 25.15381798205457 25.15381798205457 25.15381798205457 25.1318439846182 25.1318439846182 25.15381798205457 25.15381798205457 25.1318439846182 25.1318439846182 25.15381798205457 25.1318439846182 25.15381798205457 25.1318439846182 25.1318439846182 25.1318439846182 25.1318439846182 25.1318439846182 25.1318439846182 25.1318439846182 25.1318439846182 25.1318439846182 25.1318439846182 25.1318439846182 25.1318439846182 25.1318439846182 25.1318439846182 25.15381798205457 25.1318439846182 25.1318439846182 25.1318439846182 25.1318439846182 25.1318439846182 25.1318439846182 25.1318439846182 25.1318439846182 25.1318439846182 25.1318439846182 25.1318439846182 25.1318439846182 25.1318439846182 25.1318439846182 25.1318439846182 25.1318439846182 25.1318439846182 25.1318439846182 25.1318439846182 25.1318439846182 25.1318439846182 25.1318439846182 25.1318439846182 25.1318439846182 25.1318439846182 25.1318439846182 25.1318439846182 25.1318439846182 25.1318439846182 25.1318439846182 25.15381798205457 25.1318439846182 25.1318439846182 25.15381798205457 25.1318439846182 25.1318439846182 25.1318439846182 25.1318439846182 25.1318439846182 25.1318439846182 25.1318439846182 25.1318439846182 25.1318439846182 25.1318439846182 25.1318439846182 25.1318439846182 25.1318439846182 25.1318439846182 25.1318439846182 25.15381798205457 25.15381798205457 25.15381798205457 25.15381798205457 25.15381798205457 25.15381798205457 25.15381798205457 25.15381798205457 25.15381798205457 25.15381798205457 25.15381798205457 25.15381798205457 25.15381798205457 25.15381798205457 25.15381798205457 25.15381798205457 25.15381798205457 25.15381798205457 25.15381798205457 25.15381798205457 25.15381798205457 25.15381798205457 25.15381798205457 25.15381798205457 25.15381798205457 25.15381798205457 25.15381798205457 25.15381798205457 25.15381798205457 25.15381798205457 25.15381798205457 25.15381798205457 25.175791979490935 25.15381798205457 25.175791979490935 25.175791979490935 25.15381798205457 25.175791979490935 25.15381798205457 25.15381798205457 25.15381798205457 25.175791979490935 25.15381798205457 25.15381798205457 25.15381798205457 25.175791979490935 25.15381798205457 25.15381798205457 25.15381798205457 25.15381798205457 25.15381798205457 25.15381798205457 25.175791979490935 25.15381798205457 25.15381798205457 25.15381798205457 25.15381798205457 25.175791979490935 25.175791979490935 25.175791979490935 25.175791979490935 25.15381798205457 25.175791979490935 25.175791979490935 25.175791979490935 25.15381798205457 25.175791979490935 25.175791979490935 25.175791979490935 25.175791979490935 25.175791979490935 25.175791979490935 25.175791979490935 25.175791979490935 25.175791979490935 25.175791979490935 25.175791979490935 25.175791979490935 25.175791979490935 25.175791979490935 25.175791979490935 25.175791979490935 25.197765976927304 25.197765976927304 25.197765976927304 25.21973997436367 25.21973997436367 25.21973997436367 25.21973997436367 25.21973997436367 25.21973997436367 25.241713971800035 25.241713971800035 25.241713971800035 25.241713971800035 25.241713971800035 25.263687969236404 25.263687969236404 25.28566196667277 25.30763596410914 25.30763596410914 25.35158395898187 25.395531953854604 25.43947994872734 25.483427943600073 25.50540194103644 25.549349935909174 25.571323933345543 25.593297930781908 25.637245925654643 25.681193920527377 25.72514191540011 25.835011902581943 25.878959897454678 26.01080388207288 26.164621864127447 26.274491851309286 26.472257828236586 26.779893792345725 27.02160776414576 27.439113715436733 27.724775682109502 28.18622962827321 28.64768357443692 29.043215528291523 29.306903497527927 29.790331441127996 30.20783739241897 30.471525361655374 30.735213330891778 31.174693279619117 31.50430324116462 31.81193920527376 32.55905511811024 33.086431056583045 33.459989013001284 34.009338948910454 34.36092290789233 34.86632484892877 35.34975279252884 35.65738875663798 36.118842702801686 36.646218641274494 36.931880607947264 37.5691265336019 37.92071049258378 38.42611243362022 38.79967039003846 39.21717634132943 39.744552279802235 40.35982420802051 41.019044131111514 41.74418604651163 42.27156198498443 43.08459989013001 43.96355978758469 44.5568577183666 45.41384361838491 46.00714154916682 46.93004944149423 47.78703534151254 48.49020325947629 49.588903131294636 50.46786302874931 51.01721296465848 51.65445889031313 52.24775682109504 53.104742721113354 54.24739058780443 54.84068851858634 55.71964841604102 56.620582310932065 57.30177623145944 57.93902215711408 58.55429408533236 59.652993957150706 60.55392785204175 61.12525178538729 61.96026368796924 62.773301593114816 63.10291155466032 64.04779344442409 64.55319538546054 65.25636330342428 65.82768723676982 66.26716718549716 66.99230910089727 67.76139901117011 68.61838491118843 69.18970884453397 69.73905878044314 70.53012268815235 71.27723860098882 71.7606665445889 72.72752243178905 73.47463834462553 74.00201428309833 74.55136421900751 75.07874015748033 76.02362204724409 76.72678996520784 77.16626991393517 77.78154184215344 78.46273576268084 78.92418970884452 79.60538362937191 80.04486357809925 80.72605749862663 81.36330342428127 81.82475737044497 82.39608130379051 82.92345724226331 83.4728071781725 83.82439113715438 84.15400109869987 84.65940303973632 85.23072697308186 85.42849295000916 85.71415491668193 86.04376487822742 86.30745284746384 86.50521882439114 86.72495879875481 87.01062076542757 87.25233473722761 87.38417872184581 87.55997070133675 87.66984068851858 87.77971067570043 87.84563266800953 87.88958066288225 87.93352865775499 87.93352865775499 87.93352865775499 87.93352865775499 87.93352865775499 87.93352865775499 87.93352865775499 87.93352865775499 87.91155466031863 87.86760666544589 87.86760666544589 87.82365867057317 87.82365867057317 87.80168467313679 87.80168467313679 87.80168467313679 87.77971067570043 87.73576268082769 87.71378868339133 87.69181468595497 87.66984068851858 87.64786669108221 87.62589269364585 87.58194469877311 87.51602270646401 87.45010071415491 87.36220472440945 87.23036073979125 87.09851675517305 86.98864676799121 86.90075077824574 86.85680278337301 86.76890679362754 86.70298480131844 86.68101080388207 86.6590368064457 86.61508881157297 86.57114081670024 86.50521882439114 86.48324482695477 86.43929683208204 86.35140084233657 86.30745284746384 86.21955685771837 86.17560886284564 86.08771287310017 85.97784288591834 85.95586888848196 85.8679728987365 85.82402490386376 85.8020509064274 85.78007690899102 85.7361289141183 85.71415491668193 85.71415491668193 85.69218091924556 85.64823292437282 85.6042849295001 85.56033693462736 85.4724409448819 85.42849295000916 85.38454495513642 85.29664896539094 85.25270097051822 85.14283098333638 85.03296099615454 84.94506500640908 84.83519501922726 84.81322102179088 84.72532503204542 84.65940303973632 84.61545504486358 84.54953305255447 84.46163706280902 84.3957150704999 84.30781908075444 84.28584508331807 84.21992309100898 84.1979490935726 84.17597509613624 84.17597509613624 84.17597509613624 84.1320271012635 84.11005310382714 84.08807910639078 84.08807910639078 84.08807910639078 84.0661051089544 84.0661051089544 84.0661051089544 84.02215711408166 83.97820911920894 83.95623512177258 83.9342611243362 83.89031312946346 83.89031312946346 83.8683391320271 83.84636513459074 83.802417139718 83.71452114997254 83.69254715253618 83.67057315509979 83.58267716535434 83.56070316791798 83.51675517304523 83.45083318073613 83.29701519868156 83.18714521149973 83.14319721662699 83.12122321919063 83.09924922175426 83.09924922175426 83.05530122688153 83.05530122688153 83.03332722944516 83.03332722944516 83.03332722944516 83.01135323200879 83.01135323200879 83.01135323200879 83.03332722944516 83.05530122688153 83.09924922175426 83.09924922175426 83.09924922175426 83.09924922175426 83.09924922175426 83.09924922175426 83.09924922175426 83.09924922175426 83.12122321919063 83.12122321919063 83.12122321919063 83.12122321919063 83.12122321919063 83.09924922175426 83.09924922175426 83.0772752243179 83.05530122688153 83.03332722944516 83.01135323200879 82.98937923457243 82.9454312396997 82.92345724226331 82.92345724226331 82.92345724226331 82.92345724226331 82.92345724226331 82.92345724226331 82.92345724226331 82.92345724226331 82.92345724226331 82.90148324482695 82.87950924739059 82.87950924739059 82.87950924739059 82.87950924739059 82.87950924739059 82.87950924739059 82.85753524995422 82.83556125251786 82.8135872550815 82.79161325764511 82.74766526277239 82.74766526277239 82.72569126533602 82.70371726789965 82.68174327046329 82.65976927302691 82.65976927302691 82.63779527559055 82.63779527559055 82.61582127815419 82.61582127815419 82.61582127815419 82.61582127815419 82.63779527559055 82.63779527559055 82.63779527559055 82.65976927302691 82.65976927302691 82.65976927302691 82.63779527559055 82.65976927302691 82.65976927302691 82.61582127815419 82.61582127815419 82.61582127815419 82.61582127815419 82.59384728071782 82.59384728071782 82.59384728071782 82.57187328328145 82.57187328328145 82.54989928584509 82.54989928584509 82.52792528840871 82.52792528840871 82.50595129097235 82.52792528840871 82.52792528840871 82.52792528840871 82.52792528840871 82.52792528840871 82.52792528840871 82.52792528840871 82.52792528840871 82.52792528840871 82.52792528840871 82.52792528840871 82.52792528840871 82.52792528840871 82.52792528840871 82.52792528840871 82.52792528840871 82.52792528840871 82.50595129097235 82.50595129097235 82.48397729353599 82.48397729353599 82.44002929866325 82.41805530122689 82.41805530122689 82.39608130379051 82.39608130379051 82.39608130379051 82.37410730635415 82.37410730635415 82.37410730635415 82.37410730635415 82.39608130379051 82.37410730635415 82.37410730635415 82.37410730635415 82.37410730635415 82.39608130379051 82.39608130379051 82.39608130379051 82.39608130379051 82.39608130379051 82.39608130379051 82.39608130379051 82.39608130379051 82.39608130379051 82.37410730635415 82.35213330891779 82.35213330891779 82.33015931148142 82.30818531404505 82.28621131660869 82.28621131660869 82.26423731917231 82.26423731917231 82.26423731917231 82.26423731917231 82.24226332173595 82.26423731917231 82.26423731917231 82.26423731917231 82.26423731917231 82.24226332173595 82.26423731917231 82.24226332173595 82.22028932429959 82.19831532686322 82.17634132942685 82.17634132942685 82.17634132942685 82.15436733199049 