29.0 29.0 28.969236403589086 28.969236403589086 29.0 28.969236403589086 28.969236403589086 28.969236403589086 29.0 29.0 29.0 28.969236403589086 29.0 28.969236403589086 28.969236403589086 28.969236403589086 28.969236403589086 28.969236403589086 28.969236403589086 28.969236403589086 28.969236403589086 29.0 28.969236403589086 28.969236403589086 29.0 29.0 28.969236403589086 28.969236403589086 29.0 28.969236403589086 28.969236403589086 29.0 29.0 28.969236403589086 29.0 28.969236403589086 29.0 28.969236403589086 28.969236403589086 29.0 29.0 29.0 28.969236403589086 28.969236403589086 29.0 28.969236403589086 29.0 28.969236403589086 29.0 28.969236403589086 28.969236403589086 29.0 29.0 29.0 28.969236403589086 29.0 28.969236403589086 29.0 29.0 29.0 29.0 28.969236403589086 28.969236403589086 28.969236403589086 28.969236403589086 28.969236403589086 28.969236403589086 28.969236403589086 29.0 29.0 29.0 28.969236403589086 29.0 29.0 29.0 28.969236403589086 28.969236403589086 28.969236403589086 28.969236403589086 29.0 28.969236403589086 28.969236403589086 29.0 29.0 28.969236403589086 28.969236403589086 28.969236403589086 28.969236403589086 28.969236403589086 28.969236403589086 28.969236403589086 29.0 28.969236403589086 28.969236403589086 28.969236403589086 29.0 28.969236403589086 29.0 28.969236403589086 28.969236403589086 29.0 29.0 29.0 29.0 29.0 28.969236403589086 28.969236403589086 29.0 28.969236403589086 29.0 28.969236403589086 29.0 28.969236403589086 28.969236403589086 28.969236403589086 28.969236403589086 29.0 28.969236403589086 28.969236403589086 28.969236403589086 29.0 28.969236403589086 28.969236403589086 29.0 29.0 29.0 28.969236403589086 28.969236403589086 28.969236403589086 29.0 28.969236403589086 28.969236403589086 28.969236403589086 28.969236403589086 29.0 28.969236403589086 28.969236403589086 28.969236403589086 28.969236403589086 29.0 29.0 28.969236403589086 29.0 29.0 29.0 29.0 28.969236403589086 29.0 28.969236403589086 29.0 28.969236403589086 28.969236403589086 28.969236403589086 29.0 29.0 28.969236403589086 28.969236403589086 28.969236403589086 28.969236403589086 28.969236403589086 28.969236403589086 28.969236403589086 28.969236403589086 28.969236403589086 28.969236403589086 28.969236403589086 28.969236403589086 28.969236403589086 28.969236403589086 29.0 28.969236403589086 28.969236403589086 28.969236403589086 28.969236403589086 28.969236403589086 28.969236403589086 28.969236403589086 28.969236403589086 28.969236403589086 28.969236403589086 28.969236403589086 28.969236403589086 28.969236403589086 28.969236403589086 29.0 28.969236403589086 28.969236403589086 28.969236403589086 28.969236403589086 28.969236403589086 28.969236403589086 28.969236403589086 29.0 28.969236403589086 28.969236403589086 28.969236403589086 29.0 28.969236403589086 28.969236403589086 28.969236403589086 28.969236403589086 28.969236403589086 28.969236403589086 28.969236403589086 28.969236403589086 28.969236403589086 28.969236403589086 28.969236403589086 28.969236403589086 28.969236403589086 28.969236403589086 28.969236403589086 28.969236403589086 28.969236403589086 28.969236403589086 29.0 28.969236403589086 28.969236403589086 28.969236403589086 28.969236403589086 28.969236403589086 28.969236403589086 28.969236403589086 28.969236403589086 28.969236403589086 28.969236403589086 28.969236403589086 28.969236403589086 28.969236403589086 28.969236403589086 28.969236403589086 28.969236403589086 29.0 28.969236403589086 28.969236403589086 28.969236403589086 28.969236403589086 28.969236403589086 28.969236403589086 28.969236403589086 28.969236403589086 28.969236403589086 28.969236403589086 28.969236403589086 29.0 28.969236403589086 28.969236403589086 28.969236403589086 28.969236403589086 28.969236403589086 28.969236403589086 28.969236403589086 28.969236403589086 28.969236403589086 28.969236403589086 28.969236403589086 28.969236403589086 28.969236403589086 28.969236403589086 28.969236403589086 28.969236403589086 28.969236403589086 28.969236403589086 28.969236403589086 28.969236403589086 28.969236403589086 28.969236403589086 28.969236403589086 28.969236403589086 28.969236403589086 28.969236403589086 28.969236403589086 28.969236403589086 28.969236403589086 28.969236403589086 29.0 28.969236403589086 28.969236403589086 28.969236403589086 28.969236403589086 28.969236403589086 28.969236403589086 28.969236403589086 28.969236403589086 28.969236403589086 29.0 28.969236403589086 28.969236403589086 28.969236403589086 28.969236403589086 28.969236403589086 28.969236403589086 28.969236403589086 28.969236403589086 28.969236403589086 28.969236403589086 28.969236403589086 28.969236403589086 28.969236403589086 28.969236403589086 28.969236403589086 28.969236403589086 28.969236403589086 28.969236403589086 28.969236403589086 28.969236403589086 28.969236403589086 28.969236403589086 28.969236403589086 28.969236403589086 28.969236403589086 28.969236403589086 28.969236403589086 28.969236403589086 28.969236403589086 28.969236403589086 28.969236403589086 28.969236403589086 28.969236403589086 28.969236403589086 29.0 28.969236403589086 28.969236403589086 28.969236403589086 28.969236403589086 28.969236403589086 28.969236403589086 29.0 29.0 28.969236403589086 28.969236403589086 29.0 29.0 28.969236403589086 28.969236403589086 28.969236403589086 29.0 29.0 28.969236403589086 28.969236403589086 28.969236403589086 28.969236403589086 28.969236403589086 28.969236403589086 28.969236403589086 28.969236403589086 28.969236403589086 28.969236403589086 28.969236403589086 28.969236403589086 28.969236403589086 28.969236403589086 28.969236403589086 28.969236403589086 28.969236403589086 28.969236403589086 29.0 29.0 28.969236403589086 28.969236403589086 28.969236403589086 28.969236403589086 28.969236403589086 28.969236403589086 28.969236403589086 28.969236403589086 28.969236403589086 28.969236403589086 28.969236403589086 28.969236403589086 28.969236403589086 28.969236403589086 28.969236403589086 28.969236403589086 28.969236403589086 28.969236403589086 29.0 28.969236403589086 28.969236403589086 28.969236403589086 28.969236403589086 28.969236403589086 28.969236403589086 28.969236403589086 28.969236403589086 28.969236403589086 28.969236403589086 28.969236403589086 28.969236403589086 28.969236403589086 28.969236403589086 28.969236403589086 28.969236403589086 29.0 28.969236403589086 28.969236403589086 28.969236403589086 28.969236403589086 28.969236403589086 28.969236403589086 28.969236403589086 28.969236403589086 28.969236403589086 28.969236403589086 28.969236403589086 28.969236403589086 28.969236403589086 28.969236403589086 28.969236403589086 28.969236403589086 28.969236403589086 28.969236403589086 28.969236403589086 28.969236403589086 29.0 29.0 28.969236403589086 28.969236403589086 28.969236403589086 28.969236403589086 28.969236403589086 28.969236403589086 28.969236403589086 28.969236403589086 28.969236403589086 28.969236403589086 28.969236403589086 28.969236403589086 28.969236403589086 28.969236403589086 28.969236403589086 28.969236403589086 28.969236403589086 28.969236403589086 28.969236403589086 28.969236403589086 28.969236403589086 28.969236403589086 28.969236403589086 28.969236403589086 28.969236403589086 28.969236403589086 28.969236403589086 29.0 28.969236403589086 28.969236403589086 28.969236403589086 28.969236403589086 28.969236403589086 28.969236403589086 28.969236403589086 28.969236403589086 28.969236403589086 28.969236403589086 28.969236403589086 28.969236403589086 28.969236403589086 28.969236403589086 28.969236403589086 28.969236403589086 28.969236403589086 28.969236403589086 28.969236403589086 28.969236403589086 28.969236403589086 28.969236403589086 28.969236403589086 28.969236403589086 28.969236403589086 28.969236403589086 28.969236403589086 28.969236403589086 28.969236403589086 28.969236403589086 28.969236403589086 28.969236403589086 29.0 28.969236403589086 28.969236403589086 28.969236403589086 29.0 28.969236403589086 28.969236403589086 28.969236403589086 28.969236403589086 28.969236403589086 28.969236403589086 29.0 28.969236403589086 28.969236403589086 28.969236403589086 28.969236403589086 28.969236403589086 28.969236403589086 29.0 28.969236403589086 28.969236403589086 28.969236403589086 28.969236403589086 28.969236403589086 28.969236403589086 28.969236403589086 28.969236403589086 28.969236403589086 28.969236403589086 29.0 28.969236403589086 29.0 28.969236403589086 28.969236403589086 28.969236403589086 28.969236403589086 29.0 28.969236403589086 29.0 28.969236403589086 28.969236403589086 28.969236403589086 28.969236403589086 28.969236403589086 28.969236403589086 28.969236403589086 28.969236403589086 28.969236403589086 28.969236403589086 29.0 28.969236403589086 29.0 28.969236403589086 28.969236403589086 28.969236403589086 29.0 28.969236403589086 28.969236403589086 28.969236403589086 28.969236403589086 28.969236403589086 28.969236403589086 28.969236403589086 28.969236403589086 28.969236403589086 28.969236403589086 28.969236403589086 29.0 29.030763596410914 29.061527192821828 29.061527192821828 29.123054385643655 29.184581578465483 29.276872367698225 29.39992675334188 29.522981138985532 29.6767991210401 29.83061710309467 30.07672587438198 30.322834645669293 30.445889031312948 30.538179820545686 30.630470609778428 30.72276139901117 30.784288591832997 30.845815784654825 30.938106573887566 31.12268815235305 31.307269730818533 31.584142098516754 31.830250869804065 32.168650430324114 32.47628639443325 32.814685954953305 33.214612708295185 33.64530305804798 34.04522981138985 34.41439296832082 34.87584691448453 35.337300860648234 35.79875480681194 36.29097234938656 36.84471708478301 37.33693462735763 37.859915766343164 38.321369712506865 38.8443508514924 39.367331990477936 39.921076725874386 40.50558505768174 41.02856619666728 41.5207837392419 42.04376487822743 42.53598242080205 43.0897271561985 43.52041750595129 44.01263504852591 44.474088994689616 44.96630653726424 45.396996887017025 45.76616004394799 46.16608679728987 46.53524995422084 46.904413111151804 47.24281267167186 47.61197582860282 47.98113898553378 48.35030214246475 48.6887017029848 49.027101263504846 49.365500824024906 49.73466398095587 50.10382713788683 50.442226698406884 50.842153451748764 51.211316608679724 51.58047976561069 51.91887932613075 52.257278886650795 52.59567844717085 52.84178721845816 53.118659586156376 53.3955319538546 53.610877128731005 53.79545870719648 53.918513092840136 54.0415674784838 54.10309467130563 54.13385826771653 54.13385826771653 54.16462186412745 54.13385826771653 54.16462186412745 54.16462186412745 54.16462186412745 54.16462186412745 54.16462186412745 54.16462186412745 54.16462186412745 54.16462186412745 54.16462186412745 54.16462186412745 54.16462186412745 54.16462186412745 54.16462186412745 54.16462186412745 54.16462186412745 54.16462186412745 54.16462186412745 54.16462186412745 54.16462186412745 54.16462186412745 54.16462186412745 54.16462186412745 54.16462186412745 54.16462186412745 54.16462186412745 54.16462186412745 54.16462186412745 54.16462186412745 54.16462186412745 54.16462186412745 54.16462186412745 54.16462186412745 54.16462186412745 54.16462186412745 54.16462186412745 54.16462186412745 54.16462186412745 54.16462186412745 54.16462186412745 54.226149056949275 54.226149056949275 54.25691265336019 54.2876762497711 54.31843984618202 54.379967039003844 54.44149423182567 54.47225782823658 54.53378502105841 54.56454861746933 54.59531221388024 54.626075810291155 54.626075810291155 54.626075810291155 54.626075810291155 54.626075810291155 54.626075810291155 54.626075810291155 54.626075810291155 54.626075810291155 54.626075810291155 54.626075810291155 54.626075810291155 54.626075810291155 54.626075810291155 54.626075810291155 54.626075810291155 54.626075810291155 54.626075810291155 54.626075810291155 54.626075810291155 54.626075810291155 54.626075810291155 54.626075810291155 54.626075810291155 54.626075810291155 54.626075810291155 54.626075810291155 54.626075810291155 54.626075810291155 54.626075810291155 54.626075810291155 54.59531221388024 54.59531221388024 54.59531221388024 54.59531221388024 54.59531221388024 54.56454861746933 54.56454861746933 54.53378502105841 54.5030214246475 54.5030214246475 54.47225782823658 54.47225782823658 54.47225782823658 54.47225782823658 54.47225782823658 54.47225782823658 54.47225782823658 54.47225782823658 54.47225782823658 54.47225782823658 54.47225782823658 54.47225782823658 54.47225782823658 54.47225782823658 54.47225782823658 54.47225782823658 54.47225782823658 54.47225782823658 54.47225782823658 54.47225782823658 54.47225782823658 54.47225782823658 54.47225782823658 54.47225782823658 54.47225782823658 54.47225782823658 54.47225782823658 54.47225782823658 54.47225782823658 54.47225782823658 54.47225782823658 54.47225782823658 54.47225782823658 54.44149423182567 54.44149423182567 54.44149423182567 54.44149423182567 54.44149423182567 54.44149423182567 54.44149423182567 54.44149423182567 54.44149423182567 54.44149423182567 54.44149423182567 54.44149423182567 54.44149423182567 54.44149423182567 54.44149423182567 54.44149423182567 54.44149423182567 54.44149423182567 54.44149423182567 54.44149423182567 54.44149423182567 54.44149423182567 54.44149423182567 54.44149423182567 54.44149423182567 54.44149423182567 54.44149423182567 54.44149423182567 54.44149423182567 54.44149423182567 54.44149423182567 54.44149423182567 54.44149423182567 54.44149423182567 54.44149423182567 54.44149423182567 54.44149423182567 54.44149423182567 54.47225782823658 54.47225782823658 54.44149423182567 54.47225782823658 54.47225782823658 54.5030214246475 54.5030214246475 54.53378502105841 54.56454861746933 54.56454861746933 54.56454861746933 54.56454861746933 54.56454861746933 54.56454861746933 54.56454861746933 54.59531221388024 54.59531221388024 54.59531221388024 54.59531221388024 54.59531221388024 54.59531221388024 54.59531221388024 54.59531221388024 54.59531221388024 54.626075810291155 54.626075810291155 54.626075810291155 54.626075810291155 54.626075810291155 54.626075810291155 54.626075810291155 54.626075810291155 54.626075810291155 54.626075810291155 54.626075810291155 54.626075810291155 54.626075810291155 54.626075810291155 54.65683940670207 54.626075810291155 54.626075810291155 54.626075810291155 54.626075810291155 54.626075810291155 54.626075810291155 54.626075810291155 54.626075810291155 54.626075810291155 54.626075810291155 54.626075810291155 54.626075810291155 54.626075810291155 54.626075810291155 54.626075810291155 54.626075810291155 54.626075810291155 54.626075810291155 54.626075810291155 54.626075810291155 54.626075810291155 54.626075810291155 54.626075810291155 54.626075810291155 54.626075810291155 54.626075810291155 54.626075810291155 54.626075810291155 54.626075810291155 54.626075810291155 54.626075810291155 54.626075810291155 54.65683940670207 54.65683940670207 54.65683940670207 54.65683940670207 54.68760300311298 54.68760300311298 54.68760300311298 54.68760300311298 54.68760300311298 54.68760300311298 54.68760300311298 54.68760300311298 54.68760300311298 54.68760300311298 54.68760300311298 54.68760300311298 54.68760300311298 54.68760300311298 54.68760300311298 54.68760300311298 54.68760300311298 54.68760300311298 54.68760300311298 54.68760300311298 54.68760300311298 54.68760300311298 54.68760300311298 54.68760300311298 54.68760300311298 54.68760300311298 54.68760300311298 54.68760300311298 54.68760300311298 54.68760300311298 54.68760300311298 54.68760300311298 54.68760300311298 54.68760300311298 54.7183665995239 54.68760300311298 54.68760300311298 54.7183665995239 54.68760300311298 54.68760300311298 54.68760300311298 54.68760300311298 54.68760300311298 54.68760300311298 54.68760300311298 54.68760300311298 54.68760300311298 54.68760300311298 54.68760300311298 54.68760300311298 54.68760300311298 54.68760300311298 54.68760300311298 54.68760300311298 54.68760300311298 54.68760300311298 54.68760300311298 54.68760300311298 54.68760300311298 54.68760300311298 54.68760300311298 54.7183665995239 54.68760300311298 54.68760300311298 54.68760300311298 54.68760300311298 54.68760300311298 54.68760300311298 54.68760300311298 54.68760300311298 54.68760300311298 54.68760300311298 54.68760300311298 54.68760300311298 54.68760300311298 54.68760300311298 54.68760300311298 54.68760300311298 54.68760300311298 54.68760300311298 54.68760300311298 54.68760300311298 54.68760300311298 54.68760300311298 54.68760300311298 54.68760300311298 54.68760300311298 54.68760300311298 54.68760300311298 54.68760300311298 54.68760300311298 54.68760300311298 54.68760300311298 54.65683940670207 54.65683940670207 54.65683940670207 54.626075810291155 54.626075810291155 54.626075810291155 54.59531221388024 54.59531221388024 54.59531221388024 54.59531221388024 54.59531221388024 54.59531221388024 54.59531221388024 54.59531221388024 54.59531221388024 54.59531221388024 54.59531221388024 54.59531221388024 54.59531221388024 54.59531221388024 54.59531221388024 54.59531221388024 54.59531221388024 54.59531221388024 54.59531221388024 54.59531221388024 54.59531221388024 54.59531221388024 54.59531221388024 54.59531221388024 54.59531221388024 54.59531221388024 54.59531221388024 54.59531221388024 54.59531221388024 54.59531221388024 54.59531221388024 54.59531221388024 54.59531221388024 54.59531221388024 54.59531221388024 54.59531221388024 54.59531221388024 54.59531221388024 54.59531221388024 54.59531221388024 54.59531221388024 54.59531221388024 54.59531221388024 54.626075810291155 54.59531221388024 54.59531221388024 54.59531221388024 54.626075810291155 54.626075810291155 54.626075810291155 54.626075810291155 54.626075810291155 54.65683940670207 54.65683940670207 54.65683940670207 54.65683940670207 54.65683940670207 54.68760300311298 54.68760300311298 54.68760300311298 54.7183665995239 54.7183665995239 54.7183665995239 54.7183665995239 54.68760300311298 54.7183665995239 54.68760300311298 54.7183665995239 54.7183665995239 54.7183665995239 54.74913019593481 54.74913019593481 54.74913019593481 54.74913019593481 54.74913019593481 54.77989379234572 54.77989379234572 54.77989379234572 54.77989379234572 54.77989379234572 54.77989379234572 54.81065738875664 54.77989379234572 54.81065738875664 54.81065738875664 54.77989379234572 54.81065738875664 54.81065738875664 54.81065738875664 54.77989379234572 54.81065738875664 54.77989379234572 54.77989379234572 54.77989379234572 54.77989379234572 54.77989379234572 54.77989379234572 54.77989379234572 54.77989379234572 54.77989379234572 54.77989379234572 54.77989379234572 54.77989379234572 54.77989379234572 54.77989379234572 54.77989379234572 54.77989379234572 54.77989379234572 54.77989379234572 54.77989379234572 54.77989379234572 54.74913019593481 54.74913019593481 54.7183665995239 54.68760300311298 54.65683940670207 54.65683940670207 54.626075810291155 54.59531221388024 54.56454861746933 54.5030214246475 54.47225782823658 54.41073063541476 54.379967039003844 54.34920344259293 54.31843984618202 54.25691265336019 54.226149056949275 54.19538546053836 54.16462186412745 54.072331074894706 54.01080388207288 53.918513092840136 53.76469511078557 53.67240432155283 53.580113532320084 53.45705914667643 53.3955319538546 53.303241164621866 53.18018677897821 53.057132393334555 52.87255081486907 52.811023622047244 52.78026002563632 52.62644204358176 52.47262406152719 52.31880607947262 52.22651529023988 52.103460904596226 51.949642922541656 51.85735213330892 51.67277055484343 51.51895257278886 51.39589818714521 51.242080205090645 51.149789415857896 50.96520783739241 50.78062625892693 50.65757187328328 50.4729902948178 50.288408716352315 50.134590734297745 49.91924555942135 49.76542757736678 49.48855520966856 49.24244643838125 49.05786485991577 48.75022889580663 48.50412012451932 48.28877494964292 47.88884819630104 47.67350302142465 47.45815784654825 47.18128547885003 46.93517670756272 46.658304339864486 46.41219556857718 46.28914118293353 46.043032411646216 45.91997802600257 45.70463285112616 45.52005127266068 45.396996887017025 45.24317890496246 45.05859732649698 44.935542940853324 44.72019776597693 44.6586705731551 44.50485259110053 44.32027101263505 44.19721662699139 44.01263504852591 43.7665262772386 43.64347189159494 43.5511811023622 43.366599523896724 43.274308734663975 43.0897271561985 42.905145577733016 42.68980040285662 42.566746017212964 42.412928035158394 42.22834645669291 42.105292071049256 41.951474088994686 41.7668925105292 41.67460172129647 41.5207837392419 41.42849295000916 41.336202160776416 41.18238417872185 41.15162058231093 41.05932979307819 40.936275407434536 40.87474821461271 40.75169382896905 40.597875846914484 40.47482146127083 40.32100347921626 40.25947628639443 40.16718549716169 40.07489470792895 39.982603918696206 39.890313129463465 39.82878593664164 39.70573155099798 39.582677165354326 39.5211499725325 39.39809558688884 39.30580479765611 39.21351400842337 39.121223219190625 39.028932429957884 38.93664164072514 38.78282365867057 38.69053286943783 38.59824208020509 38.50595129097235 38.44442409815052 38.321369712506865 38.22907892327412 38.10602453763047 37.9522065555759 37.859915766343164 37.73686138069951 37.64457059146676 37.4907526094122 37.36769822376854 37.306171030946714 37.18311664530306 37.060062259659404 36.998535066837576 36.906244277604834 36.84471708478301 36.78318989196118 36.72166269913935 36.62937190990661 36.53708112067387 36.444790331441126 36.32173594579747 36.22944515656473 36.1679179637429 36.106390770921074 35.98333638527742 35.9218091924556 35.82951840322285 35.67570042116829 35.583409631935545 35.46035524629189 35.39882805347006 35.27577366782641 35.21424647500458 35.15271928218275 35.09119208936092 35.029664896539096 34.99890130012818 34.96813770371727 34.937374107306354 34.90661051089544 34.84508331807361 34.8143197216627 34.783556125251785 34.75279252884087 34.69126533601904 34.629738143197216 34.56821095037539 34.537447353964474 34.475920161142646 34.383629371909905 34.26057498626625 34.16828419703351 34.10675700421168 33.983702618568024 33.922175425746204 33.79912104010255 33.73759384728072 33.67606665445889 33.58377586522615 33.522248672404324 33.460721479582496 33.368430690349754 33.33766709393884 33.27613990111701 33.214612708295185 33.18384911188427 33.12232191906244 33.0300311298297 32.968503937007874 32.93774034059696 32.906976744186046 32.84544955136422 32.78392235854239 32.75315876213148 32.69163156930965 32.63010437648782 32.568577183665994 32.507049990844166 32.47628639443325 32.414759201611425 32.32246841237868 32.23017762314594 32.168650430324114 32.107123237502286 32.014832448269544 31.95330525544772 31.95330525544772 31.922541659036806 31.86101446621498 31.830250869804065 31.830250869804065 31.768723676982237 31.737960080571323 31.70719648416041 31.70719648416041 31.676432887749495 31.64566929133858 31.614905694927668 31.55337850210584 31.491851309284012 31.430324116462188 31.36879692364036 31.338033327229446 31.245742537996705 31.153451748763963 31.091924555942136 31.030397363120308 30.938106573887566 30.845815784654825 30.784288591832997 30.691997802600255 30.66123420618934 30.599707013367514 30.5689434169566 30.47665262772386 30.415125434902034 30.29207104925838 30.199780260025637 30.169016663614723 30.07672587438198 30.045962277971068 29.953671488738326 29.922907892327412 29.8921442959165 29.8921442959165 29.861380699505585 29.861380699505585 29.83061710309467 29.799853506683757 29.799853506683757 29.769089910272843 29.73832631386193 29.707562717451015 29.707562717451015 29.6767991210401 29.6767991210401 29.646035524629188 29.646035524629188 29.646035524629188 29.646035524629188 29.646035524629188 29.615271928218274 29.615271928218274 29.615271928218274 29.615271928218274 29.58450833180736 29.58450833180736 29.553744735396446 29.522981138985532 29.49221754257462 29.49221754257462 29.49221754257462 29.461453946163708 29.461453946163708 29.430690349752794 29.39992675334188 29.369163156930966 29.338399560520052 29.338399560520052 29.30763596410914 29.30763596410914 29.30763596410914 29.30763596410914 29.276872367698225 29.276872367698225 29.276872367698225 29.276872367698225 29.276872367698225 29.24610877128731 29.24610877128731 29.24610877128731 29.24610877128731 29.215345174876397 29.215345174876397 29.215345174876397 29.184581578465483 29.184581578465483 29.15381798205457 29.15381798205457 29.15381798205457 29.15381798205457 29.15381798205457 29.15381798205457 29.15381798205457 29.15381798205457 29.15381798205457 29.123054385643655 29.123054385643655 29.123054385643655 29.15381798205457 29.123054385643655 29.123054385643655 29.123054385643655 29.123054385643655 29.123054385643655 29.123054385643655 29.123054385643655 29.09229078923274 29.09229078923274 29.09229078923274 29.09229078923274 29.061527192821828 29.061527192821828 29.061527192821828 29.061527192821828 29.030763596410914 29.030763596410914 29.030763596410914 29.030763596410914 29.030763596410914 29.030763596410914 29.030763596410914 29.030763596410914 29.030763596410914 29.030763596410914 29.030763596410914 29.030763596410914 29.030763596410914 29.030763596410914 29.030763596410914 29.030763596410914 29.0 29.0 29.030763596410914 29.030763596410914 29.0 29.0 29.0 29.0 29.030763596410914 29.0 29.0 29.0 29.0 29.0 29.0 29.0 29.0 29.0 29.0 29.0 29.0 29.0 29.0 29.0 29.0 29.0 28.969236403589086 28.969236403589086 29.0 28.969236403589086 29.0 28.969236403589086 29.0 29.0 28.969236403589086 28.969236403589086 29.0 28.969236403589086 28.969236403589086 28.969236403589086 28.969236403589086 28.969236403589086 28.969236403589086 28.969236403589086 28.969236403589086 28.969236403589086 28.969236403589086 28.969236403589086 28.969236403589086 28.969236403589086 28.969236403589086 28.969236403589086 28.969236403589086 28.969236403589086 28.969236403589086 28.969236403589086 28.969236403589086 28.969236403589086 28.969236403589086 28.969236403589086 28.969236403589086 28.969236403589086 28.969236403589086 28.969236403589086 28.969236403589086 28.969236403589086 28.969236403589086 28.969236403589086 28.969236403589086 28.969236403589086 28.969236403589086 28.969236403589086 28.969236403589086 28.969236403589086 28.969236403589086 28.969236403589086 28.969236403589086 28.969236403589086 28.969236403589086 28.969236403589086 28.969236403589086 28.969236403589086 28.969236403589086 28.969236403589086 28.969236403589086 28.969236403589086 28.969236403589086 28.969236403589086 28.969236403589086 28.969236403589086 28.969236403589086 28.969236403589086 28.969236403589086 28.969236403589086 28.969236403589086 28.969236403589086 28.969236403589086 28.969236403589086 28.969236403589086 28.969236403589086 28.969236403589086 28.969236403589086 28.969236403589086 28.969236403589086 28.938472807178172 28.969236403589086 28.938472807178172 28.969236403589086 28.969236403589086 28.969236403589086 28.969236403589086 28.969236403589086 28.969236403589086 28.969236403589086 28.938472807178172 28.969236403589086 28.969236403589086 28.969236403589086 28.969236403589086 28.969236403589086 28.969236403589086 28.938472807178172 28.938472807178172 28.969236403589086 28.938472807178172 28.969236403589086 28.938472807178172 28.938472807178172 28.938472807178172 28.969236403589086 28.938472807178172 28.969236403589086 28.938472807178172 28.938472807178172 28.938472807178172 28.969236403589086 28.938472807178172 28.938472807178172 28.969236403589086 28.938472807178172 28.938472807178172 28.969236403589086 28.938472807178172 28.938472807178172 28.938472807178172 28.969236403589086 28.938472807178172 28.938472807178172 28.938472807178172 28.969236403589086 28.969236403589086 28.938472807178172 28.938472807178172 28.938472807178172 28.969236403589086 28.938472807178172 28.938472807178172 28.969236403589086 28.938472807178172 28.938472807178172 28.938472807178172 28.938472807178172 28.969236403589086 28.938472807178172 28.969236403589086 28.969236403589086 28.938472807178172 28.938472807178172 28.938472807178172 28.938472807178172 28.938472807178172 28.938472807178172 28.938472807178172 28.938472807178172 28.938472807178172 28.938472807178172 28.938472807178172 28.938472807178172 28.938472807178172 28.938472807178172 28.938472807178172 28.969236403589086 28.938472807178172 28.938472807178172 28.938472807178172 28.938472807178172 28.938472807178172 28.938472807178172 28.969236403589086 28.938472807178172 28.938472807178172 28.938472807178172 28.938472807178172 28.938472807178172 28.938472807178172 28.938472807178172 28.969236403589086 28.938472807178172 28.969236403589086 28.938472807178172 28.938472807178172 28.969236403589086 28.938472807178172 28.938472807178172 28.938472807178172 28.938472807178172 28.938472807178172 28.938472807178172 28.938472807178172 28.938472807178172 28.938472807178172 28.938472807178172 28.938472807178172 28.938472807178172 28.938472807178172 28.938472807178172 28.938472807178172 28.938472807178172 28.938472807178172 28.938472807178172 28.938472807178172 28.969236403589086 28.938472807178172 28.938472807178172 28.969236403589086 28.938472807178172 28.938472807178172 28.938472807178172 28.969236403589086 28.938472807178172 28.938472807178172 28.938472807178172 28.938472807178172 28.938472807178172 28.938472807178172 28.938472807178172 28.938472807178172 28.969236403589086 28.938472807178172 28.938472807178172 28.938472807178172 28.938472807178172 28.938472807178172 28.938472807178172 28.938472807178172 28.938472807178172 28.90770921076726 28.90770921076726 28.90770921076726 28.90770921076726 28.876945614356345 28.876945614356345 28.876945614356345 28.876945614356345 28.84618201794543 28.876945614356345 28.84618201794543 28.84618201794543 28.84618201794543 28.84618201794543 28.84618201794543 28.84618201794543 28.84618201794543 28.84618201794543 28.84618201794543 28.84618201794543 28.84618201794543 28.84618201794543 28.84618201794543 28.84618201794543 28.84618201794543 28.84618201794543 28.84618201794543 28.84618201794543 28.815418421534517 28.815418421534517 28.84618201794543 28.84618201794543 28.84618201794543 28.815418421534517 28.84618201794543 28.84618201794543 28.815418421534517 28.815418421534517 28.84618201794543 28.815418421534517 28.84618201794543 28.84618201794543 28.815418421534517 28.815418421534517 28.815418421534517 28.815418421534517 28.815418421534517 28.815418421534517 28.815418421534517 28.815418421534517 28.815418421534517 28.815418421534517 28.815418421534517 28.815418421534517 28.815418421534517 28.815418421534517 28.815418421534517 28.815418421534517 28.815418421534517 28.815418421534517 28.815418421534517 28.815418421534517 28.815418421534517 28.815418421534517 28.815418421534517 28.815418421534517 28.815418421534517 28.815418421534517 28.815418421534517 28.815418421534517 28.815418421534517 28.815418421534517 28.815418421534517 28.815418421534517 28.815418421534517 28.815418421534517 28.815418421534517 28.815418421534517 28.815418421534517 28.84618201794543 28.815418421534517 28.815418421534517 28.815418421534517 28.815418421534517 28.815418421534517 28.815418421534517 28.815418421534517 28.815418421534517 28.815418421534517 28.815418421534517 28.815418421534517 28.815418421534517 28.815418421534517 28.815418421534517 28.815418421534517 28.815418421534517 28.815418421534517 28.815418421534517 28.815418421534517 28.815418421534517 28.815418421534517 28.815418421534517 28.815418421534517 28.815418421534517 28.815418421534517 28.815418421534517 28.815418421534517 28.815418421534517 28.815418421534517 28.815418421534517 28.815418421534517 28.815418421534517 28.815418421534517 28.815418421534517 28.815418421534517 28.815418421534517 28.815418421534517 28.815418421534517 28.815418421534517 28.815418421534517 28.815418421534517 28.815418421534517 28.815418421534517 28.815418421534517 28.815418421534517 28.815418421534517 28.815418421534517 28.815418421534517 28.815418421534517 28.815418421534517 28.815418421534517 28.815418421534517 28.815418421534517 28.815418421534517 28.815418421534517 28.815418421534517 28.815418421534517 28.815418421534517 28.815418421534517 28.815418421534517 28.815418421534517 28.815418421534517 28.815418421534517 28.815418421534517 28.815418421534517 28.815418421534517 28.784654825123603 28.815418421534517 28.815418421534517 28.815418421534517 28.815418421534517 28.815418421534517 28.784654825123603 28.815418421534517 28.815418421534517 28.815418421534517 28.815418421534517 28.815418421534517 28.815418421534517 28.784654825123603 28.815418421534517 28.815418421534517 28.784654825123603 28.784654825123603 28.815418421534517 28.784654825123603 28.784654825123603 28.784654825123603 28.784654825123603 28.784654825123603 28.784654825123603 28.815418421534517 28.784654825123603 28.815418421534517 28.784654825123603 28.784654825123603 28.784654825123603 28.784654825123603 28.784654825123603 28.784654825123603 28.784654825123603 28.784654825123603 28.784654825123603 28.784654825123603 28.784654825123603 28.784654825123603 28.784654825123603 28.784654825123603 28.784654825123603 28.784654825123603 28.784654825123603 28.784654825123603 28.784654825123603 28.784654825123603 28.784654825123603 28.784654825123603 28.784654825123603 28.784654825123603 28.784654825123603 28.784654825123603 28.784654825123603 28.784654825123603 28.815418421534517 28.784654825123603 28.784654825123603 28.815418421534517 28.784654825123603 28.784654825123603 28.815418421534517 28.784654825123603 28.784654825123603 28.784654825123603 28.784654825123603 28.784654825123603 28.784654825123603 28.784654825123603 28.784654825123603 28.784654825123603 28.784654825123603 28.784654825123603 28.784654825123603 28.784654825123603 28.784654825123603 28.784654825123603 28.784654825123603 28.784654825123603 28.784654825123603 28.784654825123603 28.784654825123603 28.784654825123603 28.784654825123603 28.784654825123603 28.784654825123603 28.784654825123603 28.784654825123603 28.784654825123603 28.784654825123603 28.784654825123603 28.784654825123603 28.784654825123603 28.784654825123603 28.784654825123603 28.784654825123603 28.784654825123603 28.784654825123603 28.784654825123603 28.784654825123603 28.784654825123603 28.784654825123603 28.784654825123603 28.784654825123603 28.784654825123603 28.784654825123603 28.784654825123603 28.784654825123603 28.784654825123603 28.784654825123603 28.784654825123603 28.784654825123603 28.784654825123603 28.784654825123603 28.784654825123603 28.784654825123603 28.784654825123603 28.784654825123603 28.784654825123603 28.784654825123603 28.784654825123603 28.784654825123603 28.784654825123603 28.784654825123603 28.784654825123603 28.784654825123603 28.784654825123603 28.784654825123603 28.784654825123603 28.784654825123603 28.784654825123603 28.784654825123603 28.784654825123603 28.784654825123603 28.784654825123603 28.784654825123603 28.784654825123603 28.784654825123603 28.784654825123603 28.784654825123603 28.784654825123603 28.784654825123603 28.784654825123603 28.784654825123603 28.784654825123603 28.784654825123603 28.784654825123603 28.784654825123603 28.784654825123603 28.784654825123603 28.784654825123603 28.784654825123603 28.784654825123603 28.784654825123603 28.784654825123603 28.784654825123603 28.784654825123603 28.784654825123603 28.784654825123603 28.784654825123603 28.75389122871269 28.784654825123603 28.784654825123603 28.784654825123603 28.784654825123603 28.784654825123603 28.784654825123603 28.784654825123603 28.784654825123603 28.784654825123603 28.784654825123603 28.784654825123603 28.784654825123603 28.784654825123603 28.784654825123603 28.784654825123603 28.784654825123603 28.784654825123603 28.784654825123603 28.784654825123603 28.784654825123603 28.784654825123603 28.784654825123603 28.784654825123603 28.784654825123603 28.784654825123603 28.784654825123603 28.784654825123603 28.784654825123603 28.784654825123603 28.784654825123603 28.784654825123603 28.784654825123603 28.784654825123603 28.784654825123603 28.784654825123603 28.784654825123603 28.784654825123603 28.784654825123603 28.784654825123603 28.784654825123603 28.784654825123603 28.815418421534517 28.784654825123603 28.784654825123603 28.784654825123603 28.784654825123603 28.784654825123603 28.784654825123603 28.784654825123603 28.784654825123603 28.784654825123603 28.784654825123603 28.784654825123603 28.784654825123603 28.784654825123603 28.784654825123603 28.784654825123603 28.784654825123603 28.784654825123603 28.784654825123603 28.784654825123603 28.784654825123603 28.815418421534517 28.784654825123603 28.784654825123603 28.784654825123603 28.784654825123603 28.784654825123603 28.784654825123603 28.784654825123603 28.784654825123603 28.784654825123603 28.784654825123603 28.784654825123603 28.784654825123603 28.784654825123603 28.784654825123603 28.784654825123603 28.784654825123603 28.815418421534517 28.784654825123603 28.784654825123603 28.784654825123603 28.784654825123603 28.784654825123603 28.784654825123603 28.784654825123603 28.784654825123603 28.784654825123603 28.784654825123603 28.784654825123603 28.784654825123603 28.784654825123603 28.815418421534517 28.784654825123603 28.815418421534517 28.815418421534517 28.815418421534517 28.815418421534517 28.815418421534517 28.815418421534517 28.815418421534517 28.815418421534517 28.84618201794543 28.84618201794543 28.815418421534517 28.815418421534517 28.84618201794543 28.84618201794543 28.84618201794543 28.84618201794543 28.84618201794543 28.876945614356345 28.969236403589086 29.030763596410914 29.09229078923274 29.15381798205457 29.24610877128731 29.369163156930966 29.49221754257462 29.615271928218274 29.769089910272843 30.015198681560154 30.107489470792896 30.199780260025637 30.261307452847465 30.353598242080206 30.415125434902034 30.47665262772386 30.538179820545686 30.5689434169566 30.630470609778428 30.72276139901117 30.81505218824391 30.87657938106574 30.999633766709394 31.12268815235305 31.27650613440762 31.430324116462188 31.522614905694926 31.676432887749495 31.830250869804065 31.95330525544772 32.04559604468046 32.1378868339132 32.23017762314594 32.260941219556855 32.32246841237868 32.47628639443325 32.63010437648782 32.87621314777513 33.12232191906244 33.30690349752793 33.64530305804798 34.01446621497894 34.32210217908808 34.75279252884087 35.183482878593665 35.52188243911371 36.044863578099246 36.444790331441126 36.87548068119392 37.18311664530306 37.767624977110415 38.167551730452296 38.44442409815052 38.721296465848745 39.121223219190625 39.5211499725325 39.890313129463465 40.16718549716169 40.536348654092656 40.87474821461271 41.12085698590002 41.459256546420065 41.73612891411829 41.951474088994686 42.22834645669291 42.412928035158394 42.659036806445705 42.905145577733016 43.058963559787585 43.274308734663975 43.42812671671855 43.581944698773114 43.73576268082768 43.92034425929317 44.074162241347736 44.28950741622413 44.41256180186779 44.56637978392236 44.81248855520967 44.935542940853324 45.12012451931881 45.21241530855154 45.396996887017025 45.5508148690716 45.67386925471526 45.82768723676982 45.98150521882439 46.104559604468044 46.2276139901117 46.31990477934444 46.442959164988096 46.596777147042665 46.62754074345358 46.750595129097235 46.87364951474089 46.93517670756272 47.08899468961728 47.15052188243911 47.27357626808276 47.36586705731551 47.42739425013734 47.519685039370074 47.5812122321919 47.64273942501373 47.73503021424648 47.7965574070683 47.88884819630104 47.95037538912287 48.011902581944696 48.104193371177445 48.13495696758835 48.19648416041018 48.25801135323201 48.319538546053835 48.38106573887566 48.53488372093023 48.565647317341146 48.6887017029848 48.719465299395715 48.81175608862846 48.873283281450284 48.96557407068302 49.05786485991577 49.1501556491485 49.21168284197033 49.27321003479216 49.334737227613985 49.39626442043581 49.48855520966856 49.55008240249039 49.61160959531221 49.673136788134045 49.73466398095587 49.79619117377769 49.85771836659953 49.91924555942135 49.95000915583226 49.95000915583226 49.980772752243176 50.01153634865409 50.042299945065004 50.07306354147592 50.10382713788683 50.134590734297745 50.134590734297745 50.16535433070866 50.19611792711957 50.22688152353049 50.2576451199414 50.288408716352315 50.31917231276323 50.34993590917414 50.41146310199597 50.41146310199597 50.4729902948178 50.534517487639626 50.56528108405054 50.62680827687237 50.688335469694195 50.71909906610511 50.78062625892693 50.78062625892693 50.81138985533785 50.87291704815968 50.87291704815968 50.903680644570585 50.934444240981506 50.96520783739241 50.995971433803334 50.995971433803334 51.02673503021424 51.05749862662516 51.05749862662516 51.11902581944699 51.149789415857896 51.211316608679724 51.27284380150155 51.30360739791247 51.33437099432338 51.33437099432338 51.3651345907343 51.39589818714521 51.39589818714521 51.42666178355613 51.42666178355613 51.457425379967034 51.457425379967034 51.457425379967034 51.457425379967034 51.488188976377955 51.488188976377955 51.54971616919978 51.58047976561069 51.64200695843252 51.67277055484343 51.703534151254345 51.73429774766526 51.76506134407617 51.79582494048709 51.826588536898 51.85735213330892 51.85735213330892 51.91887932613075 51.91887932613075 51.98040651895257 52.011170115363484 52.07269730818531 52.103460904596226 52.13422450100714 52.16498809741805 52.19575169382897 52.22651529023988 52.22651529023988 52.257278886650795 52.257278886650795 52.288042483061716 52.288042483061716 52.31880607947262 52.31880607947262 52.31880607947262 52.34956967588353 52.34956967588353 52.34956967588353 52.34956967588353 52.34956967588353 52.38033327229445 52.411096868705364 52.44186046511628 52.47262406152719 52.53415125434902 52.56491485075993 52.56491485075993 52.62644204358176 52.65720563999267 52.68796923640359 52.718732832814496 52.74949642922542 52.78026002563632 52.78026002563632 52.78026002563632 52.811023622047244 52.811023622047244 52.811023622047244 52.811023622047244 52.811023622047244 52.811023622047244 52.811023622047244 52.811023622047244 52.811023622047244 52.811023622047244 52.811023622047244 52.811023622047244 52.811023622047244 52.811023622047244 52.811023622047244 52.811023622047244 52.811023622047244 52.811023622047244 52.811023622047244 52.811023622047244 52.811023622047244 52.78026002563632 52.811023622047244 52.811023622047244 52.811023622047244 52.78026002563632 52.78026002563632 52.78026002563632 52.78026002563632 52.78026002563632 52.78026002563632 52.74949642922542 52.74949642922542 52.78026002563632 52.74949642922542 52.74949642922542 52.74949642922542 52.74949642922542 52.74949642922542 52.74949642922542 52.718732832814496 52.718732832814496 52.68796923640359 52.65720563999267 52.62644204358176 52.62644204358176 52.62644204358176 52.62644204358176 52.62644204358176 52.62644204358176 52.62644204358176 52.62644204358176 52.62644204358176 52.62644204358176 52.62644204358176 52.62644204358176 52.62644204358176 52.62644204358176 52.62644204358176 52.62644204358176 52.62644204358176 52.62644204358176 52.62644204358176 52.62644204358176 52.62644204358176 52.62644204358176 52.62644204358176 52.62644204358176 52.65720563999267 52.62644204358176 52.62644204358176 52.62644204358176 52.62644204358176 52.62644204358176 52.62644204358176 52.62644204358176 52.62644204358176 52.62644204358176 52.62644204358176 52.62644204358176 52.62644204358176 52.62644204358176 52.62644204358176 52.62644204358176 52.62644204358176 52.62644204358176 52.62644204358176 52.62644204358176 52.62644204358176 52.62644204358176 52.62644204358176 52.62644204358176 52.62644204358176 52.62644204358176 52.62644204358176 52.59567844717085 52.56491485075993 52.503387657938106 52.503387657938106 52.47262406152719 52.44186046511628 52.44186046511628 52.44186046511628 52.44186046511628 52.411096868705364 52.38033327229445 52.38033327229445 52.38033327229445 52.38033327229445 52.38033327229445 52.38033327229445 52.38033327229445 52.38033327229445 52.38033327229445 52.38033327229445 52.38033327229445 52.38033327229445 52.38033327229445 52.38033327229445 52.38033327229445 52.38033327229445 52.38033327229445 52.38033327229445 52.38033327229445 52.38033327229445 52.38033327229445 52.38033327229445 52.38033327229445 52.38033327229445 52.38033327229445 52.38033327229445 52.38033327229445 52.38033327229445 52.38033327229445 52.38033327229445 52.38033327229445 52.38033327229445 52.38033327229445 52.38033327229445 52.38033327229445 52.38033327229445 52.38033327229445 52.38033327229445 52.38033327229445 52.38033327229445 52.38033327229445 52.38033327229445 52.38033327229445 52.38033327229445 52.38033327229445 52.34956967588353 52.31880607947262 52.31880607947262 52.31880607947262 52.288042483061716 52.288042483061716 52.257278886650795 52.257278886650795 52.22651529023988 52.19575169382897 52.16498809741805 52.13422450100714 52.103460904596226 52.07269730818531 52.0419337117744 52.0419337117744 52.0419337117744 52.0419337117744 52.0419337117744 52.0419337117744 52.07269730818531 52.07269730818531 52.0419337117744 52.0419337117744 52.07269730818531 52.0419337117744 52.07269730818531 52.07269730818531 52.07269730818531 52.07269730818531 52.07269730818531 52.07269730818531 52.07269730818531 52.0419337117744 52.07269730818531 52.0419337117744 52.07269730818531 52.0419337117744 52.07269730818531 52.07269730818531 52.07269730818531 52.07269730818531 52.0419337117744 52.07269730818531 52.07269730818531 52.07269730818531 52.07269730818531 52.07269730818531 52.07269730818531 52.0419337117744 52.07269730818531 52.0419337117744 52.07269730818531 52.07269730818531 52.0419337117744 52.0419337117744 52.07269730818531 52.07269730818531 52.07269730818531 52.07269730818531 52.0419337117744 52.0419337117744 52.07269730818531 52.07269730818531 52.07269730818531 52.0419337117744 52.0419337117744 52.0419337117744 52.07269730818531 52.07269730818531 52.07269730818531 52.07269730818531 52.0419337117744 52.07269730818531 52.0419337117744 52.07269730818531 52.07269730818531 52.0419337117744 52.0419337117744 52.07269730818531 52.0419337117744 52.0419337117744 52.07269730818531 52.07269730818531 52.07269730818531 52.07269730818531 52.07269730818531 52.07269730818531 52.07269730818531 52.0419337117744 52.0419337117744 52.0419337117744 52.011170115363484 51.98040651895257 51.98040651895257 52.011170115363484 51.98040651895257 51.98040651895257 51.98040651895257 51.98040651895257 52.011170115363484 51.98040651895257 51.98040651895257 51.98040651895257 51.98040651895257 51.98040651895257 51.98040651895257 51.98040651895257 51.98040651895257 51.98040651895257 51.98040651895257 51.98040651895257 51.98040651895257 51.98040651895257 51.98040651895257 51.98040651895257 51.98040651895257 51.98040651895257 51.98040651895257 51.98040651895257 52.011170115363484 52.011170115363484 52.011170115363484 52.011170115363484 52.011170115363484 52.011170115363484 52.011170115363484 52.011170115363484 52.0419337117744 52.0419337117744 52.0419337117744 52.0419337117744 52.0419337117744 52.0419337117744 52.0419337117744 52.0419337117744 52.0419337117744 52.0419337117744 52.0419337117744 52.0419337117744 52.0419337117744 52.0419337117744 52.0419337117744 52.0419337117744 52.0419337117744 52.0419337117744 52.0419337117744 52.011170115363484 52.011170115363484 51.98040651895257 51.949642922541656 51.91887932613075 51.826588536898 51.73429774766526 51.64200695843252 51.54971616919978 51.39589818714521 51.211316608679724 51.08826222303607 50.995971433803334 50.842153451748764 50.74986266251602 50.65757187328328 50.62680827687237 50.442226698406884 50.288408716352315 50.16535433070866 50.07306354147592 49.888481963010435 49.76542757736678 49.642373191723124 49.45779161325764 49.27321003479216 49.08862845632668 48.93481047427211 48.75022889580663 48.565647317341146 48.44259293169749 48.25801135323201 48.13495696758835 47.98113898553378 47.7965574070683 47.67350302142465 47.39663065372642 47.304339864493684 47.15052188243911 46.904413111151804 46.750595129097235 46.596777147042665 46.41219556857718 46.28914118293353 46.13532320087896 45.98150521882439 45.85845083318073 45.70463285112616 45.61234206189343 45.48928767624977 45.36623329060612 45.27394250137337 45.12012451931881 44.96630653726424 44.84325215162058 44.68943416956601 44.56637978392236 44.381798205456874 44.16645303058048 44.01263504852591 43.79728987364952 43.64347189159494 43.42812671671855 43.15125434902033 42.99743636696576 42.812854788500275 42.62827321003479 42.505218824391136 42.32063724592565 42.16681926387108 42.013001281816514 41.82841970335103 41.73612891411829 41.58231093206372 41.459256546420065 41.36696575718733 41.21314777513276 41.12085698590002 40.997802600256364 40.87474821461271 40.78245742537997 40.6286394433254 40.50558505768174 40.413294268449 40.25947628639443 40.1979490935726 40.07489470792895 39.95184032228529 39.79802234023072 39.674967954587075 39.55191356894342 39.45962277971067 39.33656839406702 39.275041201245195 39.15198681560154 39.0596960263688 39.028932429957884 38.93664164072514 38.875114447903314 38.81358725508149 38.721296465848745 38.69053286943783 38.629005676616 38.53671488738326 38.50595129097235 38.413660501739606 38.321369712506865 38.25984251968504 38.167551730452296 38.10602453763047 38.04449734480864 37.9522065555759 37.859915766343164 37.70609778428859 37.58304339864493 37.521516205823104 37.398461820179456 37.2754074345358 37.152353048892145 37.02929866324849 36.93700787401575 36.84471708478301 36.752426295550265 36.56784471708478 36.47555392785204 36.32173594579747 36.22944515656473 36.106390770921074 35.98333638527742 35.86028199963376 35.76799121040103 35.61417322834646 35.52188243911371 35.46035524629189 35.39882805347006 35.337300860648234 35.21424647500458 35.12195568577184 35.029664896539096 34.90661051089544 34.8143197216627 34.75279252884087 34.66050173960813 34.5989745467863 34.537447353964474 34.475920161142646 34.383629371909905 34.29133858267716 34.16828419703351 34.10675700421168 33.983702618568024 33.860648232924376 33.79912104010255 33.7068302508698 33.58377586522615 33.522248672404324 33.42995788317158 33.368430690349754 33.30690349752793 33.214612708295185 33.18384911188427 33.15308551547336 33.12232191906244 33.060794726240616 33.0300311298297 32.99926753341879 32.93774034059696 32.87621314777513 32.78392235854239 32.72239516572056 32.69163156930965 32.59934078007691 32.53781358725508 32.507049990844166 32.47628639443325 32.44552279802234 32.414759201611425 32.3532320087896 32.32246841237868 32.29170481596777 32.260941219556855 32.23017762314594 32.168650430324114 32.1378868339132 32.07635964109137 32.014832448269544 31.95330525544772 31.891778062625892 31.830250869804065 31.768723676982237 31.70719648416041 31.676432887749495 31.64566929133858 31.584142098516754 31.584142098516754 31.584142098516754 31.584142098516754 31.584142098516754 31.55337850210584 31.522614905694926 31.522614905694926 31.491851309284012 31.461087712873102 31.430324116462188 31.399560520051274 31.399560520051274 31.36879692364036 31.338033327229446 31.307269730818533 31.27650613440762 31.27650613440762 31.245742537996705 31.21497894158579 31.21497894158579 31.184215345174877 31.153451748763963 31.153451748763963 31.091924555942136 31.091924555942136 31.030397363120308 30.96887017029848 30.907342977476652 30.81505218824391 30.784288591832997 30.753524995422083 30.66123420618934 30.630470609778428 30.5689434169566 30.538179820545686 30.507416224134772 30.445889031312948 30.415125434902034 30.38436183849112 30.353598242080206 30.353598242080206 30.322834645669293 30.322834645669293 30.29207104925838 30.29207104925838 30.29207104925838 30.261307452847465 30.23054385643655 30.199780260025637 30.13825306720381 30.107489470792896 30.045962277971068 29.98443508514924 29.98443508514924 29.953671488738326 29.922907892327412 29.8921442959165 29.861380699505585 29.83061710309467 29.799853506683757 29.769089910272843 29.73832631386193 29.707562717451015 29.646035524629188 29.646035524629188 29.646035524629188 29.615271928218274 29.615271928218274 29.615271928218274 29.615271928218274 29.615271928218274 29.615271928218274 29.615271928218274 29.58450833180736 29.58450833180736 29.58450833180736 29.58450833180736 29.553744735396446 29.522981138985532 29.49221754257462 29.49221754257462 29.461453946163708 29.461453946163708 29.430690349752794 29.430690349752794 29.430690349752794 29.430690349752794 29.39992675334188 29.39992675334188 29.39992675334188 29.369163156930966 29.369163156930966 29.369163156930966 29.369163156930966 29.338399560520052 29.338399560520052 29.338399560520052 29.338399560520052 29.338399560520052 29.338399560520052 29.338399560520052 29.338399560520052 29.338399560520052 29.30763596410914 29.338399560520052 29.30763596410914 29.30763596410914 29.30763596410914 29.276872367698225 29.276872367698225 29.24610877128731 29.24610877128731 29.215345174876397 29.184581578465483 29.184581578465483 29.184581578465483 29.15381798205457 29.15381798205457 29.15381798205457 29.15381798205457 29.15381798205457 29.123054385643655 29.123054385643655 29.123054385643655 29.123054385643655 29.123054385643655 29.123054385643655 29.123054385643655 29.09229078923274 29.09229078923274 29.061527192821828 29.061527192821828 29.061527192821828 29.061527192821828 29.030763596410914 29.030763596410914 29.030763596410914 29.030763596410914 29.0 29.030763596410914 29.0 29.0 29.0 28.969236403589086 28.969236403589086 28.969236403589086 28.969236403589086 28.969236403589086 28.938472807178172 28.938472807178172 28.938472807178172 28.938472807178172 28.938472807178172 28.90770921076726 28.938472807178172 28.938472807178172 28.938472807178172 28.938472807178172 28.938472807178172 28.90770921076726 28.90770921076726 28.938472807178172 28.938472807178172 28.938472807178172 28.90770921076726 28.90770921076726 28.90770921076726 28.90770921076726 28.90770921076726 28.90770921076726 28.90770921076726 28.938472807178172 28.90770921076726 28.938472807178172 28.938472807178172 28.90770921076726 28.90770921076726 28.90770921076726 28.938472807178172 28.938472807178172 28.90770921076726 28.938472807178172 28.90770921076726 28.938472807178172 28.90770921076726 28.90770921076726 28.90770921076726 28.90770921076726 28.938472807178172 28.90770921076726 28.90770921076726 28.90770921076726 28.90770921076726 28.90770921076726 28.90770921076726 28.90770921076726 28.90770921076726 28.90770921076726 28.90770921076726 28.90770921076726 28.90770921076726 28.90770921076726 28.938472807178172 28.90770921076726 28.90770921076726 28.90770921076726 28.90770921076726 28.90770921076726 28.90770921076726 28.90770921076726 28.90770921076726 28.90770921076726 28.90770921076726 28.90770921076726 28.90770921076726 28.90770921076726 28.90770921076726 28.90770921076726 28.90770921076726 28.90770921076726 28.90770921076726 28.90770921076726 28.90770921076726 28.90770921076726 28.90770921076726 28.90770921076726 28.90770921076726 28.90770921076726 28.90770921076726 28.90770921076726 28.90770921076726 28.90770921076726 28.90770921076726 28.90770921076726 28.90770921076726 28.90770921076726 28.90770921076726 28.90770921076726 28.90770921076726 28.90770921076726 28.90770921076726 28.90770921076726 28.90770921076726 28.938472807178172 28.90770921076726 28.90770921076726 28.90770921076726 28.90770921076726 28.90770921076726 28.90770921076726 28.90770921076726 28.90770921076726 28.90770921076726 28.90770921076726 28.90770921076726 28.90770921076726 28.90770921076726 28.90770921076726 28.90770921076726 28.90770921076726 28.90770921076726 28.90770921076726 28.90770921076726 28.90770921076726 28.90770921076726 28.90770921076726 28.90770921076726 28.90770921076726 28.90770921076726 28.90770921076726 28.90770921076726 28.90770921076726 28.90770921076726 28.90770921076726 28.90770921076726 28.90770921076726 28.90770921076726 28.90770921076726 28.90770921076726 28.90770921076726 28.90770921076726 28.90770921076726 28.90770921076726 28.90770921076726 28.90770921076726 28.90770921076726 28.90770921076726 28.90770921076726 28.90770921076726 28.90770921076726 28.90770921076726 28.90770921076726 28.90770921076726 28.90770921076726 28.90770921076726 28.90770921076726 28.90770921076726 28.90770921076726 28.90770921076726 28.90770921076726 28.90770921076726 28.90770921076726 28.90770921076726 28.90770921076726 28.90770921076726 28.90770921076726 28.90770921076726 28.90770921076726 28.90770921076726 28.90770921076726 28.90770921076726 28.90770921076726 28.90770921076726 28.90770921076726 28.90770921076726 28.90770921076726 28.90770921076726 28.90770921076726 28.90770921076726 28.90770921076726 28.90770921076726 28.90770921076726 28.90770921076726 28.90770921076726 28.90770921076726 28.90770921076726 28.90770921076726 28.90770921076726 28.90770921076726 28.90770921076726 28.90770921076726 28.90770921076726 28.90770921076726 28.90770921076726 28.90770921076726 28.90770921076726 28.90770921076726 28.90770921076726 28.90770921076726 28.90770921076726 28.90770921076726 28.90770921076726 28.90770921076726 28.90770921076726 28.90770921076726 28.90770921076726 28.90770921076726 28.90770921076726 28.90770921076726 28.90770921076726 28.90770921076726 28.90770921076726 28.90770921076726 28.90770921076726 28.938472807178172 28.90770921076726 28.90770921076726 28.90770921076726 28.90770921076726 28.90770921076726 28.90770921076726 28.90770921076726 28.90770921076726 28.90770921076726 28.90770921076726 28.90770921076726 28.90770921076726 28.90770921076726 28.90770921076726 28.90770921076726 28.90770921076726 28.90770921076726 28.90770921076726 28.90770921076726 28.90770921076726 28.90770921076726 28.90770921076726 28.90770921076726 28.90770921076726 28.90770921076726 28.90770921076726 28.90770921076726 28.90770921076726 28.90770921076726 28.90770921076726 28.90770921076726 28.90770921076726 28.90770921076726 28.90770921076726 28.90770921076726 28.90770921076726 28.90770921076726 28.90770921076726 28.876945614356345 28.876945614356345 28.876945614356345 28.876945614356345 28.876945614356345 28.876945614356345 28.876945614356345 28.876945614356345 28.876945614356345 28.876945614356345 28.876945614356345 28.876945614356345 28.876945614356345 28.876945614356345 28.876945614356345 28.876945614356345 28.876945614356345 28.876945614356345 28.876945614356345 28.876945614356345 28.876945614356345 28.876945614356345 28.84618201794543 28.84618201794543 28.84618201794543 28.84618201794543 28.84618201794543 28.84618201794543 28.84618201794543 28.84618201794543 28.84618201794543 28.84618201794543 28.84618201794543 28.84618201794543 28.84618201794543 28.84618201794543 28.84618201794543 28.84618201794543 28.84618201794543 28.84618201794543 28.84618201794543 28.84618201794543 28.84618201794543 28.84618201794543 28.84618201794543 28.84618201794543 28.84618201794543 28.84618201794543 28.84618201794543 28.815418421534517 28.815418421534517 28.815418421534517 28.815418421534517 28.815418421534517 28.815418421534517 28.815418421534517 28.815418421534517 28.815418421534517 28.815418421534517 28.815418421534517 28.815418421534517 28.815418421534517 28.815418421534517 28.815418421534517 28.815418421534517 28.815418421534517 28.815418421534517 28.815418421534517 28.815418421534517 28.815418421534517 28.784654825123603 28.784654825123603 28.815418421534517 28.815418421534517 28.815418421534517 28.815418421534517 28.815418421534517 28.784654825123603 28.815418421534517 28.815418421534517 28.815418421534517 28.815418421534517 28.815418421534517 28.815418421534517 28.815418421534517 28.784654825123603 28.815418421534517 28.784654825123603 28.784654825123603 28.784654825123603 28.784654825123603 28.784654825123603 28.784654825123603 28.784654825123603 28.784654825123603 28.784654825123603 28.784654825123603 28.784654825123603 28.784654825123603 28.784654825123603 28.815418421534517 28.815418421534517 28.784654825123603 28.784654825123603 28.784654825123603 28.784654825123603 28.784654825123603 28.784654825123603 28.784654825123603 28.784654825123603 28.784654825123603 28.784654825123603 28.784654825123603 28.784654825123603 28.784654825123603 28.784654825123603 28.784654825123603 28.784654825123603 28.784654825123603 28.784654825123603 28.784654825123603 28.784654825123603 28.784654825123603 28.784654825123603 28.784654825123603 28.784654825123603 28.784654825123603 28.784654825123603 28.784654825123603 28.784654825123603 28.784654825123603 28.784654825123603 28.784654825123603 28.784654825123603 28.75389122871269 28.784654825123603 28.784654825123603 28.784654825123603 28.784654825123603 28.784654825123603 28.784654825123603 28.784654825123603 28.784654825123603 28.75389122871269 28.75389122871269 28.75389122871269 28.784654825123603 28.75389122871269 28.75389122871269 28.75389122871269 28.75389122871269 28.75389122871269 28.75389122871269 28.75389122871269 28.75389122871269 28.75389122871269 28.75389122871269 28.75389122871269 28.75389122871269 28.75389122871269 28.75389122871269 28.784654825123603 28.75389122871269 28.75389122871269 28.784654825123603 28.75389122871269 28.75389122871269 28.75389122871269 28.75389122871269 28.75389122871269 28.75389122871269 28.75389122871269 28.75389122871269 28.75389122871269 28.75389122871269 28.75389122871269 28.75389122871269 28.75389122871269 28.75389122871269 28.75389122871269 28.784654825123603 28.75389122871269 28.75389122871269 28.75389122871269 28.75389122871269 28.75389122871269 28.75389122871269 28.75389122871269 28.75389122871269 28.75389122871269 28.75389122871269 28.75389122871269 28.75389122871269 28.75389122871269 28.75389122871269 28.75389122871269 28.75389122871269 28.75389122871269 28.75389122871269 28.75389122871269 28.75389122871269 28.75389122871269 28.723127632301775 28.75389122871269 28.723127632301775 28.723127632301775 28.75389122871269 28.723127632301775 28.723127632301775 28.723127632301775 28.723127632301775 28.723127632301775 28.723127632301775 28.723127632301775 28.723127632301775 28.723127632301775 28.723127632301775 28.69236403589086 28.69236403589086 28.723127632301775 28.69236403589086 28.69236403589086 28.69236403589086 28.69236403589086 28.69236403589086 28.69236403589086 28.69236403589086 28.69236403589086 28.69236403589086 28.69236403589086 28.69236403589086 28.69236403589086 28.69236403589086 28.69236403589086 28.69236403589086 28.69236403589086 28.69236403589086 28.69236403589086 28.723127632301775 28.69236403589086 28.69236403589086 28.69236403589086 28.69236403589086 28.69236403589086 28.69236403589086 28.69236403589086 28.69236403589086 28.69236403589086 28.69236403589086 28.69236403589086 28.69236403589086 28.69236403589086 28.69236403589086 28.69236403589086 28.69236403589086 28.69236403589086 28.69236403589086 28.69236403589086 28.69236403589086 28.69236403589086 28.69236403589086 28.69236403589086 28.69236403589086 28.69236403589086 28.69236403589086 28.69236403589086 28.69236403589086 28.69236403589086 28.69236403589086 28.69236403589086 28.69236403589086 28.69236403589086 28.69236403589086 28.69236403589086 28.69236403589086 28.69236403589086 28.661600439479948 28.661600439479948 28.661600439479948 28.661600439479948 28.661600439479948 28.661600439479948 28.661600439479948 28.661600439479948 28.661600439479948 28.661600439479948 28.661600439479948 28.661600439479948 28.69236403589086 28.661600439479948 28.661600439479948 28.661600439479948 28.661600439479948 28.661600439479948 28.661600439479948 28.661600439479948 28.661600439479948 28.661600439479948 28.661600439479948 28.661600439479948 28.661600439479948 28.661600439479948 28.661600439479948 28.661600439479948 28.661600439479948 28.661600439479948 28.661600439479948 28.661600439479948 28.661600439479948 28.661600439479948 28.661600439479948 28.661600439479948 28.661600439479948 28.661600439479948 28.661600439479948 28.661600439479948 28.69236403589086 28.661600439479948 28.661600439479948 28.661600439479948 28.661600439479948 28.661600439479948 28.661600439479948 28.661600439479948 28.661600439479948 28.661600439479948 28.661600439479948 28.661600439479948 28.661600439479948 28.661600439479948 28.661600439479948 28.661600439479948 28.69236403589086 28.661600439479948 28.661600439479948 28.661600439479948 28.661600439479948 28.661600439479948 28.661600439479948 28.661600439479948 28.661600439479948 28.661600439479948 28.661600439479948 28.661600439479948 28.661600439479948 28.661600439479948 28.661600439479948 28.69236403589086 28.661600439479948 28.69236403589086 28.69236403589086 28.661600439479948 28.69236403589086 28.661600439479948 28.661600439479948 28.69236403589086 28.661600439479948 28.661600439479948 28.69236403589086 28.661600439479948 28.69236403589086 28.661600439479948 28.661600439479948 28.69236403589086 28.69236403589086 28.69236403589086 28.723127632301775 28.75389122871269 28.75389122871269 28.815418421534517 28.84618201794543 28.90770921076726 28.969236403589086 29.030763596410914 29.123054385643655 29.184581578465483 29.24610877128731 29.30763596410914 29.369163156930966 29.430690349752794 29.522981138985532 29.58450833180736 29.615271928218274 29.6767991210401 29.707562717451015 29.73832631386193 29.799853506683757 29.861380699505585 29.953671488738326 29.98443508514924 30.07672587438198 30.107489470792896 30.169016663614723 30.23054385643655 30.322834645669293 30.38436183849112 30.445889031312948 30.507416224134772 30.5689434169566 30.630470609778428 30.72276139901117 30.81505218824391 30.907342977476652 30.96887017029848 31.030397363120308 31.06116095953122 31.12268815235305 31.21497894158579 31.245742537996705 31.307269730818533 31.36879692364036 31.461087712873102 31.55337850210584 31.614905694927668 31.70719648416041 31.768723676982237 31.86101446621498 31.891778062625892 32.04559604468046 32.107123237502286 32.23017762314594 32.32246841237868 32.507049990844166 32.660867972898735 32.75315876213148 32.99926753341879 33.12232191906244 33.2453763047061 33.39919428676067 33.522248672404324 33.73759384728072 34.04522981138985 34.16828419703351 34.41439296832082 34.537447353964474 34.66050173960813 34.90661051089544 35.029664896539096 35.337300860648234 35.55264603552463 35.67570042116829 35.89104559604468 36.07562717451016 36.22944515656473 36.444790331441126 36.53708112067387 36.72166269913935 36.906244277604834 37.02929866324849 37.18311664530306 37.306171030946714 37.459989013001284 37.58304339864493 37.67533418787768 37.82915216993224 37.98297015198681 38.13678813404138 38.321369712506865 38.413660501739606 38.50595129097235 38.69053286943783 38.81358725508149 38.967405237136056 39.121223219190625 39.24427760483428 39.39809558688884 39.5211499725325 39.70573155099798 39.85954953305256 40.01336751510712 40.136421900750776 40.290239882805345 40.38253067203809 40.536348654092656 40.690166636147225 40.81322102179088 40.96703900384545 41.05932979307819 41.3054385643655 41.42849295000916 41.61307452847464 41.797656106940124 41.92071049258377 42.04376487822743 42.259110053103825 42.47445522798022 42.68980040285662 42.905145577733016 43.058963559787585 43.305072331074896 43.45889031312946 43.67423548800586 43.85881706647134 44.01263504852591 44.19721662699139 44.381798205456874 44.56637978392236 44.75096136238784 44.81248855520967 44.99707013367515 45.181651712140635 45.27394250137337 45.427760483427946 45.58157846548251 45.70463285112616 45.76616004394799 45.88921442959165 45.950741622413474 46.104559604468044 46.196850393700785 46.31990477934444 46.41219556857718 46.504486357809924 46.62754074345358 46.750595129097235 46.78135872550815 46.93517670756272 47.05823109320637 47.18128547885003 47.27357626808276 47.48892144295917 47.64273942501373 47.765793810657385 47.88884819630104 48.073429774766524 48.19648416041018 48.473356528108404 48.59641091375206 48.780992492217536 48.96557407068302 49.08862845632668 49.21168284197033 49.334737227613985 49.48855520966856 49.61160959531221 49.673136788134045 49.76542757736678 49.82695477018861 49.888481963010435 49.980772752243176 50.042299945065004 50.10382713788683 50.134590734297745 50.19611792711957 50.2576451199414 50.41146310199597 50.4729902948178 50.596044680461446 50.688335469694195 50.78062625892693 50.87291704815968 50.96520783739241 51.11902581944699 51.27284380150155 51.39589818714521 51.58047976561069 51.79582494048709 51.91887932613075 52.07269730818531 52.16498809741805 52.288042483061716 52.44186046511628 52.503387657938106 52.62644204358176 52.718732832814496 52.78026002563632 52.84178721845816 52.87255081486907 52.903314411279986 52.903314411279986 52.903314411279986 52.903314411279986 52.903314411279986 52.903314411279986 52.903314411279986 52.903314411279986 52.903314411279986 52.903314411279986 52.9340780076909 52.903314411279986 52.903314411279986 52.9340780076909 52.9340780076909 52.903314411279986 52.903314411279986 52.9340780076909 52.96484160410181 52.99560520051273 52.99560520051273 53.026368796923634 53.026368796923634 53.057132393334555 53.057132393334555 53.057132393334555 53.057132393334555 53.057132393334555 53.057132393334555 53.057132393334555 53.057132393334555 53.057132393334555 53.057132393334555 53.057132393334555 53.057132393334555 53.057132393334555 53.057132393334555 53.057132393334555 53.057132393334555 53.057132393334555 53.057132393334555 53.057132393334555 53.057132393334555 53.08789598974546 53.057132393334555 53.057132393334555 53.057132393334555 53.057132393334555 53.057132393334555 53.057132393334555 53.057132393334555 53.057132393334555 53.057132393334555 53.057132393334555 53.057132393334555 53.057132393334555 53.057132393334555 53.057132393334555 53.057132393334555 53.057132393334555 53.057132393334555 53.057132393334555 53.057132393334555 53.057132393334555 53.057132393334555 53.057132393334555 53.057132393334555 53.057132393334555 53.057132393334555 53.057132393334555 53.057132393334555 53.057132393334555 53.057132393334555 53.057132393334555 53.057132393334555 53.057132393334555 53.057132393334555 53.057132393334555 53.057132393334555 53.057132393334555 53.057132393334555 53.057132393334555 53.057132393334555 53.057132393334555 53.057132393334555 53.057132393334555 53.057132393334555 53.057132393334555 53.057132393334555 53.057132393334555 53.057132393334555 53.057132393334555 53.026368796923634 53.026368796923634 53.026368796923634 53.057132393334555 53.057132393334555 53.026368796923634 53.026368796923634 53.026368796923634 53.026368796923634 53.026368796923634 53.026368796923634 53.026368796923634 53.026368796923634 53.057132393334555 53.026368796923634 53.026368796923634 53.026368796923634 53.026368796923634 53.057132393334555 53.026368796923634 53.026368796923634 53.026368796923634 53.026368796923634 53.026368796923634 53.026368796923634 52.99560520051273 52.99560520051273 52.99560520051273 52.96484160410181 52.9340780076909 52.9340780076909 52.903314411279986 52.903314411279986 52.903314411279986 52.903314411279986 52.903314411279986 52.87255081486907 52.87255081486907 52.87255081486907 52.87255081486907 52.87255081486907 52.84178721845816 52.84178721845816 52.84178721845816 52.811023622047244 52.811023622047244 52.811023622047244 52.811023622047244 52.811023622047244 52.811023622047244 52.811023622047244 52.78026002563632 52.78026002563632 52.74949642922542 52.718732832814496 52.718732832814496 52.68796923640359 52.68796923640359 52.65720563999267 52.65720563999267 52.65720563999267 52.62644204358176 52.62644204358176 52.59567844717085 52.59567844717085 52.56491485075993 52.56491485075993 52.56491485075993 52.56491485075993 52.56491485075993 52.53415125434902 52.53415125434902 52.53415125434902 52.503387657938106 52.503387657938106 52.503387657938106 52.503387657938106 52.503387657938106 52.503387657938106 52.503387657938106 52.503387657938106 52.503387657938106 52.503387657938106 52.47262406152719 52.44186046511628 52.44186046511628 52.411096868705364 52.411096868705364 52.411096868705364 52.38033327229445 52.34956967588353 52.34956967588353 52.34956967588353 52.31880607947262 52.31880607947262 52.288042483061716 52.288042483061716 52.288042483061716 52.288042483061716 52.288042483061716 52.288042483061716 52.288042483061716 52.288042483061716 52.288042483061716 52.288042483061716 52.288042483061716 52.288042483061716 52.288042483061716 52.288042483061716 52.288042483061716 52.288042483061716 52.288042483061716 52.288042483061716 52.288042483061716 52.257278886650795 52.22651529023988 52.19575169382897 52.16498809741805 52.13422450100714 52.13422450100714 52.13422450100714 52.13422450100714 52.13422450100714 52.13422450100714 52.13422450100714 52.13422450100714 52.13422450100714 52.13422450100714 52.13422450100714 52.13422450100714 52.13422450100714 52.13422450100714 52.16498809741805 52.16498809741805 52.13422450100714 52.13422450100714 52.13422450100714 52.13422450100714 52.16498809741805 52.16498809741805 52.13422450100714 52.13422450100714 52.13422450100714 52.13422450100714 52.13422450100714 52.13422450100714 52.13422450100714 52.16498809741805 52.13422450100714 52.16498809741805 52.13422450100714 52.13422450100714 52.16498809741805 52.16498809741805 52.13422450100714 52.16498809741805 52.16498809741805 52.13422450100714 52.13422450100714 52.16498809741805 52.16498809741805 52.16498809741805 52.13422450100714 52.16498809741805 52.16498809741805 52.16498809741805 52.16498809741805 52.16498809741805 52.16498809741805 52.13422450100714 52.13422450100714 52.13422450100714 52.16498809741805 52.16498809741805 52.16498809741805 52.16498809741805 52.13422450100714 52.16498809741805 52.16498809741805 52.13422450100714 52.16498809741805 52.16498809741805 52.16498809741805 52.16498809741805 52.16498809741805 52.16498809741805 52.16498809741805 52.16498809741805 52.16498809741805 52.16498809741805 52.16498809741805 52.16498809741805 52.16498809741805 52.19575169382897 52.19575169382897 52.19575169382897 52.19575169382897 52.19575169382897 52.19575169382897 52.19575169382897 52.19575169382897 52.19575169382897 52.19575169382897 52.19575169382897 52.19575169382897 52.19575169382897 52.19575169382897 52.19575169382897 52.19575169382897 52.19575169382897 52.16498809741805 52.19575169382897 52.16498809741805 52.16498809741805 52.16498809741805 52.16498809741805 52.16498809741805 52.16498809741805 52.16498809741805 52.16498809741805 52.13422450100714 52.13422450100714 52.13422450100714 52.103460904596226 52.07269730818531 52.0419337117744 52.011170115363484 51.98040651895257 51.98040651895257 51.949642922541656 51.91887932613075 51.88811572971983 51.88811572971983 51.85735213330892 51.826588536898 51.76506134407617 51.73429774766526 51.703534151254345 51.64200695843252 51.58047976561069 51.488188976377955 51.42666178355613 51.3651345907343 51.27284380150155 51.211316608679724 51.11902581944699 51.02673503021424 50.934444240981506 50.842153451748764 50.74986266251602 50.62680827687237 50.41146310199597 50.34993590917414 50.16535433070866 50.042299945065004 49.888481963010435 49.61160959531221 49.427028016846734 49.21168284197033 48.99633766709394 48.84251968503936 48.62717451016297 48.44259293169749 48.28877494964292 48.104193371177445 47.95037538912287 47.73503021424648 47.519685039370074 47.27357626808276 47.05823109320637 46.904413111151804 46.750595129097235 46.53524995422084 46.38143197216627 46.104559604468044 45.88921442959165 45.76616004394799 45.5508148690716 45.396996887017025 45.181651712140635 44.99707013367515 44.81248855520967 44.627906976744185 44.381798205456874 44.227980223402305 43.981871452114994 43.79728987364952 43.581944698773114 43.33583592748581 43.18201794543124 42.966672770554844 42.72056399926753 42.566746017212964 42.28987364951474 42.16681926387108 42.013001281816514 41.82841970335103 41.705365317707376 41.5207837392419 41.27467496795458 41.12085698590002 40.936275407434536 40.81322102179088 40.72093023255814 40.47482146127083 40.32100347921626 40.16718549716169 39.982603918696206 39.85954953305256 39.674967954587075 39.5211499725325 39.30580479765611 39.0596960263688 38.90587804431423 38.65976927302692 38.38289690532869 38.19831532686321 38.04449734480864 37.798388573521336 37.64457059146676 37.398461820179456 37.21388024171397 36.93700787401575 36.78318989196118 36.66013550631752 36.444790331441126 36.32173594579747 36.198681560153815 35.98333638527742 35.79875480681194 35.67570042116829 35.52188243911371 35.429591649880976 35.27577366782641 35.183482878593665 35.06042849295001 34.96813770371727 34.90661051089544 34.8143197216627 34.75279252884087 34.56821095037539 34.475920161142646 34.383629371909905 34.229811389855335 34.04522981138985 33.922175425746204 33.67606665445889 33.522248672404324 33.368430690349754 33.2453763047061 33.12232191906244 33.060794726240616 32.968503937007874 32.87621314777513 32.814685954953305 32.78392235854239 32.69163156930965 32.63010437648782 32.59934078007691 32.568577183665994 32.507049990844166 32.47628639443325 32.414759201611425 32.38399560520051 32.32246841237868 32.29170481596777 32.23017762314594 32.23017762314594 32.19941402673503 32.1378868339132 32.07635964109137 32.014832448269544 31.922541659036806 31.86101446621498 31.830250869804065 31.768723676982237 31.737960080571323 31.70719648416041 31.676432887749495 31.64566929133858 31.614905694927668 31.584142098516754 31.55337850210584 31.522614905694926 31.491851309284012 31.491851309284012 31.461087712873102 31.430324116462188 31.399560520051274 31.36879692364036 31.36879692364036 31.36879692364036 31.338033327229446 31.338033327229446 31.338033327229446 31.338033327229446 31.307269730818533 31.27650613440762 31.27650613440762 31.21497894158579 31.21497894158579 31.12268815235305 31.06116095953122 31.030397363120308 30.938106573887566 30.845815784654825 30.81505218824391 30.753524995422083 30.72276139901117 30.691997802600255 30.630470609778428 30.630470609778428 30.599707013367514 30.5689434169566 30.5689434169566 30.507416224134772 30.47665262772386 30.47665262772386 30.415125434902034 30.353598242080206 30.353598242080206 30.29207104925838 30.29207104925838 30.261307452847465 30.23054385643655 30.23054385643655 30.199780260025637 30.169016663614723 30.169016663614723 30.13825306720381 30.107489470792896 30.07672587438198 30.045962277971068 30.045962277971068 29.98443508514924 29.98443508514924 29.922907892327412 29.861380699505585 29.83061710309467 29.769089910272843 29.73832631386193 29.6767991210401 29.615271928218274 29.58450833180736 29.522981138985532 29.461453946163708 29.430690349752794 29.369163156930966 29.369163156930966 29.369163156930966 29.369163156930966 29.369163156930966 29.369163156930966 29.369163156930966 29.338399560520052 29.369163156930966 29.338399560520052 29.338399560520052 29.338399560520052 29.338399560520052 29.30763596410914 29.30763596410914 29.276872367698225 29.24610877128731 29.24610877128731 29.215345174876397 29.184581578465483 29.15381798205457 29.15381798205457 29.123054385643655 29.123054385643655 29.09229078923274 29.09229078923274 29.09229078923274 29.09229078923274 29.061527192821828 29.061527192821828 29.061527192821828 29.061527192821828 29.061527192821828 29.061527192821828 29.030763596410914 29.030763596410914 29.030763596410914 29.030763596410914 29.030763596410914 29.0 29.0 29.0 29.0 28.969236403589086 28.969236403589086 28.938472807178172 28.938472807178172 28.938472807178172 28.938472807178172 28.938472807178172 28.938472807178172 28.938472807178172 28.938472807178172 28.938472807178172 28.938472807178172 28.938472807178172 28.938472807178172 28.938472807178172 28.938472807178172 28.90770921076726 28.90770921076726 28.90770921076726 28.90770921076726 28.90770921076726 28.90770921076726 28.90770921076726 28.876945614356345 28.876945614356345 28.876945614356345 28.876945614356345 28.876945614356345 28.84618201794543 28.84618201794543 28.84618201794543 28.84618201794543 28.84618201794543 28.84618201794543 28.815418421534517 28.815418421534517 28.815418421534517 28.815418421534517 28.815418421534517 28.815418421534517 28.815418421534517 28.815418421534517 28.815418421534517 28.815418421534517 28.815418421534517 28.815418421534517 28.815418421534517 28.815418421534517 28.815418421534517 28.815418421534517 28.784654825123603 28.784654825123603 28.784654825123603 28.75389122871269 28.784654825123603 28.75389122871269 28.75389122871269 28.75389122871269 28.723127632301775 28.723127632301775 28.723127632301775 28.723127632301775 28.723127632301775 28.723127632301775 28.69236403589086 28.723127632301775 28.723127632301775 28.69236403589086 28.69236403589086 28.69236403589086 28.69236403589086 28.69236403589086 28.69236403589086 28.69236403589086 28.69236403589086 28.69236403589086 28.69236403589086 28.69236403589086 28.69236403589086 28.69236403589086 28.661600439479948 28.69236403589086 28.69236403589086 28.69236403589086 28.69236403589086 28.661600439479948 28.69236403589086 28.69236403589086 28.69236403589086 28.69236403589086 28.69236403589086 28.69236403589086 28.661600439479948 28.69236403589086 28.661600439479948 28.661600439479948 28.661600439479948 28.69236403589086 28.69236403589086 28.69236403589086 28.661600439479948 28.661600439479948 28.661600439479948 28.69236403589086 28.69236403589086 28.661600439479948 28.661600439479948 28.661600439479948 28.661600439479948 28.69236403589086 28.69236403589086 28.69236403589086 28.661600439479948 28.69236403589086 28.69236403589086 28.661600439479948 28.661600439479948 28.661600439479948 28.661600439479948 28.69236403589086 28.661600439479948 28.661600439479948 28.69236403589086 28.661600439479948 28.69236403589086 28.69236403589086 28.661600439479948 28.661600439479948 28.661600439479948 28.661600439479948 28.661600439479948 28.661600439479948 28.661600439479948 28.661600439479948 28.661600439479948 28.661600439479948 28.661600439479948 28.661600439479948 28.661600439479948 28.661600439479948 28.661600439479948 28.661600439479948 28.661600439479948 28.661600439479948 28.661600439479948 28.661600439479948 28.661600439479948 28.661600439479948 28.661600439479948 28.661600439479948 28.661600439479948 28.661600439479948 28.661600439479948 28.661600439479948 28.661600439479948 28.661600439479948 28.661600439479948 28.661600439479948 28.661600439479948 28.661600439479948 28.661600439479948 28.661600439479948 28.661600439479948 28.661600439479948 28.661600439479948 28.661600439479948 28.661600439479948 28.661600439479948 28.661600439479948 28.661600439479948 28.661600439479948 28.661600439479948 28.661600439479948 28.661600439479948 28.661600439479948 28.661600439479948 28.661600439479948 28.661600439479948 28.661600439479948 28.630836843069034 28.661600439479948 28.630836843069034 28.661600439479948 28.630836843069034 28.661600439479948 28.661600439479948 28.661600439479948 28.630836843069034 28.661600439479948 28.661600439479948 28.661600439479948 28.661600439479948 28.630836843069034 28.630836843069034 28.630836843069034 28.661600439479948 28.661600439479948 28.630836843069034 28.630836843069034 28.630836843069034 28.661600439479948 28.630836843069034 28.630836843069034 28.661600439479948 28.630836843069034 28.630836843069034 28.661600439479948 28.630836843069034 28.630836843069034 28.630836843069034 28.630836843069034 28.630836843069034 28.661600439479948 28.661600439479948 28.630836843069034 28.630836843069034 28.630836843069034 28.630836843069034 28.630836843069034 28.630836843069034 28.661600439479948 28.630836843069034 28.630836843069034 28.630836843069034 28.630836843069034 28.630836843069034 28.630836843069034 28.630836843069034 28.630836843069034 28.630836843069034 28.661600439479948 28.661600439479948 28.630836843069034 28.630836843069034 28.630836843069034 28.630836843069034 28.630836843069034 28.630836843069034 28.630836843069034 28.630836843069034 28.630836843069034 28.630836843069034 28.630836843069034 28.630836843069034 28.630836843069034 28.630836843069034 28.630836843069034 28.630836843069034 28.630836843069034 28.630836843069034 28.630836843069034 28.630836843069034 28.630836843069034 28.630836843069034 28.630836843069034 28.630836843069034 28.630836843069034 28.630836843069034 28.630836843069034 28.630836843069034 28.630836843069034 28.630836843069034 28.630836843069034 28.630836843069034 28.630836843069034 28.630836843069034 28.630836843069034 28.630836843069034 28.630836843069034 28.630836843069034 28.630836843069034 28.630836843069034 28.630836843069034 28.630836843069034 28.630836843069034 28.630836843069034 28.630836843069034 28.630836843069034 28.630836843069034 28.630836843069034 28.630836843069034 28.630836843069034 28.630836843069034 28.630836843069034 28.630836843069034 28.630836843069034 28.630836843069034 28.630836843069034 28.630836843069034 28.630836843069034 28.630836843069034 28.630836843069034 28.630836843069034 28.630836843069034 28.630836843069034 28.630836843069034 28.630836843069034 28.630836843069034 28.630836843069034 28.630836843069034 28.630836843069034 28.630836843069034 28.630836843069034 28.630836843069034 28.630836843069034 28.630836843069034 28.630836843069034 28.630836843069034 28.630836843069034 28.630836843069034 28.630836843069034 28.630836843069034 28.630836843069034 28.630836843069034 28.630836843069034 28.630836843069034 28.630836843069034 28.630836843069034 28.630836843069034 28.630836843069034 28.630836843069034 28.630836843069034 28.630836843069034 28.630836843069034 28.630836843069034 28.630836843069034 28.630836843069034 28.630836843069034 28.630836843069034 28.60007324665812 28.630836843069034 28.630836843069034 28.630836843069034 28.630836843069034 28.60007324665812 28.630836843069034 28.630836843069034 28.60007324665812 28.60007324665812 28.630836843069034 28.630836843069034 28.630836843069034 28.630836843069034 28.60007324665812 28.630836843069034 28.630836843069034 28.630836843069034 28.60007324665812 28.630836843069034 28.60007324665812 28.630836843069034 28.630836843069034 28.630836843069034 28.60007324665812 28.60007324665812 28.60007324665812 28.60007324665812 28.60007324665812 28.60007324665812 28.60007324665812 28.60007324665812 28.60007324665812 28.60007324665812 28.60007324665812 28.569309650247206 28.60007324665812 28.569309650247206 28.569309650247206 28.569309650247206 28.569309650247206 28.538546053836292 28.538546053836292 28.538546053836292 28.538546053836292 28.50778245742538 28.538546053836292 28.50778245742538 28.50778245742538 28.50778245742538 28.50778245742538 28.50778245742538 28.50778245742538 28.50778245742538 28.50778245742538 28.50778245742538 28.477018861014468 28.477018861014468 28.477018861014468 28.477018861014468 28.477018861014468 28.477018861014468 28.446255264603554 28.446255264603554 28.446255264603554 28.446255264603554 28.446255264603554 28.446255264603554 28.446255264603554 28.446255264603554 28.446255264603554 28.446255264603554 28.446255264603554 28.446255264603554 28.446255264603554 28.446255264603554 28.446255264603554 28.446255264603554 28.446255264603554 28.446255264603554 28.446255264603554 28.446255264603554 28.446255264603554 28.446255264603554 28.446255264603554 28.446255264603554 28.446255264603554 28.446255264603554 28.446255264603554 28.446255264603554 28.446255264603554 28.446255264603554 28.446255264603554 28.446255264603554 28.446255264603554 28.446255264603554 28.446255264603554 28.446255264603554 28.446255264603554 28.446255264603554 28.446255264603554 28.446255264603554 28.446255264603554 28.446255264603554 28.446255264603554 28.446255264603554 28.446255264603554 28.446255264603554 28.446255264603554 28.446255264603554 28.446255264603554 28.446255264603554 28.446255264603554 28.446255264603554 28.446255264603554 28.446255264603554 28.446255264603554 28.446255264603554 28.446255264603554 28.446255264603554 28.446255264603554 28.446255264603554 28.446255264603554 28.446255264603554 28.446255264603554 28.446255264603554 28.446255264603554 28.446255264603554 28.446255264603554 28.446255264603554 28.446255264603554 28.446255264603554 28.446255264603554 28.446255264603554 28.446255264603554 28.446255264603554 28.446255264603554 28.446255264603554 28.446255264603554 28.446255264603554 28.446255264603554 28.446255264603554 28.446255264603554 28.446255264603554 28.446255264603554 28.446255264603554 28.446255264603554 28.446255264603554 28.446255264603554 28.446255264603554 28.446255264603554 28.446255264603554 28.446255264603554 28.446255264603554 28.446255264603554 28.446255264603554 28.446255264603554 28.446255264603554 28.446255264603554 28.446255264603554 28.446255264603554 28.446255264603554 28.446255264603554 28.446255264603554 28.446255264603554 28.446255264603554 28.446255264603554 28.446255264603554 28.446255264603554 28.446255264603554 28.446255264603554 28.446255264603554 28.446255264603554 28.446255264603554 28.446255264603554 28.446255264603554 28.446255264603554 28.446255264603554 28.446255264603554 28.446255264603554 28.477018861014468 28.446255264603554 28.446255264603554 28.446255264603554 28.446255264603554 28.446255264603554 28.446255264603554 28.446255264603554 28.446255264603554 28.477018861014468 28.446255264603554 28.446255264603554 28.446255264603554 28.446255264603554 28.446255264603554 28.446255264603554 28.446255264603554 28.446255264603554 28.446255264603554 28.446255264603554 28.446255264603554 28.446255264603554 28.446255264603554 28.446255264603554 28.446255264603554 28.446255264603554 28.446255264603554 28.446255264603554 28.446255264603554 28.446255264603554 28.446255264603554 28.446255264603554 28.446255264603554 28.446255264603554 28.446255264603554 28.446255264603554 28.446255264603554 28.446255264603554 28.446255264603554 28.446255264603554 28.446255264603554 28.446255264603554 28.446255264603554 28.446255264603554 28.446255264603554 28.446255264603554 28.446255264603554 28.446255264603554 28.446255264603554 28.446255264603554 28.446255264603554 28.446255264603554 28.446255264603554 28.446255264603554 28.446255264603554 28.446255264603554 28.446255264603554 28.446255264603554 28.446255264603554 28.446255264603554 28.446255264603554 28.446255264603554 28.446255264603554 28.446255264603554 28.446255264603554 28.446255264603554 28.446255264603554 28.446255264603554 28.446255264603554 28.446255264603554 28.446255264603554 28.446255264603554 28.446255264603554 28.446255264603554 28.446255264603554 28.446255264603554 28.446255264603554 28.446255264603554 28.446255264603554 28.446255264603554 28.446255264603554 28.446255264603554 28.446255264603554 28.446255264603554 28.446255264603554 28.446255264603554 28.446255264603554 28.446255264603554 28.446255264603554 28.446255264603554 28.446255264603554 28.446255264603554 28.446255264603554 28.446255264603554 28.446255264603554 28.446255264603554 28.446255264603554 28.446255264603554 28.446255264603554 28.446255264603554 28.446255264603554 28.446255264603554 28.446255264603554 28.446255264603554 28.446255264603554 28.446255264603554 28.446255264603554 28.446255264603554 28.446255264603554 28.446255264603554 28.446255264603554 28.446255264603554 28.446255264603554 28.446255264603554 28.446255264603554 28.446255264603554 28.446255264603554 28.446255264603554 28.446255264603554 28.41549166819264 28.41549166819264 28.446255264603554 28.41549166819264 28.41549166819264 28.41549166819264 28.41549166819264 28.41549166819264 28.41549166819264 28.41549166819264 28.41549166819264 28.41549166819264 28.41549166819264 28.41549166819264 28.41549166819264 28.41549166819264 28.41549166819264 28.384728071781726 28.384728071781726 28.384728071781726 28.384728071781726 28.384728071781726 28.384728071781726 28.384728071781726 28.384728071781726 28.384728071781726 28.384728071781726 28.384728071781726 28.384728071781726 28.353964475370812 28.353964475370812 28.353964475370812 28.384728071781726 28.353964475370812 28.353964475370812 28.384728071781726 28.353964475370812 28.353964475370812 28.353964475370812 28.353964475370812 28.353964475370812 28.384728071781726 28.353964475370812 28.353964475370812 28.353964475370812 28.353964475370812 28.353964475370812 28.353964475370812 28.353964475370812 28.353964475370812 28.353964475370812 28.353964475370812 28.353964475370812 28.353964475370812 28.353964475370812 28.353964475370812 28.353964475370812 28.353964475370812 28.353964475370812 28.353964475370812 28.353964475370812 28.353964475370812 28.353964475370812 28.353964475370812 28.353964475370812 28.353964475370812 28.384728071781726 28.353964475370812 28.353964475370812 28.353964475370812 28.353964475370812 28.353964475370812 28.384728071781726 28.353964475370812 28.353964475370812 28.353964475370812 28.353964475370812 28.353964475370812 28.353964475370812 28.384728071781726 28.353964475370812 28.353964475370812 28.384728071781726 28.384728071781726 28.353964475370812 28.353964475370812 28.353964475370812 28.353964475370812 28.353964475370812 28.353964475370812 28.384728071781726 28.353964475370812 28.353964475370812 28.353964475370812 28.353964475370812 28.384728071781726 28.384728071781726 28.384728071781726 28.384728071781726 28.384728071781726 28.446255264603554 28.446255264603554 28.477018861014468 28.477018861014468 28.538546053836292 28.538546053836292 28.538546053836292 28.569309650247206 28.569309650247206 28.60007324665812 28.60007324665812 28.60007324665812 28.630836843069034 28.630836843069034 28.661600439479948 28.69236403589086 28.75389122871269 28.815418421534517 28.876945614356345 28.938472807178172 29.0 29.030763596410914 29.123054385643655 29.215345174876397 29.276872367698225 29.338399560520052 29.39992675334188 29.461453946163708 29.522981138985532 29.58450833180736 29.646035524629188 29.73832631386193 29.799853506683757 29.8921442959165 29.98443508514924 30.07672587438198 30.169016663614723 30.261307452847465 30.353598242080206 30.415125434902034 30.5689434169566 30.66123420618934 30.72276139901117 30.87657938106574 30.938106573887566 31.030397363120308 31.153451748763963 31.245742537996705 31.36879692364036 31.55337850210584 31.70719648416041 31.891778062625892 32.04559604468046 32.260941219556855 32.47628639443325 32.63010437648782 32.84544955136422 33.060794726240616 33.27613990111701 33.460721479582496 33.614539461637065 33.829884636513455 34.04522981138985 34.19904779344442 34.50668375755356 34.72202893242996 34.937374107306354 35.12195568577184 35.24501007141549 35.39882805347006 35.706464017579194 35.89104559604468 36.07562717451016 36.29097234938656 36.444790331441126 36.66013550631752 36.81395348837209 36.96777147042666 37.09082585607032 37.18311664530306 37.33693462735763 37.521516205823104 37.61380699505585 37.798388573521336 37.89067936275407 37.98297015198681 38.13678813404138 38.22907892327412 38.38289690532869 38.59824208020509 38.69053286943783 38.81358725508149 38.93664164072514 38.99816883354697 39.15198681560154 39.24427760483428 39.33656839406702 39.39809558688884 39.5211499725325 39.644204358176154 39.70573155099798 39.79802234023072 39.921076725874386 39.982603918696206 40.07489470792895 40.136421900750776 40.22871268998352 40.32100347921626 40.413294268449 40.47482146127083 40.536348654092656 40.6286394433254 40.75169382896905 40.78245742537997 40.90551181102362 40.997802600256364 41.05932979307819 41.12085698590002 41.21314777513276 41.27467496795458 41.36696575718733 41.42849295000916 41.55154733565281 41.64383812488555 41.705365317707376 41.797656106940124 41.88994689617286 41.9822376854056 42.04376487822743 42.105292071049256 42.22834645669291 42.32063724592565 42.412928035158394 42.505218824391136 42.566746017212964 42.62827321003479 42.812854788500275 42.8743819813221 42.966672770554844 43.12049075260941 43.18201794543124 43.33583592748581 43.45889031312946 43.5511811023622 43.70499908441677 43.7665262772386 43.92034425929317 44.04339864493682 44.135689434169564 44.28950741622413 44.41256180186779 44.474088994689616 44.59714338033327 44.6586705731551 44.81248855520967 44.935542940853324 44.99707013367515 45.089360922907886 45.181651712140635 45.27394250137337 45.36623329060612 45.45852407983885 45.5508148690716 45.70463285112616 45.76616004394799 45.85845083318073 45.950741622413474 46.0122688152353 46.13532320087896 46.2276139901117 46.31990477934444 46.41219556857718 46.47372276139901 46.56601355063175 46.62754074345358 46.68906793627541 46.81212232191906 46.87364951474089 47.08899468961728 47.24281267167186 47.36586705731551 47.550448635780995 47.64273942501373 47.765793810657385 47.95037538912287 48.13495696758835 48.35030214246475 48.59641091375206 48.75022889580663 48.99633766709394 49.1501556491485 49.39626442043581 49.61160959531221 49.79619117377769 50.01153634865409 50.22688152353049 50.34993590917414 50.62680827687237 50.71909906610511 50.87291704815968 50.995971433803334 51.08826222303607 51.211316608679724 51.3651345907343 51.39589818714521 51.488188976377955 51.54971616919978 51.58047976561069 51.64200695843252 51.67277055484343 51.73429774766526 51.76506134407617 51.79582494048709 51.85735213330892 51.88811572971983 51.91887932613075 51.949642922541656 52.011170115363484 52.103460904596226 52.16498809741805 52.288042483061716 52.38033327229445 52.53415125434902 52.59567844717085 52.718732832814496 52.811023622047244 52.99560520051273 53.057132393334555 53.24171397180004 53.364768357443694 53.42629555026552 53.48782274308734 53.580113532320084 53.64164072514191 53.64164072514191 53.67240432155283 53.67240432155283 53.67240432155283 53.67240432155283 53.67240432155283 53.67240432155283 53.67240432155283 53.67240432155283 53.67240432155283 53.67240432155283 53.67240432155283 53.67240432155283 53.67240432155283 53.67240432155283 53.67240432155283 53.67240432155283 53.67240432155283 53.67240432155283 53.67240432155283 53.67240432155283 53.67240432155283 53.67240432155283 53.67240432155283 53.67240432155283 53.67240432155283 53.70316791796374 53.67240432155283 53.67240432155283 53.67240432155283 53.67240432155283 53.67240432155283 53.67240432155283 53.67240432155283 53.67240432155283 53.67240432155283 53.67240432155283 53.67240432155283 53.67240432155283 53.67240432155283 53.67240432155283 53.67240432155283 53.67240432155283 53.67240432155283 53.67240432155283 53.70316791796374 53.67240432155283 53.67240432155283 53.67240432155283 53.67240432155283 53.67240432155283 53.67240432155283 53.67240432155283 53.67240432155283 53.67240432155283 53.67240432155283 53.67240432155283 53.67240432155283 53.67240432155283 53.67240432155283 53.67240432155283 53.67240432155283 53.64164072514191 53.64164072514191 53.67240432155283 53.64164072514191 53.64164072514191 53.64164072514191 53.64164072514191 53.64164072514191 53.67240432155283 53.67240432155283 53.67240432155283 53.64164072514191 53.64164072514191 53.64164072514191 53.64164072514191 53.64164072514191 53.64164072514191 53.64164072514191 53.64164072514191 53.64164072514191 53.64164072514191 53.64164072514191 53.64164072514191 53.67240432155283 53.64164072514191 53.64164072514191 53.64164072514191 53.64164072514191 53.64164072514191 53.64164072514191 53.64164072514191 53.64164072514191 53.64164072514191 53.64164072514191 53.67240432155283 53.64164072514191 53.64164072514191 53.64164072514191 53.64164072514191 53.64164072514191 53.64164072514191 53.67240432155283 53.64164072514191 53.64164072514191 53.64164072514191 53.64164072514191 53.610877128731005 53.610877128731005 53.610877128731005 53.610877128731005 53.610877128731005 53.580113532320084 53.580113532320084 53.580113532320084 53.54934993590917 53.54934993590917 53.54934993590917 53.518586339498256 53.48782274308734 53.518586339498256 53.48782274308734 53.48782274308734 53.48782274308734 53.48782274308734 53.45705914667643 53.45705914667643 53.45705914667643 53.45705914667643 53.42629555026552 53.3955319538546 53.364768357443694 53.33400476103277 53.303241164621866 53.27247756821095 53.24171397180004 53.21095037538912 53.18018677897821 53.18018677897821 53.18018677897821 53.18018677897821 53.18018677897821 53.18018677897821 53.18018677897821 53.18018677897821 53.18018677897821 53.18018677897821 53.14942318256729 53.118659586156376 53.118659586156376 53.118659586156376 53.118659586156376 53.118659586156376 53.118659586156376 53.118659586156376 53.118659586156376 53.118659586156376 53.118659586156376 53.118659586156376 53.118659586156376 53.14942318256729 53.118659586156376 53.118659586156376 53.14942318256729 53.118659586156376 53.14942318256729 53.118659586156376 53.118659586156376 53.14942318256729 53.118659586156376 53.118659586156376 53.118659586156376 53.118659586156376 53.118659586156376 53.14942318256729 53.118659586156376 53.118659586156376 53.118659586156376 53.118659586156376 53.118659586156376 53.118659586156376 53.118659586156376 53.118659586156376 53.118659586156376 53.08789598974546 53.08789598974546 53.08789598974546 53.057132393334555 53.057132393334555 53.057132393334555 53.057132393334555 53.08789598974546 53.057132393334555 53.08789598974546 53.057132393334555 53.08789598974546 53.08789598974546 53.08789598974546 53.08789598974546 53.08789598974546 53.08789598974546 53.08789598974546 53.08789598974546 53.08789598974546 53.118659586156376 53.118659586156376 53.08789598974546 53.08789598974546 53.118659586156376 53.118659586156376 53.118659586156376 53.118659586156376 53.08789598974546 53.08789598974546 53.08789598974546 53.08789598974546 53.08789598974546 53.08789598974546 53.08789598974546 53.08789598974546 53.08789598974546 53.08789598974546 53.08789598974546 53.08789598974546 53.08789598974546 53.08789598974546 53.08789598974546 53.08789598974546 53.08789598974546 53.08789598974546 53.08789598974546 53.08789598974546 53.057132393334555 53.057132393334555 53.057132393334555 53.057132393334555 53.057132393334555 53.057132393334555 53.026368796923634 53.026368796923634 53.026368796923634 52.99560520051273 52.96484160410181 52.9340780076909 52.9340780076909 52.903314411279986 52.903314411279986 52.87255081486907 52.87255081486907 52.87255081486907 52.87255081486907 52.84178721845816 52.84178721845816 52.84178721845816 52.84178721845816 52.84178721845816 52.84178721845816 52.84178721845816 52.84178721845816 52.84178721845816 52.84178721845816 52.87255081486907 52.84178721845816 52.87255081486907 52.87255081486907 52.87255081486907 52.84178721845816 52.87255081486907 52.87255081486907 52.87255081486907 52.87255081486907 52.87255081486907 52.87255081486907 52.87255081486907 52.87255081486907 52.87255081486907 52.87255081486907 52.87255081486907 52.84178721845816 52.87255081486907 52.84178721845816 52.78026002563632 52.74949642922542 52.68796923640359 52.65720563999267 52.56491485075993 52.503387657938106 52.411096868705364 52.288042483061716 52.19575169382897 52.103460904596226 51.88811572971983 51.73429774766526 51.61124336202161 51.39589818714521 51.30360739791247 51.08826222303607 50.96520783739241 50.81138985533785 50.596044680461446 50.4729902948178 50.2576451199414 50.042299945065004 49.888481963010435 49.642373191723124 49.48855520966856 49.27321003479216 49.027101263504846 48.873283281450284 48.59641091375206 48.44259293169749 48.25801135323201 47.95037538912287 47.88884819630104 47.73503021424648 47.42739425013734 47.27357626808276 47.08899468961728 46.87364951474089 46.71983153268632 46.53524995422084 46.38143197216627 46.16608679728987 45.91997802600257 45.76616004394799 45.52005127266068 45.27394250137337 44.99707013367515 44.84325215162058 44.68943416956601 44.56637978392236 44.35103460904596 44.19721662699139 43.92034425929317 43.70499908441677 43.5511811023622 43.33583592748581 43.21278154184215 43.028199963376665 42.84361838491119 42.72056399926753 42.59750961362388 42.44369163156931 42.38216443874748 42.22834645669291 42.13605566746017 42.07452847463834 41.951474088994686 41.85918329976195 41.73612891411829 41.67460172129647 41.5207837392419 41.42849295000916 41.336202160776416 41.243911371543675 41.090093389489105 40.997802600256364 40.78245742537997 40.65940303973631 40.50558505768174 40.38253067203809 40.25947628639443 40.16718549716169 40.044131111518034 39.921076725874386 39.79802234023072 39.7364951474089 39.61344076176525 39.5211499725325 39.49038637612159 39.367331990477936 39.275041201245195 39.18275041201245 39.09045962277971 39.028932429957884 38.93664164072514 38.75206006225966 38.65976927302692 38.567478483794176 38.44442409815052 38.321369712506865 38.167551730452296 38.075260941219554 37.859915766343164 37.67533418787768 37.58304339864493 37.459989013001284 37.33693462735763 37.2754074345358 37.152353048892145 37.09082585607032 36.998535066837576 36.87548068119392 36.78318989196118 36.69089910272844 36.598608313495696 36.53708112067387 36.506317524262954 36.444790331441126 36.444790331441126 36.444790331441126 36.444790331441126 36.444790331441126 36.41402673503021 36.41402673503021 36.352499542208385 36.32173594579747 36.26020875297564 36.1679179637429 36.07562717451016 35.98333638527742 35.9218091924556 35.82951840322285 35.737227613990115 35.67570042116829 35.583409631935545 35.52188243911371 35.46035524629189 35.39882805347006 35.36806445705915 35.30653726423732 35.24501007141549 35.183482878593665 35.09119208936092 34.99890130012818 34.96813770371727 34.90661051089544 34.84508331807361 34.8143197216627 34.75279252884087 34.69126533601904 34.629738143197216 34.5989745467863 34.537447353964474 34.475920161142646 34.41439296832082 34.32210217908808 34.229811389855335 34.137520600622594 34.075993407800766 34.01446621497894 33.89141182933528 33.79912104010255 33.73759384728072 33.67606665445889 33.58377586522615 33.522248672404324 33.39919428676067 33.33766709393884 33.27613990111701 33.2453763047061 33.214612708295185 33.18384911188427 33.12232191906244 33.060794726240616 33.0300311298297 32.968503937007874 32.906976744186046 32.87621314777513 32.84544955136422 32.78392235854239 32.75315876213148 32.72239516572056 32.660867972898735 32.59934078007691 32.568577183665994 32.47628639443325 32.44552279802234 32.38399560520051 32.32246841237868 32.260941219556855 32.23017762314594 32.19941402673503 32.1378868339132 32.107123237502286 32.07635964109137 32.04559604468046 32.014832448269544 31.984068851858634 31.95330525544772 31.922541659036806 31.891778062625892 31.86101446621498 31.86101446621498 31.79948727339315 31.768723676982237 31.70719648416041 31.64566929133858 31.614905694927668 31.55337850210584 31.491851309284012 31.461087712873102 31.430324116462188 31.430324116462188 31.430324116462188 31.430324116462188 31.430324116462188 31.399560520051274 31.399560520051274 31.36879692364036 31.338033327229446 31.307269730818533 31.27650613440762 31.245742537996705 31.245742537996705 31.21497894158579 31.184215345174877 31.153451748763963 31.12268815235305 31.06116095953122 31.030397363120308 30.96887017029848 30.938106573887566 30.845815784654825 30.81505218824391 30.81505218824391 30.784288591832997 30.72276139901117 30.72276139901117 30.691997802600255 30.66123420618934 30.66123420618934 30.630470609778428 30.599707013367514 30.599707013367514 30.5689434169566 30.5689434169566 30.538179820545686 30.538179820545686 30.507416224134772 30.445889031312948 30.445889031312948 30.38436183849112 30.322834645669293 30.29207104925838 30.261307452847465 30.23054385643655 30.199780260025637 30.169016663614723 30.13825306720381 30.13825306720381 30.107489470792896 30.07672587438198 30.015198681560154 29.98443508514924 29.953671488738326 29.922907892327412 29.922907892327412 29.861380699505585 29.83061710309467 29.769089910272843 29.73832631386193 29.6767991210401 29.615271928218274 29.522981138985532 29.461453946163708 29.430690349752794 29.430690349752794 29.430690349752794 29.39992675334188 29.39992675334188 29.369163156930966 29.369163156930966 29.369163156930966 29.338399560520052 29.338399560520052 29.338399560520052 29.338399560520052 29.30763596410914 29.30763596410914 29.276872367698225 29.24610877128731 29.215345174876397 29.215345174876397 29.215345174876397 29.184581578465483 29.184581578465483 29.184581578465483 29.184581578465483 29.184581578465483 29.15381798205457 29.15381798205457 29.15381798205457 29.15381798205457 29.15381798205457 29.15381798205457 29.15381798205457 29.123054385643655 29.123054385643655 29.123054385643655 29.123054385643655 29.123054385643655 29.123054385643655 29.09229078923274 29.123054385643655 29.09229078923274 29.09229078923274 29.09229078923274 29.09229078923274 29.061527192821828 29.061527192821828 29.061527192821828 29.061527192821828 29.030763596410914 29.030763596410914 29.030763596410914 29.030763596410914 29.030763596410914 29.030763596410914 29.030763596410914 29.030763596410914 29.030763596410914 29.030763596410914 29.030763596410914 29.030763596410914 29.030763596410914 29.030763596410914 29.030763596410914 29.030763596410914 29.0 29.030763596410914 29.0 29.0 29.0 29.0 29.0 28.969236403589086 28.969236403589086 28.969236403589086 28.969236403589086 28.969236403589086 28.969236403589086 28.969236403589086 28.969236403589086 28.969236403589086 28.969236403589086 28.969236403589086 28.938472807178172 28.969236403589086 28.969236403589086 28.938472807178172 28.938472807178172 28.938472807178172 28.938472807178172 28.938472807178172 28.938472807178172 28.938472807178172 28.938472807178172 28.90770921076726 28.90770921076726 28.90770921076726 28.876945614356345 28.90770921076726 28.876945614356345 28.876945614356345 28.876945614356345 28.876945614356345 28.876945614356345 28.876945614356345 28.876945614356345 28.876945614356345 28.876945614356345 28.876945614356345 28.876945614356345 28.84618201794543 28.84618201794543 28.84618201794543 28.84618201794543 28.84618201794543 28.84618201794543 28.84618201794543 28.84618201794543 28.84618201794543 28.84618201794543 28.84618201794543 28.84618201794543 28.815418421534517 28.84618201794543 28.84618201794543 28.815418421534517 28.84618201794543 28.815418421534517 28.815418421534517 28.84618201794543 28.815418421534517 28.815418421534517 28.815418421534517 28.815418421534517 28.815418421534517 28.815418421534517 28.815418421534517 28.815418421534517 28.815418421534517 28.815418421534517 28.815418421534517 28.815418421534517 28.815418421534517 28.815418421534517 28.815418421534517 28.815418421534517 28.815418421534517 28.815418421534517 28.815418421534517 28.815418421534517 28.815418421534517 28.815418421534517 28.815418421534517 28.815418421534517 28.815418421534517 28.815418421534517 28.815418421534517 28.815418421534517 28.815418421534517 28.815418421534517 28.815418421534517 28.815418421534517 28.815418421534517 28.815418421534517 28.815418421534517 28.815418421534517 28.815418421534517 28.815418421534517 28.815418421534517 28.815418421534517 28.815418421534517 28.815418421534517 28.815418421534517 28.815418421534517 28.815418421534517 28.815418421534517 28.815418421534517 28.815418421534517 28.815418421534517 28.815418421534517 28.815418421534517 28.815418421534517 28.815418421534517 28.815418421534517 28.815418421534517 28.815418421534517 28.815418421534517 28.815418421534517 28.815418421534517 28.815418421534517 28.815418421534517 28.815418421534517 28.815418421534517 28.815418421534517 28.815418421534517 28.815418421534517 28.815418421534517 28.815418421534517 28.815418421534517 28.815418421534517 28.815418421534517 28.815418421534517 28.815418421534517 28.815418421534517 28.815418421534517 28.815418421534517 28.815418421534517 28.815418421534517 28.815418421534517 28.815418421534517 28.815418421534517 28.815418421534517 28.815418421534517 28.815418421534517 28.815418421534517 28.815418421534517 28.815418421534517 28.815418421534517 28.815418421534517 28.815418421534517 28.815418421534517 28.815418421534517 28.815418421534517 28.815418421534517 28.815418421534517 28.815418421534517 28.815418421534517 28.815418421534517 28.815418421534517 28.815418421534517 28.784654825123603 28.815418421534517 28.815418421534517 28.815418421534517 28.815418421534517 28.815418421534517 28.815418421534517 28.815418421534517 28.815418421534517 28.815418421534517 28.815418421534517 28.815418421534517 28.815418421534517 28.815418421534517 28.815418421534517 28.815418421534517 28.815418421534517 28.784654825123603 28.815418421534517 28.815418421534517 28.815418421534517 28.815418421534517 28.815418421534517 28.815418421534517 28.815418421534517 28.815418421534517 28.815418421534517 28.815418421534517 28.815418421534517 28.815418421534517 28.815418421534517 28.815418421534517 28.815418421534517 28.815418421534517 28.815418421534517 28.784654825123603 28.815418421534517 28.815418421534517 28.815418421534517 28.815418421534517 28.815418421534517 28.815418421534517 28.815418421534517 28.784654825123603 28.784654825123603 28.784654825123603 28.784654825123603 28.815418421534517 28.815418421534517 28.784654825123603 28.815418421534517 28.815418421534517 28.815418421534517 28.815418421534517 28.815418421534517 28.784654825123603 28.784654825123603 28.784654825123603 28.784654825123603 28.815418421534517 28.784654825123603 28.784654825123603 28.784654825123603 28.784654825123603 28.784654825123603 28.784654825123603 28.784654825123603 28.784654825123603 28.784654825123603 28.784654825123603 28.784654825123603 28.784654825123603 28.784654825123603 28.784654825123603 28.784654825123603 28.784654825123603 28.784654825123603 28.784654825123603 28.784654825123603 28.784654825123603 28.784654825123603 28.784654825123603 28.784654825123603 28.784654825123603 28.784654825123603 28.784654825123603 28.784654825123603 28.784654825123603 28.75389122871269 28.784654825123603 28.784654825123603 28.784654825123603 28.784654825123603 28.784654825123603 28.784654825123603 28.784654825123603 28.784654825123603 28.75389122871269 28.75389122871269 28.784654825123603 28.784654825123603 28.75389122871269 28.784654825123603 28.75389122871269 28.784654825123603 28.784654825123603 28.784654825123603 28.75389122871269 28.75389122871269 28.75389122871269 28.75389122871269 28.75389122871269 28.75389122871269 28.75389122871269 28.75389122871269 28.75389122871269 28.75389122871269 28.723127632301775 28.75389122871269 28.75389122871269 28.723127632301775 28.75389122871269 28.723127632301775 28.75389122871269 28.75389122871269 28.723127632301775 28.75389122871269 28.723127632301775 28.723127632301775 28.723127632301775 28.75389122871269 28.723127632301775 28.723127632301775 28.75389122871269 28.723127632301775 28.723127632301775 28.723127632301775 28.723127632301775 28.723127632301775 28.723127632301775 28.723127632301775 28.723127632301775 28.723127632301775 28.723127632301775 28.723127632301775 28.723127632301775 28.723127632301775 28.723127632301775 28.723127632301775 28.723127632301775 28.723127632301775 28.723127632301775 28.723127632301775 28.723127632301775 28.723127632301775 28.723127632301775 28.723127632301775 28.723127632301775 28.723127632301775 28.723127632301775 28.723127632301775 28.723127632301775 28.723127632301775 28.723127632301775 28.723127632301775 28.723127632301775 28.723127632301775 28.723127632301775 28.723127632301775 28.723127632301775 28.723127632301775 28.723127632301775 28.723127632301775 28.723127632301775 28.723127632301775 28.723127632301775 28.723127632301775 28.723127632301775 28.723127632301775 28.723127632301775 28.723127632301775 28.723127632301775 28.723127632301775 28.723127632301775 28.723127632301775 28.723127632301775 28.723127632301775 28.723127632301775 28.723127632301775 28.723127632301775 28.723127632301775 28.723127632301775 28.69236403589086 28.69236403589086 28.723127632301775 28.723127632301775 28.723127632301775 28.69236403589086 28.723127632301775 28.723127632301775 28.723127632301775 28.723127632301775 28.723127632301775 28.723127632301775 28.723127632301775 28.723127632301775 28.69236403589086 28.723127632301775 28.69236403589086 28.723127632301775 28.723127632301775 28.69236403589086 28.723127632301775 28.69236403589086 28.69236403589086 28.69236403589086 28.723127632301775 28.723127632301775 28.723127632301775 28.723127632301775 28.723127632301775 28.69236403589086 28.723127632301775 28.723127632301775 28.69236403589086 28.723127632301775 28.69236403589086 28.723127632301775 28.723127632301775 28.723127632301775 28.69236403589086 28.723127632301775 28.69236403589086 28.723127632301775 28.69236403589086 28.69236403589086 28.69236403589086 28.69236403589086 28.69236403589086 28.69236403589086 28.69236403589086 28.69236403589086 28.69236403589086 28.69236403589086 28.69236403589086 28.69236403589086 28.69236403589086 28.69236403589086 28.69236403589086 28.69236403589086 28.661600439479948 28.661600439479948 28.661600439479948 28.661600439479948 28.661600439479948 28.661600439479948 28.661600439479948 28.661600439479948 28.661600439479948 28.661600439479948 28.661600439479948 28.661600439479948 28.661600439479948 28.661600439479948 28.661600439479948 28.661600439479948 28.661600439479948 28.661600439479948 28.661600439479948 28.661600439479948 28.661600439479948 28.661600439479948 28.661600439479948 28.661600439479948 28.661600439479948 28.661600439479948 28.661600439479948 28.661600439479948 28.661600439479948 28.661600439479948 28.661600439479948 28.661600439479948 28.661600439479948 28.661600439479948 28.661600439479948 28.661600439479948 28.661600439479948 28.661600439479948 28.630836843069034 28.661600439479948 28.661600439479948 28.661600439479948 28.661600439479948 28.661600439479948 28.661600439479948 28.661600439479948 28.661600439479948 28.661600439479948 28.630836843069034 28.630836843069034 28.630836843069034 28.630836843069034 28.661600439479948 28.630836843069034 28.630836843069034 28.661600439479948 28.630836843069034 28.630836843069034 28.630836843069034 28.630836843069034 28.630836843069034 28.630836843069034 28.630836843069034 28.630836843069034 28.630836843069034 28.630836843069034 28.630836843069034 28.630836843069034 28.630836843069034 28.60007324665812 28.60007324665812 28.60007324665812 28.60007324665812 28.569309650247206 28.569309650247206 28.60007324665812 28.569309650247206 28.569309650247206 28.569309650247206 28.569309650247206 28.569309650247206 28.538546053836292 28.538546053836292 28.538546053836292 28.538546053836292 28.538546053836292 28.538546053836292 28.50778245742538 28.50778245742538 28.50778245742538 28.50778245742538 28.50778245742538 28.50778245742538 28.50778245742538 28.50778245742538 28.50778245742538 28.50778245742538 28.50778245742538 28.50778245742538 28.50778245742538 28.50778245742538 28.50778245742538 28.50778245742538 28.50778245742538 28.50778245742538 28.50778245742538 28.477018861014468 28.50778245742538 28.50778245742538 28.50778245742538 28.477018861014468 28.50778245742538 28.50778245742538 28.477018861014468 28.477018861014468 28.477018861014468 28.477018861014468 28.477018861014468 28.477018861014468 28.477018861014468 28.477018861014468 28.477018861014468 28.477018861014468 28.477018861014468 28.477018861014468 28.477018861014468 28.477018861014468 28.477018861014468 28.477018861014468 28.477018861014468 28.477018861014468 28.477018861014468 28.477018861014468 28.477018861014468 28.477018861014468 28.477018861014468 28.477018861014468 28.477018861014468 28.477018861014468 28.477018861014468 28.477018861014468 28.477018861014468 28.477018861014468 28.477018861014468 28.477018861014468 28.477018861014468 28.477018861014468 28.477018861014468 28.477018861014468 28.446255264603554 28.446255264603554 28.477018861014468 28.446255264603554 28.477018861014468 28.477018861014468 28.477018861014468 28.477018861014468 28.477018861014468 28.477018861014468 28.477018861014468 28.477018861014468 28.477018861014468 28.477018861014468 28.477018861014468 28.446255264603554 28.477018861014468 28.477018861014468 28.477018861014468 28.477018861014468 28.477018861014468 28.446255264603554 28.446255264603554 28.446255264603554 28.477018861014468 28.477018861014468 28.446255264603554 28.446255264603554 28.477018861014468 28.477018861014468 28.477018861014468 28.477018861014468 28.446255264603554 28.477018861014468 28.477018861014468 28.477018861014468 28.446255264603554 28.477018861014468 28.477018861014468 28.477018861014468 28.477018861014468 28.477018861014468 28.477018861014468 28.477018861014468 28.477018861014468 28.477018861014468 28.446255264603554 28.477018861014468 28.477018861014468 28.477018861014468 28.477018861014468 28.477018861014468 28.477018861014468 28.477018861014468 28.446255264603554 28.477018861014468 28.477018861014468 28.477018861014468 28.477018861014468 28.477018861014468 28.477018861014468 28.477018861014468 28.477018861014468 28.477018861014468 28.477018861014468 28.477018861014468 28.477018861014468 28.477018861014468 