25.0 25.0 25.0 25.0 25.0 25.0 24.978026002563634 25.0 25.0 25.0 25.0 25.0 25.0 25.0 25.0 25.0 25.0 25.0 25.0 25.0 25.0 25.021973997436366 25.021973997436366 25.021973997436366 25.021973997436366 25.021973997436366 25.021973997436366 25.021973997436366 25.021973997436366 25.021973997436366 25.021973997436366 25.021973997436366 25.021973997436366 25.021973997436366 25.021973997436366 25.021973997436366 25.021973997436366 25.021973997436366 25.021973997436366 25.021973997436366 25.021973997436366 25.021973997436366 25.021973997436366 25.021973997436366 25.021973997436366 25.021973997436366 25.021973997436366 25.021973997436366 25.021973997436366 25.021973997436366 25.021973997436366 25.021973997436366 25.021973997436366 25.021973997436366 25.021973997436366 25.021973997436366 25.021973997436366 25.021973997436366 25.021973997436366 25.021973997436366 25.0 25.021973997436366 25.021973997436366 25.0 25.021973997436366 25.021973997436366 25.021973997436366 25.021973997436366 25.021973997436366 25.0 25.021973997436366 25.021973997436366 25.021973997436366 25.021973997436366 25.021973997436366 25.021973997436366 25.0 25.021973997436366 25.021973997436366 25.021973997436366 25.021973997436366 25.021973997436366 25.021973997436366 25.021973997436366 25.021973997436366 25.021973997436366 25.021973997436366 25.021973997436366 25.021973997436366 25.021973997436366 25.021973997436366 25.021973997436366 25.021973997436366 25.021973997436366 25.021973997436366 25.021973997436366 25.021973997436366 25.021973997436366 25.021973997436366 25.021973997436366 25.043947994872735 25.043947994872735 25.0659219923091 25.0659219923091 25.08789598974547 25.08789598974547 25.08789598974547 25.08789598974547 25.0659219923091 25.0659219923091 25.0659219923091 25.0659219923091 25.08789598974547 25.0659219923091 25.0659219923091 25.08789598974547 25.0659219923091 25.0659219923091 25.0659219923091 25.0659219923091 25.0659219923091 25.08789598974547 25.0659219923091 25.08789598974547 25.08789598974547 25.0659219923091 25.0659219923091 25.0659219923091 25.0659219923091 25.0659219923091 25.0659219923091 25.0659219923091 25.0659219923091 25.0659219923091 25.0659219923091 25.0659219923091 25.0659219923091 25.0659219923091 25.0659219923091 25.0659219923091 25.0659219923091 25.0659219923091 25.0659219923091 25.0659219923091 25.0659219923091 25.0659219923091 25.0659219923091 25.0659219923091 25.0659219923091 25.0659219923091 25.0659219923091 25.0659219923091 25.0659219923091 25.0659219923091 25.0659219923091 25.0659219923091 25.08789598974547 25.0659219923091 25.0659219923091 25.0659219923091 25.0659219923091 25.0659219923091 25.0659219923091 25.0659219923091 25.0659219923091 25.0659219923091 25.0659219923091 25.0659219923091 25.0659219923091 25.0659219923091 25.0659219923091 25.0659219923091 25.0659219923091 25.0659219923091 25.0659219923091 25.0659219923091 25.0659219923091 25.0659219923091 25.08789598974547 25.0659219923091 25.0659219923091 25.0659219923091 25.0659219923091 25.0659219923091 25.0659219923091 25.0659219923091 25.08789598974547 25.0659219923091 25.0659219923091 25.08789598974547 25.08789598974547 25.08789598974547 25.0659219923091 25.0659219923091 25.0659219923091 25.0659219923091 25.0659219923091 25.0659219923091 25.0659219923091 25.0659219923091 25.0659219923091 25.0659219923091 25.0659219923091 25.0659219923091 25.0659219923091 25.0659219923091 25.0659219923091 25.0659219923091 25.0659219923091 25.0659219923091 25.0659219923091 25.0659219923091 25.0659219923091 25.0659219923091 25.0659219923091 25.08789598974547 25.0659219923091 25.0659219923091 25.0659219923091 25.0659219923091 25.0659219923091 25.0659219923091 25.0659219923091 25.0659219923091 25.0659219923091 25.0659219923091 25.0659219923091 25.0659219923091 25.0659219923091 25.08789598974547 25.0659219923091 25.0659219923091 25.0659219923091 25.0659219923091 25.0659219923091 25.0659219923091 25.0659219923091 25.0659219923091 25.0659219923091 25.0659219923091 25.0659219923091 25.0659219923091 25.0659219923091 25.0659219923091 25.0659219923091 25.0659219923091 25.0659219923091 25.0659219923091 25.0659219923091 25.0659219923091 25.0659219923091 25.0659219923091 25.0659219923091 25.0659219923091 25.0659219923091 25.0659219923091 25.0659219923091 25.0659219923091 25.0659219923091 25.0659219923091 25.0659219923091 25.0659219923091 25.0659219923091 25.0659219923091 25.0659219923091 25.0659219923091 25.0659219923091 25.0659219923091 25.0659219923091 25.0659219923091 25.0659219923091 25.0659219923091 25.0659219923091 25.0659219923091 25.0659219923091 25.0659219923091 25.0659219923091 25.0659219923091 25.0659219923091 25.0659219923091 25.0659219923091 25.0659219923091 25.0659219923091 25.0659219923091 25.043947994872735 25.0659219923091 25.0659219923091 25.0659219923091 25.0659219923091 25.0659219923091 25.08789598974547 25.0659219923091 25.08789598974547 25.0659219923091 25.08789598974547 25.08789598974547 25.08789598974547 25.08789598974547 25.08789598974547 25.0659219923091 25.08789598974547 25.08789598974547 25.0659219923091 25.08789598974547 25.0659219923091 25.0659219923091 25.0659219923091 25.0659219923091 25.0659219923091 25.08789598974547 25.08789598974547 25.08789598974547 25.08789598974547 25.08789598974547 25.08789598974547 25.08789598974547 25.08789598974547 25.08789598974547 25.08789598974547 25.08789598974547 25.08789598974547 25.08789598974547 25.08789598974547 25.08789598974547 25.08789598974547 25.109869987181835 25.08789598974547 25.109869987181835 25.08789598974547 25.08789598974547 25.08789598974547 25.08789598974547 25.109869987181835 25.109869987181835 25.08789598974547 25.08789598974547 25.08789598974547 25.109869987181835 25.08789598974547 25.08789598974547 25.08789598974547 25.08789598974547 25.08789598974547 25.08789598974547 25.08789598974547 25.08789598974547 25.109869987181835 25.08789598974547 25.08789598974547 25.08789598974547 25.08789598974547 25.109869987181835 25.08789598974547 25.08789598974547 25.08789598974547 25.08789598974547 25.08789598974547 25.08789598974547 25.08789598974547 25.08789598974547 25.08789598974547 25.08789598974547 25.08789598974547 25.08789598974547 25.08789598974547 25.08789598974547 25.08789598974547 25.08789598974547 25.08789598974547 25.08789598974547 25.08789598974547 25.08789598974547 25.08789598974547 25.08789598974547 25.08789598974547 25.08789598974547 25.08789598974547 25.08789598974547 25.08789598974547 25.08789598974547 25.08789598974547 25.08789598974547 25.08789598974547 25.08789598974547 25.08789598974547 25.08789598974547 25.08789598974547 25.08789598974547 25.08789598974547 25.08789598974547 25.08789598974547 25.08789598974547 25.08789598974547 25.109869987181835 25.08789598974547 25.109869987181835 25.08789598974547 25.109869987181835 25.08789598974547 25.08789598974547 25.08789598974547 25.08789598974547 25.109869987181835 25.08789598974547 25.08789598974547 25.08789598974547 25.08789598974547 25.08789598974547 25.08789598974547 25.08789598974547 25.08789598974547 25.08789598974547 25.08789598974547 25.08789598974547 25.08789598974547 25.08789598974547 25.08789598974547 25.08789598974547 25.08789598974547 25.08789598974547 25.08789598974547 25.08789598974547 25.08789598974547 25.08789598974547 25.08789598974547 25.08789598974547 25.08789598974547 25.109869987181835 25.08789598974547 25.08789598974547 25.08789598974547 25.08789598974547 25.08789598974547 25.08789598974547 25.109869987181835 25.109869987181835 25.08789598974547 25.109869987181835 25.08789598974547 25.08789598974547 25.109869987181835 25.08789598974547 25.08789598974547 25.109869987181835 25.109869987181835 25.109869987181835 25.109869987181835 25.08789598974547 25.109869987181835 25.08789598974547 25.08789598974547 25.08789598974547 25.109869987181835 25.109869987181835 25.109869987181835 25.08789598974547 25.08789598974547 25.08789598974547 25.08789598974547 25.08789598974547 25.08789598974547 25.08789598974547 25.109869987181835 25.08789598974547 25.08789598974547 25.08789598974547 25.08789598974547 25.08789598974547 25.08789598974547 25.08789598974547 25.08789598974547 25.08789598974547 25.08789598974547 25.08789598974547 25.08789598974547 25.08789598974547 25.08789598974547 25.08789598974547 25.08789598974547 25.08789598974547 25.109869987181835 25.08789598974547 25.08789598974547 25.08789598974547 25.08789598974547 25.08789598974547 25.109869987181835 25.08789598974547 25.08789598974547 25.08789598974547 25.08789598974547 25.08789598974547 25.109869987181835 25.08789598974547 25.109869987181835 25.109869987181835 25.109869987181835 25.109869987181835 25.1318439846182 25.1318439846182 25.1318439846182 25.15381798205457 25.1318439846182 25.15381798205457 25.15381798205457 25.15381798205457 25.15381798205457 25.15381798205457 25.15381798205457 25.15381798205457 25.1318439846182 25.15381798205457 25.15381798205457 25.15381798205457 25.15381798205457 25.15381798205457 25.15381798205457 25.15381798205457 25.15381798205457 25.15381798205457 25.15381798205457 25.15381798205457 25.15381798205457 25.175791979490935 25.15381798205457 25.15381798205457 25.15381798205457 25.175791979490935 25.175791979490935 25.175791979490935 25.175791979490935 25.175791979490935 25.175791979490935 25.175791979490935 25.175791979490935 25.175791979490935 25.175791979490935 25.175791979490935 25.175791979490935 25.175791979490935 25.175791979490935 25.197765976927304 25.175791979490935 25.175791979490935 25.175791979490935 25.175791979490935 25.175791979490935 25.175791979490935 25.197765976927304 25.175791979490935 25.175791979490935 25.175791979490935 25.175791979490935 25.175791979490935 25.175791979490935 25.175791979490935 25.175791979490935 25.175791979490935 25.175791979490935 25.175791979490935 25.175791979490935 25.15381798205457 25.175791979490935 25.175791979490935 25.175791979490935 25.175791979490935 25.175791979490935 25.175791979490935 25.175791979490935 25.175791979490935 25.175791979490935 25.197765976927304 25.197765976927304 25.21973997436367 25.21973997436367 25.241713971800035 25.241713971800035 25.241713971800035 25.241713971800035 25.241713971800035 25.241713971800035 25.263687969236404 25.28566196667277 25.30763596410914 25.35158395898187 25.395531953854604 25.461453946163708 25.50540194103644 25.571323933345543 25.615271928218274 25.703167917963743 25.791063907709212 25.878959897454678 25.988829884636512 26.07672587438198 26.23054385643655 26.42830983336385 26.626075810291155 26.88976377952756 27.219373741073063 27.570957700054933 27.988463651345906 28.427943600073245 28.867423548800588 29.328877494964292 29.76835744369163 30.20783739241897 30.691265336019043 31.15271928218275 31.65812122321919 32.14154916681926 32.69089910272844 33.174327046328514 33.74565097967405 34.29500091558323 34.86632484892877 35.41567478483794 36.00897271561985 36.58029664896539 37.129646584874564 37.65702252334737 38.25032045412928 38.86559238234756 39.546786302874935 40.227980223402305 40.86522614905695 41.39260208752975 42.07379600805713 42.667093938839045 43.282365867057315 43.87566379783922 44.5568577183666 44.99633766709394 45.52371360556674 46.02911554660319 46.468595495330526 46.93004944149423 47.391503387657934 47.78703534151254 48.18256729536715 48.55612525178539 48.95165720563999 49.3471891594946 49.742721113349205 50.138253067203806 50.511811023622045 50.90734297747665 51.25892693645852 51.63248489287676 51.96209485442226 52.357626808276876 52.731184764695115 53.14869071598608 53.566196667277055 53.961728621131655 54.37923457242263 54.75279252884087 55.14832448269547 55.65372642373192 56.15912836476836 56.620582310932065 57.191906244277604 57.76323017762314 58.31258011353232 58.94982603918696 59.499175975096136 60.114447903314414 60.641823841787215 61.32301776231459 61.89434169566014 62.53158762131478 63.16883354696942 63.80607947262406 64.4433253982787 65.10254532136972 65.717817249588 66.3111151803699 66.94836110602454 67.62955502655191 68.28877494964291 68.94799487273393 69.58524079838858 70.20051272660686 70.79381065738875 71.4310565830434 72.00238051638894 72.61765244460722 73.21095037538913 73.67240432155283 74.28767624977111 74.83702618568029 75.36440212415309 75.84783006775316 76.41915400109869 76.90258194469877 77.45193188060796 78.02325581395348 78.66050173960812 79.18787767808094 79.82512360373559 80.30855154733565 80.77000549349935 81.62699139351767 82.11041933711775 82.8135872550815 83.51675517304523 84.02215711408166 84.68137703717268 85.23072697308186 85.84599890130013 86.48324482695477 86.94469877311849 87.55997070133675 88.17524262955503 88.83446255264604 89.42776048342795 89.80131843984618 90.21882439113715 90.76817432704634 91.09778428859184 91.47134224501008 91.88884819630104 92.04266617835562 92.17451016297382 92.24043215528292 92.21845815784656 92.21845815784656 92.21845815784656 92.02069218091924 91.73503021424648 91.51529023988282 91.1197582860282 90.70225233473722 90.24079838857352 89.64750045779161 89.27394250137338 88.592748580846 88.06537264237319 87.31825672953671 86.57114081670024 85.82402490386376 85.01098699871818 84.48361106024538 83.89031312946346 83.01135323200879 82.50595129097235 81.45119941402675 80.59421351400843 79.69327961911739 79.36366965757188 78.2869437831899 77.49587987548068 76.24336202160777 75.67203808826221 75.12268815235305 74.48544222669841 73.84819630104377 73.05713239333456 72.20014649331624 71.6288225599707 70.70591466764328 70.15656473173412 69.21168284197034 68.02508698040651 67.51968503937007 66.81651712140633 65.87163523164256 65.1684673136788 63.95989745467863 63.322651529023986 62.44369163156931 61.5207837392419 60.92748580845999 60.290239882805345 59.23548800585973 58.55429408533236 57.93902215711408 57.45559421351401 56.752426295550265 56.115180369895626 55.60977842885919 54.97253250320454 54.269364585240794 53.763962644204355 52.994872733931516 52.53341878776781 51.56656290056766 50.577733015931145 50.336019044131106 49.852591100531036 48.92968320820363 48.42428126716719 47.80900933894891 47.36952939022157 46.754257462003295 46.07306354147592 45.58963559787585 44.90844167734847 44.44698773118476 43.765793810657385 42.842885918329976 42.293535982420806 41.89800402856619 41.52444607214796 40.68943416956601 40.469694195202344 40.162058231093205 39.854422266984066 39.524812305438566 39.21717634132943 38.57993041567478 38.20637245925654 37.89873649514741 37.54715253616554 37.4372825489837 37.063724592565464 36.624244643838125 36.360556674601725 36.07489470792895 35.76725874381981 35.52554477201978 35.26185680278337 35.0421168284197 34.73448086431057 34.33894891045596 34.11920893609229 33.701702984801315 33.32814502838308 33.04248306171031 32.55905511811024 32.2514191540011 32.0536531770738 31.72404321552829 31.482329243728255 31.130745284746382 30.801135323200878 30.493499359091743 30.20783739241897 30.097967405237135 29.8562534334371 29.526643471891596 29.372825489837027 29.131111518036988 28.91137154367332 28.75755356161875 28.55978758469145 28.362021607764145 28.076359641091376 27.81267167185497 27.614905694927668 27.329243728254898 27.04358176158213 26.867789782091194 26.779893792345725 26.713971800036624 26.67002380516389 26.648049807727524 26.626075810291155 26.626075810291155 26.626075810291155 26.626075810291155 26.60410181285479 26.60410181285479 26.58212781541842 26.58212781541842 26.58212781541842 26.560153817982055 26.560153817982055 26.560153817982055 26.538179820545686 26.51620582310932 26.494231825672955 26.494231825672955 26.472257828236586 26.45028383080022 26.42830983336385 26.406335835927486 26.406335835927486 26.406335835927486 26.38436183849112 26.38436183849112 26.38436183849112 26.38436183849112 26.36238784105475 26.38436183849112 26.38436183849112 26.36238784105475 26.36238784105475 26.36238784105475 26.36238784105475 26.36238784105475 26.36238784105475 26.36238784105475 26.340413843618386 26.340413843618386 26.340413843618386 26.340413843618386 26.318439846182017 26.318439846182017 26.340413843618386 26.340413843618386 26.318439846182017 26.318439846182017 26.340413843618386 26.340413843618386 26.340413843618386 26.318439846182017 26.318439846182017 26.318439846182017 26.318439846182017 26.318439846182017 26.318439846182017 26.318439846182017 26.318439846182017 26.318439846182017 26.29646584874565 26.29646584874565 26.318439846182017 26.318439846182017 26.318439846182017 26.318439846182017 26.29646584874565 26.318439846182017 26.318439846182017 26.318439846182017 26.318439846182017 26.29646584874565 26.318439846182017 26.29646584874565 26.29646584874565 26.318439846182017 26.318439846182017 26.318439846182017 26.29646584874565 26.29646584874565 26.29646584874565 26.29646584874565 26.29646584874565 26.29646584874565 26.29646584874565 26.29646584874565 26.29646584874565 26.29646584874565 26.29646584874565 26.29646584874565 26.29646584874565 26.29646584874565 26.29646584874565 26.29646584874565 26.29646584874565 26.29646584874565 26.29646584874565 26.29646584874565 26.29646584874565 26.29646584874565 26.29646584874565 26.29646584874565 26.29646584874565 26.29646584874565 26.29646584874565 26.29646584874565 26.29646584874565 26.29646584874565 26.29646584874565 26.29646584874565 26.29646584874565 26.29646584874565 26.29646584874565 26.29646584874565 26.29646584874565 26.29646584874565 26.29646584874565 26.29646584874565 26.29646584874565 26.29646584874565 26.29646584874565 26.29646584874565 26.29646584874565 26.29646584874565 26.29646584874565 26.29646584874565 26.29646584874565 26.29646584874565 26.29646584874565 26.29646584874565 26.29646584874565 26.29646584874565 26.29646584874565 26.29646584874565 26.29646584874565 26.29646584874565 26.29646584874565 26.29646584874565 26.29646584874565 26.29646584874565 26.29646584874565 26.29646584874565 26.29646584874565 26.29646584874565 26.29646584874565 26.29646584874565 26.29646584874565 26.29646584874565 26.29646584874565 26.29646584874565 26.29646584874565 26.29646584874565 26.29646584874565 26.29646584874565 26.29646584874565 26.29646584874565 26.29646584874565 26.29646584874565 26.29646584874565 26.29646584874565 26.29646584874565 26.29646584874565 26.29646584874565 26.29646584874565 26.29646584874565 26.29646584874565 26.29646584874565 26.29646584874565 26.29646584874565 26.29646584874565 26.29646584874565 26.29646584874565 26.29646584874565 26.29646584874565 26.29646584874565 26.29646584874565 26.274491851309286 26.29646584874565 26.29646584874565 26.29646584874565 26.29646584874565 26.29646584874565 26.29646584874565 26.29646584874565 26.29646584874565 26.29646584874565 26.29646584874565 26.29646584874565 26.29646584874565 26.29646584874565 26.29646584874565 26.29646584874565 26.274491851309286 26.274491851309286 26.29646584874565 26.29646584874565 26.29646584874565 26.274491851309286 26.29646584874565 26.274491851309286 26.29646584874565 26.274491851309286 26.29646584874565 26.274491851309286 26.29646584874565 26.29646584874565 26.274491851309286 26.274491851309286 26.29646584874565 26.29646584874565 26.29646584874565 26.29646584874565 26.29646584874565 26.29646584874565 26.29646584874565 26.29646584874565 26.29646584874565 26.29646584874565 26.29646584874565 26.29646584874565 26.29646584874565 26.29646584874565 26.274491851309286 26.274491851309286 26.29646584874565 26.29646584874565 26.29646584874565 26.274491851309286 26.29646584874565 26.29646584874565 26.29646584874565 26.274491851309286 26.29646584874565 26.29646584874565 26.29646584874565 26.274491851309286 26.274491851309286 26.29646584874565 26.29646584874565 26.29646584874565 26.29646584874565 26.274491851309286 26.29646584874565 26.29646584874565 26.29646584874565 26.29646584874565 26.29646584874565 26.318439846182017 26.318439846182017 26.340413843618386 26.36238784105475 26.36238784105475 26.38436183849112 26.42830983336385 26.45028383080022 26.60410181285479 26.648049807727524 26.779893792345725 26.97765976927303 27.10950375389123 27.241347738509432 27.527009705182202 27.658853689800402 27.87859366416407 28.010437648782275 28.208203625709576 28.38399560520051 28.53781358725508 28.62570957700055 28.75755356161875 28.889397546236953 28.97729353598242 29.109137520600623 29.219007507782457 29.460721479582496 29.570591466764327 29.70243545138253 29.944149423182566 30.097967405237135 30.36165537447354 30.669291338582678 30.998901300128182 31.37245925654642 31.636147225782825 31.89983519501923 32.3832631386193 32.646951107855706 33.04248306171031 33.32814502838308 33.74565097967405 34.18513092840139 34.49276689251053 34.88829884636513 35.39370078740157 35.67936275407435 35.921076725874386 36.20673869254715 36.602270646401756 36.975828602819995 37.3713605566746 37.65702252334737 38.09650247207471 38.38216443874748 38.71177440029299 39.01941036440212 39.39296832082036 39.854422266984066 40.206006225965936 40.579564182384175 41.019044131111514 41.50247207471159 42.00787401574803 42.33748397729354 42.82091192089361 43.45815784654825 43.67789782091192 44.073429774766524 44.38106573887566 44.77659769273027 45.32594762863944 45.45779161325764 45.985167551730456 46.314777513275956 46.66636147225783 47.2816334004761 47.56729536714887 47.87493133125801 48.29243728254899 48.60007324665812 49.01757919794909 49.4131111518037 49.720747115912836 50.138253067203806 50.40194103644021 50.86339498260392 51.30287493133126 51.6105108954404 52.1378868339132 52.81908075444058 53.214612708295185 53.588170664713424 54.00567661600439 54.5989745467863 55.21424647500458 55.69767441860465 56.598608313495696 57.65336019044131 58.31258011353232 58.81798205456876 59.3893059879143 59.916681926387106 60.70774583409632 61.23512177256912 62.00421168284197 62.993041567478485 63.256729536714886 64.00384544955136 64.92675334187878 65.43215528291522 66.09137520600623 66.59677714704267 67.38784105475187 68.13495696758835 68.88207288042483 69.6291887932613 70.11261673686138 70.61801867789782 71.4310565830434 71.84856253433438 72.50778245742538 73.21095037538913 73.8262223036074 74.52939022157113 74.96887017029849 75.40835011902581 76.11151803698957 76.99047793444424 77.58377586522616 78.04522981138985 78.5506317524263 79.16590368064458 79.64933162424464 80.24262955502655 80.83592748580847 81.23145943966307 81.93462735762681 82.41805530122689 83.03332722944516 83.9342611243362 84.5275590551181 85.05493499359092 85.6042849295001 86.08771287310017 86.76890679362754 87.25233473722761 88.13129463468229 88.7905145577733 89.14209851675518 89.47170847830067 90.08698040651895 90.35066837575536 90.63633034242812 90.81212232191906 90.87804431422816 90.90001831166454 90.90001831166454 90.8560703167918 90.68027833730086 90.4605383629372 90.06500640908259 89.75737044497345 89.31789049624611 88.7905145577733 88.21919062442777 87.69181468595497 87.14246475004578 86.61508881157297 85.62625892693646 84.92309100897272 84.11005310382714 83.14319721662699 82.54989928584509 81.93462735762681 80.81395348837209 80.22065555759019 79.34169566013551 78.77037172678996 78.02325581395348 77.38600988829884 76.83665995238968 76.06757004211683 75.47427211133493 74.83702618568029 74.11188427028017 73.58450833180737 72.72752243178905 72.06830250869804 71.51895257278886 70.81578465482514 70.44222669840688 69.73905878044314 68.68430690349753 68.04706097784288 67.32191906244277 66.48690715986083 65.93755722395166 65.08057132393334 64.66306537264236 63.915949459805894 63.23475553927852 62.61948361106025 62.09210767258744 61.49880974180553 60.81761582127815 60.246291887932614 60.004577916132575 59.47720197765977 58.81798205456876 58.31258011353232 57.609412195568574 56.972166269913934 56.22505035707746 55.76359641091375 55.39003845449551 54.77476652627723 54.04962461087713 53.192638710858816 52.40157480314961 51.6105108954404 50.533785021058414 50.314045046694744 49.76469511078557 49.171397180003666 48.57809924922175 48.07269730818531 47.61124336202161 47.127815418421534 46.820179454312395 46.33675151071232 46.07306354147592 45.72147958249405 45.30397363120308 45.04028566196667 44.64475370811206 44.139351767075624 43.897637795275585 43.590001831166454 43.370261856802784 43.172495879875484 42.60117194652994 42.49130195934811 42.11774400292987 41.83208203625709 41.43655008240249 41.019044131111514 40.71140816700238 40.27192821827504 39.788500274674966 39.34902032594763 38.95348837209302 38.44808643105658 38.16242446438381 37.72294451565647 37.3054385643655 37.08569859000183 36.624244643838125 36.470426661783556 36.118842702801686 36.00897271561985 35.61344076176525 35.37172678996521 35.17396081303791 34.9761948361106 34.60263687969236 34.40487090276506 34.18513092840139 33.98736495147409 33.74565097967405 33.459989013001284 33.416041018128546 33.240249038637614 33.108405054019414 32.998535066837576 32.866691082219376 32.75682109503754 32.5151071232375 32.3832631386193 32.2514191540011 31.94378318989196 31.702069218091925 31.52627723860099 31.174693279619117 30.976927302691813 30.647317341146312 30.273759384728073 30.032045412928035 29.76835744369163 29.372825489837027 29.175059512909723 28.933345541109688 28.801501556491484 28.64768357443692 28.53781358725508 28.47189159494598 28.40596960263688 28.31807361289141 28.27412561801868 28.16425563083684 28.076359641091376 27.922541659036806 27.768723676982237 27.702801684673137 27.614905694927668 27.527009705182202 27.329243728254898 27.17542574620033 27.065555759018494 26.88976377952756 26.82384178721846 26.779893792345725 26.757919794909355 26.73594579747299 26.713971800036624 26.713971800036624 26.691997802600255 26.648049807727524 26.626075810291155 26.60410181285479 26.58212781541842 26.58212781541842 26.560153817982055 26.560153817982055 26.560153817982055 26.560153817982055 26.538179820545686 26.538179820545686 26.538179820545686 26.538179820545686 26.538179820545686 26.51620582310932 26.51620582310932 26.51620582310932 26.494231825672955 26.494231825672955 26.494231825672955 26.494231825672955 26.494231825672955 26.494231825672955 26.494231825672955 26.494231825672955 26.494231825672955 26.494231825672955 26.494231825672955 26.494231825672955 26.472257828236586 26.472257828236586 26.472257828236586 26.472257828236586 26.45028383080022 26.45028383080022 26.45028383080022 26.472257828236586 26.45028383080022 26.45028383080022 26.45028383080022 26.45028383080022 26.472257828236586 26.45028383080022 26.45028383080022 26.472257828236586 26.45028383080022 26.45028383080022 26.45028383080022 26.45028383080022 26.45028383080022 26.45028383080022 26.472257828236586 26.45028383080022 26.45028383080022 26.45028383080022 26.45028383080022 26.45028383080022 26.45028383080022 26.45028383080022 26.45028383080022 26.45028383080022 26.45028383080022 26.45028383080022 26.45028383080022 26.45028383080022 26.45028383080022 26.45028383080022 26.45028383080022 26.45028383080022 26.45028383080022 26.45028383080022 26.45028383080022 26.45028383080022 26.45028383080022 26.45028383080022 26.45028383080022 26.45028383080022 26.45028383080022 26.472257828236586 26.45028383080022 26.45028383080022 26.472257828236586 26.472257828236586 26.45028383080022 26.45028383080022 26.45028383080022 26.472257828236586 26.45028383080022 26.45028383080022 26.472257828236586 26.472257828236586 26.45028383080022 26.45028383080022 26.45028383080022 26.45028383080022 26.45028383080022 26.45028383080022 26.45028383080022 26.45028383080022 26.45028383080022 26.472257828236586 26.45028383080022 26.472257828236586 26.45028383080022 26.45028383080022 26.472257828236586 26.45028383080022 26.45028383080022 26.45028383080022 26.45028383080022 26.45028383080022 26.45028383080022 26.45028383080022 26.472257828236586 26.45028383080022 26.45028383080022 26.472257828236586 26.45028383080022 26.472257828236586 26.45028383080022 26.45028383080022 26.45028383080022 26.45028383080022 26.45028383080022 26.45028383080022 26.45028383080022 26.45028383080022 26.45028383080022 26.45028383080022 26.45028383080022 26.472257828236586 26.45028383080022 26.45028383080022 26.45028383080022 26.45028383080022 26.45028383080022 26.45028383080022 26.45028383080022 26.45028383080022 26.45028383080022 26.45028383080022 26.45028383080022 26.45028383080022 26.45028383080022 26.45028383080022 26.45028383080022 26.45028383080022 26.45028383080022 26.45028383080022 26.45028383080022 26.45028383080022 26.45028383080022 26.45028383080022 26.45028383080022 26.45028383080022 26.45028383080022 26.45028383080022 26.45028383080022 26.45028383080022 26.472257828236586 26.45028383080022 26.45028383080022 26.45028383080022 26.45028383080022 26.45028383080022 26.45028383080022 26.472257828236586 26.45028383080022 26.45028383080022 26.472257828236586 26.45028383080022 26.45028383080022 26.472257828236586 26.45028383080022 26.45028383080022 26.45028383080022 26.45028383080022 26.45028383080022 26.45028383080022 26.45028383080022 26.45028383080022 26.472257828236586 26.45028383080022 26.45028383080022 26.472257828236586 26.45028383080022 26.472257828236586 26.472257828236586 26.494231825672955 26.494231825672955 26.494231825672955 26.51620582310932 26.538179820545686 26.626075810291155 26.67002380516389 26.73594579747299 26.845815784654825 26.97765976927303 27.065555759018494 27.153451748763963 27.329243728254898 27.439113715436733 27.570957700054933 27.68082768723677 27.81267167185497 27.944515656473172 28.09833363852774 28.230177623145945 28.34004761032778 28.53781358725508 28.64768357443692 28.75755356161875 28.97729353598242 29.153085515473357 29.284929500091557 29.41677348470976 29.680461453946165 29.76835744369163 30.07599340780077 30.251785387291704 30.51547335652811 30.801135323200878 31.042849295000916 31.30653726423732 31.72404321552829 31.987731184764694 32.33931514374657 32.60300311298297 33.086431056583045 33.350119025819446 33.61380699505585 33.98736495147409 34.29500091558323 34.60263687969236 34.95422083867423 35.19593481047427 35.56949276689251 35.89910272843802 36.250686687419886 36.624244643838125 36.887932613074526 37.1735945797473 37.7668925105292 38.16242446438381 38.73374839772936 38.99743636696576 39.34902032594763 39.8324482695477 40.206006225965936 40.667460172129644 41.17286211316609 41.74418604651163 42.07379600805713 42.57919794909357 42.930781908075446 43.436183849111885 43.831715802966485 44.18329976194836 44.64475370811206 44.9523896722212 45.45779161325764 45.72147958249405 46.424647500457795 46.51254349020326 46.820179454312395 47.325581395348834 47.80900933894891 48.20454129280351 48.66599523896723 49.19337117744003 49.56692913385827 50.138253067203806 50.511811023622045 51.12708295184032 51.72038088262223 52.11591283647684 52.70921076725874 53.302508698040654 53.87383263138619 54.24739058780443 54.70884453396813 55.21424647500458 55.82951840322285 56.312946346822926 57.30177623145944 58.04889214429592 58.90587804431423 59.433253982787036 60.004577916132575 60.597875846914484 61.9163156930965 62.31184764695111 63.058963559787585 63.67423548800586 64.53122138802416 65.93755722395166 66.61875114447903 67.14612708295184 67.82732100347921 68.37667093938839 69.05786485991577 69.8928767624977 70.66196667277055 71.71671854971618 72.26606848562534 72.74949642922542 73.2329243728255 73.71635231642557 74.35359824208021 74.83702618568029 75.45229811389855 76.13349203442593 76.70481596777148 76.8806079472624 77.53982787035342 78.6165537447354 78.8802417139718 79.2757736678264 79.64933162424464 80.04486357809925 80.55026551913569 80.87987548068119 81.34132942684491 81.78080937557223 82.30818531404505 82.48397729353599 83.14319721662699 83.58267716535434 83.89031312946346 84.1979490935726 84.63742904229994 84.94506500640908 85.36257095770006 85.64823292437282 86.17560886284564 86.3953488372093 86.57114081670024 86.74693279619117 86.98864676799121 87.09851675517305 87.25233473722761 87.36220472440945 87.47207471159129 87.51602270646401 87.51602270646401 87.51602270646401 87.51602270646401 87.49404870902765 87.36220472440945 87.16443874748215 86.90075077824574 86.61508881157297 86.2635048525911 85.9338948910456 85.8020509064274 85.45046694744553 84.90111701153634 84.46163706280902 84.04413111151804 83.64859915766343 83.27504120124519 82.76963926020875 82.24226332173595 81.84673136788135 81.34132942684491 80.96777147042667 80.35249954220839 79.5394616370628 79.29774766526278 78.66050173960812 78.2210217908808 77.53982787035342 76.85863394982604 76.33125801135323 75.38637612158945 74.63926020875297 74.39754623695293 73.14502838308002 72.74949642922542 72.24409448818898 71.45303058047976 70.94762863944334 70.31038271378868 69.6291887932613 69.18970884453397 68.44259293169749 68.02508698040651 67.32191906244277 66.61875114447903 66.09137520600623 65.36623329060612 64.3774034059696 63.89397546236953 63.278703534151255 62.773301593114816 62.39974363669658 61.80644570591467 61.38893975462369 60.575901849478115 59.806811939205275 59.367331990477936 58.97180003662333 58.59824208020509 58.29060611609595 57.74125618018678 57.41164621864127 56.972166269913934 56.532686321186596 56.247024354513826 55.80754440578649 55.19227247756821 55.08240249038637 54.5989745467863 54.137520600622594 53.720014649331624 53.500274674967955 52.97289873649515 52.53341878776781 52.2038088262223 51.8741988646768 51.34682292620399 50.97326496978575 50.182201062076544 49.786669108221936 48.49020325947629 47.96282732100348 47.457425379967034 46.952023438930595 46.402673503021425 45.853323567112255 45.28199963376671 44.79857169016664 43.941585790148324 43.52407983885735 43.08459989013001 42.46932796191174 41.89800402856619 41.50247207471159 40.99707013367515 40.535616187511444 40.140084233656836 39.678630287493135 39.21717634132943 38.93151437465666 38.57993041567478 38.36019044131112 37.85478850027467 37.65702252334737 37.34938655923823 37.063724592565464 36.778062625892694 36.51437465665629 36.09686870536532 35.85515473356528 35.48159677714705 35.19593481047427 34.80040285661967 34.38289690532869 34.09723493865592 33.67972898736495 33.240249038637614 32.95458707196484 32.53708112067387 32.20747115912837 31.921809192455594 31.59219923091009 31.28456326680095 31.108771287310017 30.911005310382713 30.757187328328143 30.51547335652811 30.383629371909905 30.185863394982604 30.010071415491666 29.812305438564366 29.63651345907343 29.41677348470976 29.131111518036988 28.823475553927853 28.603735579564184 28.34004761032778 27.87859366416407 27.658853689800402 27.395165720564 27.131477751327594 26.95568577183666 26.867789782091194 26.82384178721846 26.80186778978209 26.80186778978209 26.82384178721846 26.845815784654825 26.845815784654825 26.82384178721846 26.82384178721846 26.82384178721846 26.80186778978209 26.80186778978209 26.80186778978209 26.80186778978209 26.80186778978209 26.779893792345725 26.779893792345725 26.779893792345725 26.757919794909355 26.73594579747299 26.713971800036624 26.691997802600255 26.67002380516389 26.648049807727524 26.626075810291155 26.626075810291155 26.60410181285479 26.60410181285479 26.60410181285479 26.60410181285479 26.60410181285479 26.58212781541842 26.58212781541842 26.58212781541842 26.560153817982055 26.560153817982055 26.538179820545686 26.538179820545686 26.538179820545686 26.51620582310932 26.494231825672955 26.494231825672955 26.494231825672955 26.494231825672955 26.494231825672955 26.494231825672955 26.494231825672955 26.494231825672955 26.494231825672955 26.494231825672955 26.494231825672955 26.472257828236586 26.494231825672955 26.494231825672955 26.494231825672955 26.472257828236586 26.472257828236586 26.472257828236586 26.472257828236586 26.494231825672955 26.472257828236586 26.472257828236586 26.472257828236586 26.472257828236586 26.472257828236586 26.472257828236586 26.472257828236586 26.472257828236586 26.472257828236586 26.472257828236586 26.472257828236586 26.45028383080022 26.472257828236586 26.472257828236586 26.472257828236586 26.45028383080022 26.472257828236586 26.45028383080022 26.45028383080022 26.45028383080022 26.45028383080022 26.45028383080022 26.472257828236586 26.472257828236586 26.472257828236586 26.45028383080022 26.472257828236586 26.472257828236586 26.45028383080022 26.472257828236586 26.472257828236586 26.45028383080022 26.45028383080022 26.45028383080022 26.472257828236586 26.45028383080022 26.45028383080022 26.45028383080022 26.45028383080022 26.45028383080022 26.45028383080022 26.45028383080022 26.45028383080022 26.472257828236586 26.45028383080022 26.45028383080022 26.45028383080022 26.45028383080022 26.45028383080022 26.45028383080022 26.45028383080022 26.45028383080022 26.45028383080022 26.45028383080022 26.45028383080022 26.45028383080022 26.45028383080022 26.472257828236586 26.45028383080022 26.45028383080022 26.45028383080022 26.45028383080022 26.45028383080022 26.45028383080022 26.472257828236586 26.45028383080022 26.45028383080022 26.45028383080022 26.45028383080022 26.45028383080022 26.45028383080022 26.45028383080022 26.45028383080022 26.472257828236586 26.45028383080022 26.45028383080022 26.45028383080022 26.45028383080022 26.45028383080022 26.45028383080022 26.45028383080022 26.45028383080022 26.45028383080022 26.45028383080022 26.45028383080022 26.45028383080022 26.45028383080022 26.45028383080022 26.45028383080022 26.45028383080022 26.45028383080022 26.45028383080022 26.45028383080022 26.45028383080022 26.45028383080022 26.45028383080022 26.45028383080022 26.45028383080022 26.45028383080022 26.45028383080022 26.45028383080022 26.45028383080022 26.45028383080022 26.45028383080022 26.45028383080022 26.45028383080022 26.45028383080022 26.45028383080022 26.45028383080022 26.45028383080022 26.45028383080022 26.45028383080022 26.45028383080022 26.45028383080022 26.45028383080022 26.45028383080022 26.45028383080022 26.45028383080022 26.45028383080022 26.45028383080022 26.45028383080022 26.45028383080022 26.45028383080022 26.45028383080022 26.45028383080022 26.45028383080022 26.45028383080022 26.45028383080022 26.45028383080022 26.45028383080022 26.45028383080022 26.45028383080022 26.472257828236586 26.472257828236586 26.472257828236586 26.494231825672955 26.494231825672955 26.494231825672955 26.494231825672955 26.51620582310932 26.560153817982055 26.626075810291155 26.757919794909355 26.845815784654825 27.02160776414576 27.219373741073063 27.439113715436733 27.702801684673137 27.834645669291337 28.076359641091376 28.40596960263688 28.62570957700055 29.043215528291523 29.284929500091557 29.592565464200696 30.032045412928035 30.119941402673504 30.36165537447354 30.735213330891778 31.064823292437282 31.28456326680095 31.548251236037355 31.921809192455594 32.36128914118294 32.95458707196484 33.306171030946714 33.657754989928584 33.92144295916499 34.25105292071049 34.55868888481963 35.15198681560154 35.59146676432888 35.87712873100165 36.16279069767442 36.44845266434719 36.931880607947264 37.54715253616554 37.87676249771104 38.38216443874748 38.84361838491119 39.546786302874935 39.876396264420436 40.29390221571141 40.62351217725691 41.084966123420614 41.63431605932979 42.00787401574803 42.51327595678447 42.88683391320271 43.633949826039185 44.09540377220289 44.46896172862113 44.86449368247574 45.26002563633034 45.78740157480315 46.51254349020326 46.93004944149423 47.523347372276135 47.78703534151254 48.42428126716719 49.32521516205823 49.50100714154917 50.182201062076544 50.665629005676614 51.03918696209485 51.69840688518586 52.0719648416041 52.423548800585976 52.994872733931516 53.368430690349754 53.895806628822555 54.70884453396813 54.99450650064091 55.67570042116829 56.247024354513826 56.906244277604834 57.63138619300494 58.13678813404138 59.1256180186779 59.60904596227797 60.312213880241714 61.01538179820545 61.56473173411463 62.0481596777147 62.773301593114816 63.23475553927852 63.93792345724226 64.5751693828969 65.01464933162424 65.69584325215162 66.13532320087896 66.7725691265336 67.36586705731551 67.80534700604285 68.42061893426111 68.86009888298847 69.6951107855704 70.11261673686138 70.66196667277055 71.32118659586156 72.04632851126168 72.61765244460722 73.65043032411646 74.26570225233473 74.96887017029849 75.6940120856986 76.19941402673503 76.96850393700788 77.69364585240798 78.17707379600806 79.31972166269914 79.89104559604468 80.33052554477202 80.81395348837209 81.23145943966307 81.69291338582677 82.48397729353599 82.98937923457243 83.38491118842703 83.75846914484526 84.28584508331807 84.90111701153634 85.38454495513642 85.69218091924556 85.95586888848196 86.24153085515474 86.72495879875481 86.94469877311849 87.27430873466398 87.53799670390038 87.73576268082769 87.99945065006409 88.15326863211865 88.21919062442777 88.24116462186413 88.24116462186413 88.24116462186413 88.19721662699139 87.95550265519137 87.69181468595497 87.36220472440945 87.09851675517305 86.68101080388207 86.35140084233657 85.88994689617286 85.2087529756455 84.79124702435452 84.41768906793627 83.9342611243362 83.31898919611793 82.90148324482695 82.26423731917231 81.62699139351767 80.96777147042667 80.39644753708112 79.91301959348105 79.34169566013551 78.63852774217176 77.91338582677164 77.40798388573522 76.616919978026 75.93572605749863 75.43032411646219 74.44149423182567 74.17780626258927 73.40871635231643 72.66160043947995 72.1561984984435 71.34316059329794 70.37630470609778 69.7610327778795 69.05786485991577 68.64035890862479 67.82732100347921 66.6407251419154 66.09137520600623 64.86083134956968 64.1137154367332 63.498443508514924 62.37776963926021 62.26789965207837 61.19117377769639 60.070499908441676 59.521149972532506 58.8619300494415 58.13678813404138 57.58743819813221 56.796374290423 56.22505035707746 55.47793444424098 54.70884453396813 53.91778062625893 53.170664713422454 52.423548800585976 51.91814685954954 50.62168101080388 50.204175059512906 49.610877128731005 49.01757919794909 48.51217725691265 47.76506134407617 47.061893426112434 46.468595495330526 45.89727156198498 45.43581761582128 44.820545687603 44.205273759384724 43.74381981322102 43.150521882439115 42.35945797472991 41.9639260208753 41.52444607214796 41.15088811572972 40.55759018494781 39.986266251602274 39.524812305438566 38.88756637978392 38.53598242080205 38.05255447720198 37.65702252334737 37.4372825489837 37.2395165720564 36.843984618201794 36.668192638710856 36.404504669474456 36.20673869254715 36.052920710492586 35.87712873100165 35.61344076176525 35.45962277971068 35.26185680278337 35.13001281816517 34.86632484892877 34.66855887200147 34.31697491301959 34.075260941219554 33.92144295916499 33.74565097967405 33.503937007874015 33.306171030946714 33.020509064273945 32.866691082219376 32.646951107855706 32.40523713605567 32.185497161692 32.00970518220106 31.636147225782825 31.46035524629189 31.196667277055482 31.020875297564547 30.757187328328143 30.51547335652811 30.339681377037174 30.119941402673504 29.900201428309835 29.76835744369163 29.504669474455227 29.306903497527927 29.109137520600623 28.84544955136422 28.69163156930965 28.449917597509614 28.34004761032778 28.18622962827321 27.96648965390954 27.856619666727706 27.570957700054933 27.461087712873102 27.241347738509432 27.17542574620033 27.065555759018494 27.02160776414576 26.999633766709394 26.97765976927303 26.999633766709394 27.02160776414576 27.02160776414576 27.02160776414576 26.97765976927303 26.97765976927303 26.933711774400294 26.933711774400294 26.933711774400294 26.933711774400294 26.933711774400294 26.933711774400294 26.911737776963925 26.911737776963925 26.88976377952756 26.88976377952756 26.867789782091194 26.845815784654825 26.82384178721846 26.80186778978209 26.779893792345725 26.779893792345725 26.757919794909355 26.73594579747299 26.73594579747299 26.73594579747299 26.73594579747299 26.73594579747299 26.73594579747299 26.73594579747299 26.73594579747299 26.713971800036624 26.73594579747299 26.713971800036624 26.713971800036624 26.713971800036624 26.713971800036624 26.713971800036624 26.713971800036624 26.691997802600255 26.691997802600255 26.691997802600255 26.67002380516389 26.67002380516389 26.67002380516389 26.67002380516389 26.67002380516389 26.67002380516389 26.67002380516389 26.67002380516389 26.67002380516389 26.648049807727524 26.648049807727524 26.648049807727524 26.67002380516389 26.67002380516389 26.67002380516389 26.648049807727524 26.67002380516389 26.67002380516389 26.67002380516389 26.648049807727524 26.648049807727524 26.648049807727524 26.648049807727524 26.648049807727524 26.648049807727524 26.648049807727524 26.648049807727524 26.626075810291155 26.626075810291155 26.648049807727524 26.626075810291155 26.648049807727524 26.626075810291155 26.626075810291155 26.626075810291155 26.648049807727524 26.626075810291155 26.648049807727524 26.626075810291155 26.648049807727524 26.648049807727524 26.626075810291155 26.626075810291155 26.626075810291155 26.626075810291155 26.626075810291155 26.626075810291155 26.626075810291155 26.626075810291155 26.626075810291155 26.626075810291155 26.626075810291155 26.626075810291155 26.626075810291155 26.626075810291155 26.626075810291155 26.626075810291155 26.626075810291155 26.626075810291155 26.626075810291155 26.626075810291155 26.626075810291155 26.626075810291155 26.626075810291155 26.626075810291155 26.626075810291155 26.626075810291155 26.626075810291155 26.626075810291155 26.626075810291155 26.626075810291155 26.626075810291155 26.626075810291155 26.626075810291155 26.626075810291155 26.626075810291155 26.60410181285479 26.626075810291155 26.626075810291155 26.626075810291155 26.626075810291155 26.626075810291155 26.626075810291155 26.60410181285479 26.626075810291155 26.60410181285479 26.626075810291155 26.626075810291155 26.60410181285479 26.60410181285479 26.626075810291155 26.626075810291155 26.60410181285479 26.60410181285479 26.626075810291155 26.60410181285479 26.626075810291155 26.626075810291155 26.626075810291155 26.626075810291155 26.60410181285479 26.626075810291155 26.626075810291155 26.60410181285479 26.626075810291155 26.626075810291155 26.626075810291155 26.60410181285479 26.626075810291155 26.626075810291155 26.626075810291155 26.626075810291155 26.60410181285479 26.626075810291155 26.626075810291155 26.60410181285479 26.626075810291155 26.626075810291155 26.60410181285479 26.626075810291155 26.626075810291155 26.60410181285479 26.626075810291155 26.60410181285479 26.60410181285479 26.60410181285479 26.60410181285479 26.626075810291155 26.60410181285479 26.626075810291155 26.60410181285479 26.60410181285479 26.626075810291155 26.60410181285479 26.626075810291155 26.626075810291155 26.626075810291155 26.60410181285479 26.60410181285479 26.60410181285479 26.626075810291155 26.60410181285479 26.60410181285479 26.60410181285479 26.60410181285479 26.626075810291155 26.60410181285479 26.60410181285479 26.60410181285479 26.60410181285479 26.60410181285479 26.60410181285479 26.626075810291155 26.60410181285479 26.60410181285479 26.626075810291155 26.626075810291155 26.626075810291155 26.626075810291155 26.60410181285479 26.60410181285479 26.626075810291155 26.626075810291155 26.60410181285479 26.626075810291155 26.60410181285479 26.626075810291155 26.626075810291155 26.626075810291155 26.626075810291155 26.626075810291155 26.626075810291155 26.626075810291155 26.626075810291155 26.648049807727524 26.648049807727524 26.648049807727524 26.648049807727524 26.67002380516389 26.691997802600255 26.691997802600255 26.73594579747299 26.80186778978209 26.845815784654825 26.911737776963925 26.95568577183666 27.04358176158213 27.131477751327594 27.219373741073063 27.351217725691264 27.570957700054933 27.74674967954587 27.90056766160044 28.09833363852774 28.40596960263688 28.75755356161875 29.065189525727888 29.372825489837027 29.746383446255265 30.032045412928035 30.625343343709943 30.954953305255447 31.37245925654642 31.78996520783739 32.09760117194653 32.55905511811024 32.84471708478301 33.262223036073976 33.723676982237684 34.11920893609229 34.7125068668742 35.19593481047427 35.59146676432888 36.09686870536532 36.316608679728986 37.08569859000183 37.5032045412928 37.89873649514741 38.53598242080205 39.107306354147596 39.5687603003113 40.074162241347736 40.35982420802051 40.84325215162058 41.72221204907526 42.13971800036623 42.864859915766345 43.52407983885735 44.007507782457424 44.71067570042116 45.17212964658488 45.89727156198498 46.51254349020326 47.061893426112434 47.63321735945797 48.31441127998535 48.79783922358543 49.76469511078557 49.984435085149244 50.55575901849478 51.19300494414942 51.72038088262223 52.3356528108405 53.214612708295185 53.588170664713424 54.18146859549533 54.86266251602271 55.47793444424098 56.00531038271379 56.57663431605933 57.56546420069584 58.13678813404138 58.70811206738693 59.41127998535067 59.960629921259844 61.03735579564182 62.22395165720564 62.927119575169385 63.542391503387655 64.22358542391504 64.92675334187878 66.22321919062443 67.05823109320637 67.71745101629739 68.42061893426111 69.05786485991577 70.50814869071598 71.14539461637062 71.78264054202528 72.57370444973449 73.14502838308002 73.65043032411646 74.48544222669841 75.10071415491669 75.97967405237137 76.46310199597144 76.83665995238968 77.32008789598976 77.71561984984436 78.2210217908808 78.72642373191724 79.1439296832082 79.60538362937191 80.13275956784472 80.46236952939023 80.90184947811755 81.25343343709943 81.86870536531771 82.24226332173595 82.57187328328145 83.05530122688153 83.36293719099066 83.802417139718 84.24189708844534 84.5275590551181 84.81322102179088 85.31862296282733 85.69218091924556 85.91192089360922 86.1316608679729 86.41732283464567 86.7908807910639 86.87877678080937 87.16443874748215 87.40615271928218 87.55997070133675 87.80168467313679 87.99945065006409 88.32906061160959 88.57077458340964 88.6586705731551 88.76854056033693 88.9223585423915 89.0542025270097 89.16407251419155 89.20802050906427 89.25196850393701 89.25196850393701 89.25196850393701 89.25196850393701 89.18604651162791 89.03222852957333 88.74656656290057 88.50485259110053 88.08734663980957 87.60391869620949 87.07654275773669 86.68101080388207 86.32942684490021 85.51638893975462 85.14283098333638 84.70335103460906 83.82439113715438 83.09924922175426 82.57187328328145 81.84673136788135 81.25343343709943 80.72605749862663 79.86907159860831 79.34169566013551 78.6165537447354 77.89141182933528 77.34206189342612 76.30928401391687 75.86980406518953 74.92492217542575 74.41952023438931 73.80424830617103 72.9692364035891 72.04632851126168 71.3651345907343 70.26643471891595 69.67313678813403 68.99194286760667 68.04706097784288 67.47573704449735 66.61875114447903 65.52005127266068 64.641091375206 64.02581944698773 63.476469511078555 62.905145577733016 62.00421168284197 61.21314777513276 60.75169382896905 60.070499908441676 59.60904596227797 58.9937740340597 58.42245010071415 57.80717817249588 57.104010254532135 56.598608313495696 55.917414392968325 55.21424647500458 54.70884453396813 54.02765061344076 53.61014466214979 53.060794726240616 52.53341878776781 52.1378868339132 51.149056949276684 50.92931697491302 50.336019044131106 49.786669108221936 49.171397180003666 48.84178721845816 48.18256729536715 47.91887932613075 47.65519135689434 47.36952939022157 46.776231459439664 46.44662149789416 46.13898553378502 45.69950558505768 45.17212964658488 44.79857169016664 44.24922175425746 43.787767808093754 43.106573887566384 42.733015931148145 42.293535982420806 41.76616004394799 41.26075810291155 40.75535616187511 40.315876213147774 40.008240249038636 39.590734297747666 39.239150338765796 38.97546236952939 38.73374839772936 38.36019044131112 38.11847646951108 37.78886650796557 37.5691265336019 37.2395165720564 36.712140633583594 36.44845266434719 36.250686687419886 35.921076725874386 35.72331074894708 35.43764878227431 35.21790880791064 34.8443508514924 34.53671488738326 34.31697491301959 34.11920893609229 33.83354696941952 33.635780992492215 33.152353048892145 32.91063907709211 32.42721113349204 32.185497161692 31.94378318989196 31.702069218091925 31.30653726423732 31.08679728987365 30.823109320637247 30.625343343709943 30.383629371909905 30.163889397546235 29.966123420618935 29.76835744369163 29.63651345907343 29.460721479582496 29.219007507782457 29.043215528291523 28.77952755905512 28.47189159494598 28.31807361289141 28.142281633400476 27.988463651345906 27.702801684673137 27.548983702618568 27.351217725691264 27.131477751327594 26.97765976927303 26.933711774400294 26.88976377952756 26.88976377952756 26.88976377952756 26.88976377952756 26.88976377952756 26.867789782091194 26.867789782091194 26.867789782091194 26.867789782091194 26.867789782091194 26.867789782091194 26.867789782091194 26.867789782091194 26.867789782091194 26.867789782091194 26.845815784654825 26.82384178721846 26.82384178721846 26.82384178721846 26.80186778978209 26.80186778978209 26.779893792345725 26.779893792345725 26.757919794909355 26.757919794909355 26.73594579747299 26.713971800036624 26.713971800036624 26.713971800036624 26.713971800036624 26.713971800036624 26.713971800036624 26.691997802600255 26.691997802600255 26.691997802600255 26.691997802600255 26.691997802600255 26.691997802600255 26.691997802600255 26.691997802600255 26.691997802600255 26.67002380516389 26.691997802600255 26.691997802600255 26.691997802600255 26.691997802600255 26.67002380516389 26.67002380516389 26.67002380516389 26.691997802600255 26.67002380516389 26.67002380516389 26.67002380516389 26.67002380516389 26.67002380516389 26.67002380516389 26.67002380516389 26.67002380516389 26.648049807727524 26.67002380516389 26.67002380516389 26.648049807727524 26.67002380516389 26.648049807727524 26.67002380516389 26.648049807727524 26.648049807727524 26.648049807727524 26.648049807727524 26.648049807727524 26.648049807727524 26.648049807727524 26.648049807727524 26.648049807727524 26.648049807727524 26.648049807727524 26.648049807727524 26.648049807727524 26.626075810291155 26.648049807727524 26.648049807727524 26.648049807727524 26.648049807727524 26.648049807727524 26.648049807727524 26.648049807727524 26.648049807727524 26.626075810291155 26.626075810291155 26.648049807727524 26.626075810291155 26.626075810291155 26.626075810291155 26.626075810291155 26.626075810291155 26.626075810291155 26.626075810291155 26.626075810291155 26.626075810291155 26.626075810291155 26.626075810291155 26.626075810291155 26.626075810291155 26.626075810291155 26.626075810291155 26.626075810291155 26.626075810291155 26.626075810291155 26.626075810291155 26.626075810291155 26.626075810291155 26.626075810291155 26.626075810291155 26.626075810291155 26.626075810291155 26.626075810291155 26.626075810291155 26.626075810291155 26.626075810291155 26.626075810291155 26.626075810291155 26.626075810291155 26.626075810291155 26.626075810291155 26.626075810291155 26.626075810291155 26.626075810291155 26.626075810291155 26.626075810291155 26.626075810291155 26.626075810291155 26.626075810291155 26.60410181285479 26.626075810291155 26.626075810291155 26.60410181285479 26.626075810291155 26.60410181285479 26.60410181285479 26.60410181285479 26.626075810291155 26.60410181285479 26.60410181285479 26.60410181285479 26.60410181285479 26.626075810291155 26.60410181285479 26.60410181285479 26.60410181285479 26.60410181285479 26.626075810291155 26.60410181285479 26.60410181285479 26.60410181285479 26.60410181285479 26.60410181285479 26.60410181285479 26.60410181285479 26.60410181285479 26.60410181285479 26.60410181285479 26.60410181285479 26.60410181285479 26.626075810291155 26.60410181285479 26.60410181285479 26.60410181285479 26.60410181285479 26.60410181285479 26.60410181285479 26.60410181285479 26.60410181285479 26.60410181285479 26.60410181285479 26.60410181285479 26.60410181285479 26.60410181285479 26.60410181285479 26.60410181285479 26.60410181285479 26.60410181285479 26.60410181285479 26.60410181285479 26.60410181285479 26.60410181285479 26.60410181285479 26.60410181285479 26.626075810291155 26.626075810291155 26.60410181285479 26.60410181285479 26.60410181285479 26.60410181285479 26.60410181285479 26.60410181285479 26.626075810291155 26.60410181285479 26.626075810291155 26.626075810291155 26.60410181285479 26.626075810291155 26.60410181285479 26.60410181285479 26.60410181285479 26.60410181285479 26.626075810291155 26.60410181285479 26.626075810291155 26.626075810291155 26.60410181285479 26.626075810291155 26.626075810291155 26.60410181285479 26.626075810291155 26.626075810291155 26.626075810291155 26.626075810291155 26.626075810291155 26.648049807727524 26.648049807727524 26.67002380516389 26.691997802600255 26.713971800036624 26.779893792345725 26.845815784654825 26.95568577183666 27.087529756454863 27.219373741073063 27.395165720564 27.592931697491302 27.74674967954587 28.010437648782275 28.18622962827321 28.49386559238235 28.823475553927853 29.065189525727888 29.438747482146127 29.70243545138253 30.14191540010987 30.625343343709943 30.976927302691813 31.548251236037355 31.987731184764694 32.14154916681926 32.712873100164806 33.04248306171031 33.350119025819446 33.877494964292254 34.18513092840139 34.62461087712873 35.06409082585607 35.37172678996521 35.85515473356528 36.20673869254715 36.646218641274494 37.1735945797473 37.5032045412928 38.00860648232924 38.60190441311115 38.90954037722029 39.26112433620216 39.524812305438566 39.986266251602274 40.447720197765975 40.75535616187511 41.41457608496612 41.94195202343893 42.35945797472991 42.95275590551181 43.48013184398462 43.941585790148324 44.79857169016664 45.26002563633034 46.02911554660319 46.73228346456693 47.23768540560337 47.98480131843985 48.73191723127633 49.237319172312766 49.984435085149244 50.511811023622045 52.02801684673137 52.423548800585976 53.258560703167916 53.412378685222485 53.93975462369529 54.335286577549894 54.97253250320454 55.36806445705915 56.181102362204726 56.77440029298663 57.235854239150335 57.87310016480498 58.44442409815052 59.03772202893243 59.674967954587075 60.180369895623514 60.88353781358725 61.38893975462369 62.13605566746017 62.905145577733016 63.67423548800586 64.53122138802416 64.99267533418788 65.54202527009704 66.33308917780627 67.21204907526095 67.76139901117011 69.1018128547885 69.6951107855704 69.98077275224318 70.79381065738875 71.69474455227981 72.33199047793445 73.2329243728255 73.71635231642557 74.41952023438931 74.96887017029849 75.62809009338949 76.26533601904413 76.72678996520784 77.40798388573522 77.84746383446256 78.70444973448086 79.34169566013551 79.78117560886285 80.19868156015382 80.83592748580847 81.29738143197216 81.91265336019043 82.35213330891779 82.96740523713606 83.58267716535434 84.1979490935726 84.57150704999086 85.14283098333638 85.71415491668193 86.37337483977294 86.6590368064457 87.20838674235489 87.71378868339133 88.13129463468229 88.81248855520967 89.27394250137338 89.55960446804615 89.97711041933712 90.26277238600989 90.63633034242812 91.1197582860282 91.20765427577368 91.40542025270096 91.53726423731918 91.5812122321919 91.5812122321919 91.55923823475554 91.51529023988282 91.27357626808276 91.0538362937191 90.8560703167918 90.65830433986449 90.17487639626442 89.77934444240981 89.44973448086431 88.90038454495513 88.30708661417323 88.08734663980957 87.49404870902765 87.09851675517305 86.24153085515474 85.82402490386376 85.31862296282733 84.70335103460906 83.802417139718 83.0772752243179 82.57187328328145 82.11041933711775 81.67093938839041 81.16553744735396 80.68210950375389 79.82512360373559 79.18787767808094 78.4847097601172 78.0891778062626 77.84746383446256 77.18824391137156 76.26533601904413 75.78190807544406 75.10071415491669 74.39754623695293 73.8921442959165 73.1010803882073 72.57370444973449 71.78264054202528 71.01355063175242 70.50814869071598 69.7610327778795 68.92602087529757 68.09100897271563 67.29994506500641 66.99230910089727 66.22321919062443 65.1684673136788 64.9047793444424 64.13568943416956 63.16883354696942 62.68540560336935 62.00421168284197 61.7185497161692 60.86156381615089 60.224317890496245 59.872733931514375 59.1256180186779 58.75206006225966 58.35652810840505 57.76323017762314 57.34572422633217 56.796374290423 56.22505035707746 55.82951840322285 55.28016846731368 54.73081853140451 54.22541659036806 53.720014649331624 53.500274674967955 53.01684673136788 52.62131477751328 52.18183482878594 51.72038088262223 51.34682292620399 50.95129097234938 50.599707013367514 50.29207104925838 49.852591100531036 49.479033144112805 49.171397180003666 48.77586522614906 48.51217725691265 48.05072331074895 47.61124336202161 47.2816334004761 46.86412744918513 46.424647500457795 46.09503753891229 45.67753158762132 45.21607764145761 44.77659769273027 44.53488372093023 44.09540377220289 43.74381981322102 43.45815784654825 43.150521882439115 42.60117194652994 42.27156198498443 41.91997802600257 41.56839406702069 41.32668009522065 41.12891411829335 40.71140816700238 40.49166819263871 40.206006225965936 40.030214246475005 39.788500274674966 39.4369163156931 39.26112433620216 39.06335835927486 38.84361838491119 38.66782640542025 38.40413843618385 38.14045046694744 37.85478850027467 37.59110053103827 37.3054385643655 37.1076725874382 36.843984618201794 36.646218641274494 36.250686687419886 36.07489470792895 35.78923274125618 35.48159677714705 35.28383080021974 34.99816883354697 34.80040285661967 34.53671488738326 34.27302691814686 34.075260941219554 33.83354696941952 33.591832997619484 33.350119025819446 33.108405054019414 33.020509064273945 32.800769089910276 32.60300311298297 32.4491851309284 32.185497161692 31.96575718732833 31.74601721296466 31.57022523347372 31.43838124885552 31.174693279619117 30.954953305255447 30.713239333455412 30.471525361655374 30.14191540010987 29.8562534334371 29.570591466764327 29.372825489837027 29.043215528291523 28.64768357443692 28.38399560520051 28.16425563083684 27.90056766160044 27.724775682109502 27.614905694927668 27.548983702618568 27.505035707745833 27.461087712873102 27.417139718000367 27.417139718000367 27.373191723127633 27.351217725691264 27.351217725691264 27.329243728254898 27.285295733382164 27.197399743636698 27.131477751327594 27.04358176158213 26.95568577183666 26.911737776963925 26.88976377952756 26.88976377952756 26.867789782091194 26.867789782091194 26.867789782091194 26.845815784654825 26.845815784654825 26.80186778978209 26.80186778978209 26.80186778978209 26.779893792345725 26.779893792345725 26.779893792345725 26.73594579747299 26.73594579747299 26.713971800036624 26.713971800036624 26.691997802600255 26.67002380516389 26.648049807727524 26.648049807727524 26.626075810291155 26.626075810291155 26.626075810291155 26.626075810291155 26.60410181285479 26.60410181285479 26.60410181285479 26.60410181285479 26.60410181285479 26.626075810291155 26.626075810291155 26.60410181285479 26.60410181285479 26.60410181285479 26.60410181285479 26.60410181285479 26.58212781541842 26.60410181285479 26.58212781541842 26.58212781541842 26.58212781541842 26.560153817982055 26.58212781541842 26.58212781541842 26.560153817982055 26.58212781541842 26.58212781541842 26.58212781541842 26.58212781541842 26.560153817982055 26.560153817982055 26.560153817982055 26.560153817982055 26.560153817982055 26.560153817982055 26.560153817982055 26.538179820545686 26.560153817982055 26.560153817982055 26.560153817982055 26.538179820545686 26.560153817982055 26.538179820545686 26.538179820545686 26.538179820545686 26.538179820545686 26.51620582310932 26.51620582310932 26.51620582310932 26.51620582310932 26.494231825672955 26.494231825672955 26.494231825672955 26.494231825672955 26.472257828236586 26.494231825672955 26.472257828236586 26.494231825672955 26.472257828236586 26.472257828236586 26.472257828236586 26.472257828236586 26.472257828236586 26.472257828236586 26.472257828236586 26.472257828236586 26.472257828236586 26.472257828236586 26.472257828236586 26.472257828236586 26.472257828236586 26.472257828236586 26.45028383080022 26.472257828236586 26.45028383080022 26.472257828236586 26.472257828236586 26.45028383080022 26.45028383080022 26.45028383080022 26.45028383080022 26.45028383080022 26.45028383080022 26.45028383080022 26.45028383080022 26.45028383080022 26.45028383080022 26.472257828236586 26.45028383080022 26.45028383080022 26.45028383080022 26.472257828236586 26.45028383080022 26.45028383080022 26.472257828236586 26.45028383080022 26.472257828236586 26.472257828236586 26.472257828236586 26.472257828236586 26.45028383080022 26.472257828236586 26.472257828236586 26.472257828236586 26.472257828236586 26.472257828236586 26.45028383080022 26.472257828236586 26.472257828236586 26.45028383080022 26.472257828236586 26.472257828236586 26.472257828236586 26.472257828236586 26.472257828236586 26.472257828236586 26.472257828236586 26.472257828236586 26.472257828236586 26.472257828236586 26.472257828236586 26.472257828236586 26.472257828236586 26.472257828236586 26.472257828236586 26.472257828236586 26.472257828236586 26.45028383080022 26.45028383080022 26.45028383080022 26.472257828236586 26.472257828236586 26.45028383080022 26.45028383080022 26.45028383080022 26.45028383080022 26.45028383080022 26.45028383080022 26.45028383080022 26.45028383080022 26.45028383080022 26.45028383080022 26.45028383080022 26.45028383080022 26.45028383080022 26.45028383080022 26.45028383080022 26.45028383080022 26.472257828236586 26.472257828236586 26.472257828236586 26.494231825672955 26.494231825672955 26.51620582310932 26.560153817982055 26.58212781541842 26.626075810291155 26.67002380516389 26.713971800036624 26.80186778978209 26.911737776963925 26.999633766709394 27.131477751327594 27.219373741073063 27.373191723127633 27.592931697491302 27.74674967954587 28.010437648782275 28.31807361289141 28.55978758469145 28.91137154367332 29.262955502655192 29.61453946163706 30.185863394982604 30.51547335652811 30.86705731550998 31.196667277055482 31.833913202710125 32.29536714887384 32.646951107855706 33.174327046328514 33.657754989928584 34.075260941219554 34.53671488738326 34.86632484892877 35.37172678996521 35.921076725874386 36.250686687419886 36.778062625892694 37.261490569492764 37.59110053103827 38.05255447720198 38.36019044131112 38.79967039003846 39.39296832082036 39.722578282365866 40.140084233656836 40.447720197765975 40.88720014649331 41.30470609778429 41.48049807727523 42.07379600805713 42.53524995422084 42.864859915766345 43.348287859366415 43.85368980040286 44.22724775682109 44.6887017029848 45.23805163889398 45.67753158762132 46.07306354147592 46.424647500457795 46.93004944149423 47.67716535433071 48.11664530305805 48.46822926203992 48.90770921076726 49.742721113349205 50.35799304156748 50.79747299029482 51.43471891594946 52.04999084416774 52.48947079289508 53.14869071598608 53.61014466214979 54.00567661600439 54.90661051089544 55.41201245193188 56.15912836476836 56.9282182750412 57.54349020325947 58.46639809558689 59.10364402124153 59.652993957150706 60.114447903314414 60.641823841787215 61.41091375206006 61.9163156930965 63.212781541842155 63.784105475187694 64.3114814136605 64.88280534700604 65.49807727522432 66.06940120856986 67.1681010803882 67.93719099066105 68.64035890862479 69.5632668009522 70.53012268815235 71.25526460355246 72.06830250869804 72.70554843435269 73.6284563266801 74.17780626258927 75.07874015748033 76.11151803698957 76.77073796008057 77.25416590368064 77.89141182933528 78.4187877678081 79.16590368064458 79.69327961911739 80.39644753708112 81.36330342428127 81.89067936275407 82.35213330891779 82.96740523713606 83.45083318073613 84.08807910639078 84.76927302691814 85.36257095770006 85.95586888848196 86.37337483977294 86.94469877311849 87.51602270646401 87.91155466031863 88.43893059879144 88.81248855520967 89.36183849111885 89.88921442959166 90.24079838857352 90.70225233473722 91.14173228346456 91.53726423731918 92.10858817066472 92.48214612708296 93.03149606299212 93.5149240065922 94.02032594762865 94.32796191173779 94.67954587071965 95.05310382713789 95.33876579381067 95.53653177073797 95.69034975279253 95.86614173228347 95.93206372459257 95.9760117194653 95.99798571690167 95.9760117194653 95.9760117194653 95.99798571690167 95.99798571690167 95.99798571690167 95.9760117194653 95.95403772202894 95.93206372459257 95.88811572971983 95.80021973997437 95.69034975279253 95.47060977842887 95.27284380150155 95.18494781175609 94.85533785021059 94.67954587071965 94.34993590917415 94.10822193737411 94.02032594762865 93.75663797839223 93.49295000915583 93.27321003479217 92.89965207837392 92.48214612708296 92.02069218091924 91.69108221937374 91.40542025270096 91.09778428859184 90.61435634499176 90.328694378319 89.51565647317341 89.20802050906427 88.8564365500824 88.50485259110053 88.15326863211865 87.66984068851858 87.12049075260941 86.72495879875481 86.17560886284564 85.8020509064274 85.4065189525728 84.76927302691814 84.41768906793627 84.0001831166453 83.56070316791798 83.23109320637246 82.68174327046329 82.35213330891779 81.89067936275407 81.40725141915401 81.09961545504487 80.61618751144479 80.08881157297199 79.62735762680828 79.1439296832082 78.81431972166271 78.50668375755356 78.02325581395348 77.67167185497162 77.1442959164988 76.57297198315328 76.04559604468047 75.47427211133493 75.12268815235305 74.77110419337117 74.0239882805347 73.6284563266801 73.16700238051638 72.81541842153452 72.24409448818898 71.67277055484342 71.18934261124336 70.66196667277055 69.84892876762498 69.4973448086431 68.99194286760667 68.53048892144295 67.91521699322467 67.10217908807911 66.68467313678813 66.02545321369712 65.60794726240616 64.97070133675152 64.35542940853324 64.09174143929684 62.971067570042116 62.55356161875115 62.0481596777147 61.45486174693279 60.81761582127815 60.312213880241714 59.76286394433254 59.367331990477936 58.8619300494415 58.37850210584142 58.04889214429592 57.609412195568574 57.191906244277604 56.752426295550265 56.488738326313864 56.049258377586526 55.60977842885919 55.25819446987731 54.97253250320454 54.44515656473173 53.98370261856803 53.61014466214979 52.88500274674968 52.48947079289508 51.9401208569859 51.36879692364036 50.95129097234938 50.314045046694744 49.742721113349205 49.303241164621866 48.77586522614906 48.38033327229445 47.76506134407617 47.039919428676065 46.57846548251236 45.985167551730456 45.50173960813038 45.06225965940304 44.38106573887566 44.007507782457424 43.633949826039185 43.150521882439115 42.82091192089361 42.33748397729354 42.1616919978026 41.54642006958433 41.06299212598425 40.71140816700238 40.249954220838674 39.7665262772386 39.4369163156931 38.86559238234756 38.62387841054752 38.20637245925654 37.94268449002014 37.67899652078374 37.3054385643655 36.822010620765425 36.58029664896539 36.22871268998352 36.00897271561985 35.74528474638345 35.43764878227431 35.23988280534701 34.82237685405603 34.51474088994689 34.22907892327412 34.009338948910454 33.855520966855885 33.657754989928584 33.39406702069218 33.218275041201245 32.97656106940121 32.734847097601175 32.5151071232375 32.33931514374657 32.14154916681926 31.87786119758286 31.636147225782825 31.43838124885552 31.15271928218275 30.889031312946347 30.713239333455412 30.317707379600805 30.097967405237135 29.900201428309835 29.526643471891596 29.350851492400658 29.19703351034609 28.889397546236953 28.77952755905512 28.62570957700055 28.53781358725508 28.49386559238235 28.362021607764145 28.296099615455045 28.18622962827321 28.12030763596411 28.010437648782275 27.90056766160044 27.768723676982237 27.702801684673137 27.548983702618568 27.461087712873102 27.285295733382164 27.153451748763963 26.97765976927303 26.867789782091194 26.82384178721846 26.80186778978209 26.779893792345725 26.779893792345725 26.779893792345725 26.757919794909355 26.73594579747299 26.73594579747299 26.73594579747299 26.757919794909355 26.757919794909355 26.757919794909355 26.757919794909355 26.757919794909355 26.757919794909355 26.73594579747299 26.73594579747299 26.73594579747299 26.73594579747299 26.73594579747299 26.713971800036624 26.713971800036624 26.713971800036624 26.713971800036624 26.691997802600255 26.691997802600255 26.691997802600255 26.691997802600255 26.691997802600255 26.691997802600255 26.691997802600255 26.691997802600255 26.691997802600255 26.691997802600255 26.67002380516389 26.67002380516389 26.67002380516389 26.648049807727524 26.648049807727524 26.626075810291155 26.626075810291155 26.626075810291155 26.60410181285479 26.60410181285479 26.60410181285479 26.60410181285479 26.60410181285479 26.60410181285479 26.60410181285479 26.60410181285479 26.60410181285479 26.60410181285479 26.60410181285479 26.60410181285479 26.60410181285479 26.60410181285479 26.60410181285479 26.60410181285479 26.60410181285479 26.60410181285479 26.60410181285479 26.60410181285479 26.60410181285479 26.60410181285479 26.60410181285479 26.60410181285479 26.60410181285479 26.60410181285479 26.60410181285479 26.60410181285479 26.60410181285479 26.60410181285479 26.58212781541842 26.60410181285479 26.58212781541842 26.60410181285479 26.60410181285479 26.58212781541842 26.60410181285479 26.60410181285479 26.58212781541842 26.58212781541842 26.60410181285479 26.60410181285479 26.60410181285479 26.60410181285479 26.60410181285479 26.60410181285479 26.58212781541842 26.60410181285479 26.60410181285479 26.60410181285479 26.60410181285479 26.60410181285479 26.58212781541842 26.60410181285479 26.60410181285479 26.60410181285479 26.60410181285479 26.60410181285479 26.60410181285479 26.60410181285479 26.60410181285479 26.60410181285479 26.60410181285479 26.60410181285479 26.60410181285479 26.58212781541842 26.60410181285479 26.60410181285479 26.60410181285479 26.60410181285479 26.58212781541842 26.60410181285479 26.58212781541842 26.60410181285479 26.60410181285479 26.58212781541842 26.60410181285479 26.60410181285479 26.60410181285479 26.60410181285479 26.60410181285479 26.60410181285479 26.58212781541842 26.60410181285479 26.60410181285479 26.60410181285479 26.60410181285479 26.58212781541842 26.60410181285479 26.58212781541842 26.58212781541842 26.60410181285479 26.60410181285479 26.60410181285479 26.58212781541842 26.58212781541842 26.58212781541842 26.60410181285479 26.58212781541842 26.58212781541842 26.60410181285479 26.58212781541842 26.60410181285479 26.60410181285479 26.60410181285479 26.60410181285479 26.60410181285479 26.58212781541842 26.58212781541842 26.58212781541842 26.58212781541842 26.60410181285479 26.58212781541842 26.60410181285479 26.60410181285479 26.58212781541842 26.58212781541842 26.58212781541842 26.60410181285479 26.60410181285479 26.58212781541842 26.58212781541842 26.58212781541842 26.58212781541842 26.58212781541842 26.58212781541842 26.58212781541842 26.58212781541842 26.58212781541842 26.58212781541842 26.58212781541842 26.60410181285479 26.58212781541842 26.60410181285479 26.60410181285479 26.60410181285479 26.60410181285479 26.626075810291155 26.67002380516389 26.713971800036624 26.82384178721846 26.911737776963925 27.10950375389123 27.395165720564 27.614905694927668 27.96648965390954 28.230177623145945 28.64768357443692 29.131111518036988 29.460721479582496 29.944149423182566 30.471525361655374 30.86705731550998 31.394433253982786 31.833913202710125 32.55905511811024 32.932613074528476 33.32814502838308 33.83354696941952 34.33894891045596 34.69053286943783 35.15198681560154 35.50357077458341 35.96502472074712 36.426478666910825 36.909906610510895 37.3713605566746 37.74491851309284 38.20637245925654 38.71177440029299 39.06335835927486 39.6346822926204 40.206006225965936 40.68943416956601 41.19483611060245 41.81010803882073 42.24958798754807 42.88683391320271 43.348287859366415 43.96355978758469 44.57883171580296 44.97436366965757 45.56766160043948 46.380699505585056 46.86412744918513 47.30360739791247 47.76506134407617 48.31441127998535 48.92968320820363 49.610877128731005 50.248123054385644 50.75352499542208 51.39077092107672 52.006042849295 52.423548800585976 53.01684673136788 53.588170664713424 54.071598608313494 54.64292254165903 55.08240249038637 55.71964841604102 56.77440029298663 57.27980223402307 57.74125618018678 58.22468412378685 58.70811206738693 59.3233839956052 59.56509796740524 60.422083867423545 61.05932979307819 61.5207837392419 61.93828969053287 62.61948361106025 63.080937557223955 64.1137154367332 64.53122138802416 65.30031129829702 66.02545321369712 66.5748031496063 67.08020509064274 68.09100897271563 68.72825489837027 69.34352682658854 69.8269547701886 70.59604468046146 71.27723860098882 72.06830250869804 72.52975645486175 73.27687236769822 73.8921442959165 74.44149423182567 74.92492217542575 75.62809009338949 76.5509979857169 77.03442592931697 77.53982787035342 78.19904779344444 78.92418970884452 79.42959164988098 80.15473356528108 80.70408350119027 81.58304339864495 81.80278337300861 82.48397729353599 83.05530122688153 83.58267716535434 84.02215711408166 84.43966306537266 85.01098699871818 85.58231093206373 86.04376487822742 86.63706280900934 87.03259476286395 87.88958066288225 88.30708661417323 89.01025453213697 89.49368247573705 90.15290239882806 90.83409631935542 91.47134224501008 91.66910822193738 92.48214612708296 93.1853140450467 93.60281999633767 93.86650796557407 94.21809192455594 94.48177989379235 94.83336385277421 95.11902581944699 95.31679179637429 95.49258377586523 95.6464017579198 95.80021973997437 95.95403772202894 96.01995971433803 96.08588170664714 96.08588170664714 96.08588170664714 96.01995971433803 95.84416773484709 95.5145577733016 95.11902581944699 94.87731184764695 94.30598791430141 94.08624793993773 93.42702801684673 92.89965207837392 92.50412012451932 91.88884819630104 91.29555026551914 90.8560703167918 90.28474638344626 89.86724043215528 89.29591649880975 88.74656656290057 88.32906061160959 87.77971067570043 87.05456876030031 86.68101080388207 86.1316608679729 85.6702069218092 85.27467496795458 84.79124702435452 83.9342611243362 83.49478117560886 82.85753524995422 82.37410730635415 81.69291338582677 81.18751144479035 80.48434352682659 79.71525361655375 79.16590368064458 78.4187877678081 77.73759384728072 77.05639992675334 76.00164804980773 75.47427211133493 74.94689617286213 74.19978026002565 73.67240432155283 72.90331441127998 72.39791247024354 71.4969785753525 70.88170664713422 70.37630470609778 69.87090276506135 69.47537081120674 69.03589086247939 68.24482695477019 67.67350302142464 67.12415308551547 66.66269913935176 66.28914118293352 65.91558322651528 65.23438930598792 64.9047793444424 64.5751693828969 64.20161142647866 63.696209485442225 63.16883354696942 62.59750961362388 62.22395165720564 61.5207837392419 61.03735579564182 60.75169382896905 60.378135872550814 59.916681926387106 59.3233839956052 58.94982603918696 58.62021607764146 58.18073612891412 57.69730818531404 57.21388024171397 56.9282182750412 56.488738326313864 56.07123237502289 55.78557040835012 55.45596044680461 55.17029848013185 54.95055850576817 54.6648965390954 54.44515656473173 54.24739058780443 53.98370261856803 53.763962644204355 53.456326680095216 53.104742721113354 52.841054751876946 52.48947079289508 52.09393883904047 51.69840688518586 51.30287493133126 50.97326496978575 50.73155099798572 50.46786302874931 49.940487090276505 49.50100714154917 49.171397180003666 48.73191723127633 48.29243728254899 47.69913935176707 47.43545138253067 47.30360739791247 46.842153451748764 46.402673503021425 46.02911554660319 45.65555759018495 45.06225965940304 44.7546236952939 44.44698773118476 44.11737776963926 43.655923823475554 43.040651895257284 42.733015931148145 42.293535982420806 41.87603003112983 41.54642006958433 41.17286211316609 40.99707013367515 40.33785021058414 40.074162241347736 39.810474272111335 39.4369163156931 39.107306354147596 38.84361838491119 38.33821644387475 38.14045046694744 37.85478850027467 37.635048525911 37.34938655923823 37.019776597692726 36.58029664896539 36.250686687419886 35.94305072331075 35.85515473356528 35.63541475920161 35.26185680278337 35.08606482329244 34.75645486174693 34.42684490020143 34.16315693096502 33.789598974546784 33.503937007874015 33.152353048892145 32.778795092473906 32.55905511811024 32.16352316425563 32.00970518220106 31.855887200146494 31.68009522065556 31.50430324116462 31.394433253982786 31.262589269364586 31.174693279619117 31.064823292437282 30.954953305255447 30.691265336019043 30.471525361655374 30.317707379600805 30.163889397546235 29.966123420618935 29.76835744369163 29.526643471891596 29.350851492400658 29.153085515473357 28.889397546236953 28.71360556674602 28.49386559238235 28.296099615455045 28.16425563083684 27.90056766160044 27.768723676982237 27.658853689800402 27.483061710309467 27.417139718000367 27.285295733382164 27.065555759018494 27.04358176158213 26.95568577183666 26.911737776963925 26.88976377952756 26.867789782091194 26.867789782091194 26.845815784654825 26.845815784654825 26.845815784654825 26.845815784654825 26.82384178721846 26.82384178721846 26.82384178721846 26.80186778978209 26.80186778978209 26.80186778978209 26.80186778978209 26.779893792345725 26.779893792345725 26.757919794909355 26.757919794909355 26.73594579747299 26.713971800036624 26.713971800036624 26.691997802600255 26.691997802600255 26.691997802600255 26.691997802600255 26.691997802600255 26.691997802600255 26.691997802600255 26.691997802600255 26.67002380516389 26.67002380516389 26.691997802600255 26.67002380516389 26.67002380516389 26.67002380516389 26.67002380516389 26.67002380516389 26.67002380516389 26.67002380516389 26.67002380516389 26.648049807727524 26.648049807727524 26.648049807727524 26.648049807727524 26.648049807727524 26.648049807727524 26.648049807727524 26.648049807727524 26.648049807727524 26.648049807727524 26.648049807727524 26.648049807727524 26.648049807727524 26.67002380516389 26.67002380516389 26.67002380516389 26.648049807727524 26.648049807727524 26.648049807727524 26.648049807727524 26.67002380516389 26.648049807727524 26.648049807727524 26.67002380516389 26.67002380516389 26.648049807727524 26.648049807727524 26.648049807727524 26.648049807727524 26.648049807727524 26.648049807727524 26.648049807727524 26.648049807727524 26.67002380516389 26.648049807727524 26.648049807727524 26.648049807727524 26.648049807727524 26.648049807727524 26.648049807727524 26.648049807727524 26.648049807727524 26.648049807727524 26.648049807727524 26.648049807727524 26.648049807727524 26.648049807727524 26.648049807727524 26.648049807727524 26.648049807727524 26.648049807727524 26.648049807727524 26.648049807727524 26.648049807727524 26.648049807727524 26.648049807727524 26.648049807727524 26.648049807727524 26.648049807727524 26.648049807727524 26.648049807727524 26.648049807727524 26.648049807727524 26.648049807727524 26.648049807727524 26.648049807727524 26.648049807727524 26.648049807727524 26.648049807727524 26.648049807727524 26.648049807727524 26.648049807727524 26.648049807727524 26.648049807727524 26.648049807727524 26.648049807727524 26.648049807727524 26.648049807727524 26.648049807727524 26.648049807727524 26.648049807727524 26.648049807727524 26.648049807727524 26.648049807727524 26.648049807727524 26.648049807727524 26.648049807727524 26.648049807727524 26.648049807727524 26.648049807727524 26.648049807727524 26.648049807727524 26.648049807727524 26.648049807727524 26.648049807727524 26.648049807727524 26.648049807727524 26.648049807727524 26.67002380516389 26.648049807727524 26.648049807727524 26.648049807727524 26.648049807727524 26.648049807727524 26.648049807727524 26.648049807727524 26.648049807727524 26.648049807727524 26.648049807727524 26.648049807727524 26.67002380516389 26.648049807727524 26.648049807727524 26.648049807727524 26.648049807727524 26.648049807727524 26.648049807727524 26.648049807727524 26.648049807727524 26.648049807727524 26.648049807727524 26.648049807727524 26.648049807727524 26.648049807727524 26.648049807727524 26.648049807727524 26.648049807727524 26.648049807727524 26.648049807727524 26.648049807727524 26.648049807727524 26.648049807727524 26.648049807727524 26.648049807727524 26.648049807727524 26.648049807727524 26.648049807727524 26.648049807727524 26.648049807727524 26.67002380516389 26.67002380516389 26.713971800036624 26.757919794909355 26.82384178721846 26.933711774400294 27.131477751327594 27.329243728254898 27.81267167185497 28.12030763596411 28.62570957700055 28.84544955136422 29.54861746932796 30.163889397546235 30.58139534883721 31.21864127449185 31.833913202710125 32.2514191540011 32.82274308734664 33.174327046328514 33.723676982237684 34.22907892327412 34.55868888481963 35.08606482329244 35.63541475920161 35.96502472074712 36.756088628456325 37.21754257462003 37.78886650796557 38.47006042849295 38.82164438747482 39.48086431056583 40.118110236220474 40.601538179820544 41.21681010803882 41.67826405420253 42.33748397729354 43.040651895257284 43.74381981322102 44.271195751693824 44.77659769273027 45.67753158762132 46.13898553378502 46.64438747482146 47.3475553927852 48.05072331074895 48.51217725691265 49.237319172312766 49.940487090276505 50.665629005676614 51.149056949276684 51.83025086980406 52.2697308185314 52.95092473905878 53.632118659586155 54.335286577549894 54.81871452114997 55.52188243911371 56.20307635964109 56.70847830067753 57.36769822376854 58.09284013916865 58.57626808276872 59.2574620032961 60.04852591100531 60.53195385460538 61.60867972898736 61.96026368796924 62.53158762131478 63.344625526460355 63.89397546236953 65.01464933162424 65.60794726240616 66.46493316242447 67.38784105475187 67.98113898553379 68.61838491118843 69.431422816334 70.02472074711591 71.21131660867974 71.82658853689802 72.68357443691632 73.562534334371 74.15583226515291 74.96887017029849 75.78190807544406 76.37520600622597 77.12232191906244 77.71561984984436 78.39681377037172 79.12195568577184 79.86907159860831 80.35249954220839 80.96777147042667 81.42922541659037 82.11041933711775 82.57187328328145 83.42885918329976 84.04413111151804 84.5275590551181 84.96703900384546 85.4065189525728 86.17560886284564 86.70298480131844 87.09851675517305 87.64786669108221 88.17524262955503 88.57077458340964 89.09815052188245 89.47170847830067 90.02105841420986 90.54843435268266 90.98791430141 91.4493682475737 91.93279619117378 92.46017212964658 92.9216260758103 93.09741805530123 93.49295000915583 93.99835195019227 94.21809192455594 94.45980589635599 94.76744186046513 94.89928584508333 95.00915583226515 95.03112982970153 95.03112982970153 95.03112982970153 95.00915583226515 94.87731184764695 94.61362387841055 94.32796191173779 94.06427394250137 93.7786119758286 93.383080021974 92.94360007324666 92.57004211682842 92.15253616553744 91.64713422450102 91.2516022706464 90.70225233473722 90.28474638344626 89.55960446804615 89.07617652444607 88.63669657571873 88.04339864493683 87.47207471159129 87.03259476286395 86.5271928218275 86.2635048525911 85.62625892693646 85.09888298846366 84.74729902948178 84.24189708844534 83.71452114997254 83.2091192089361 82.76963926020875 82.39608130379051 81.84673136788135 81.31935542940855 80.85790148324483 80.35249954220839 79.78117560886285 79.25379967039004 78.85826771653544 78.50668375755356 77.9573338216444 77.38600988829884 76.85863394982604 76.33125801135323 75.97967405237137 75.21058414209853 74.55136421900751 74.04596227797106 73.58450833180737 73.1010803882073 72.63962644204358 71.56290056766161 71.2332906061161 70.81578465482514 70.13459073429775 69.71708478300678 69.16773484709759 68.77220289324299 68.15693096502471 67.71745101629739 67.05823109320637 66.15729719831532 65.73979124702436 65.30031129829702 64.79490935726056 64.13568943416956 63.388573521333086 62.839223585423916 62.22395165720564 61.38893975462369 60.99340780076909 60.597875846914484 60.026551913568944 59.521149972532506 59.01574803149606 58.75206006225966 58.42245010071415 58.00494414942318 57.56546420069584 57.08203625709577 56.7304522981139 56.13715436733199 55.93938839040469 55.45596044680461 55.08240249038637 54.35726057498627 53.80791063907709 53.390404687786116 52.95092473905878 52.3356528108405 51.65445889031313 50.95129097234938 50.48983702618568 49.83061710309467 49.171397180003666 48.77586522614906 48.18256729536715 47.78703534151254 47.215711408167 46.688335469694195 46.314777513275956 45.80937557223952 45.34792162607581 45.0183116645303 44.44698773118476 44.18329976194836 43.941585790148324 43.655923823475554 43.370261856802784 43.08459989013001 42.776963926020876 42.55722395165721 42.24958798754807 42.00787401574803 41.70023805163889 41.34865409265702 41.10694012085699 40.77733015931148 40.42574620032961 40.184032228529574 39.854422266984066 39.612708295184035 39.28309833363853 38.95348837209302 38.75572239516572 38.42611243362022 38.00860648232924 37.87676249771104 37.54715253616554 37.28346456692913 36.975828602819995 36.646218641274494 36.316608679728986 36.03094671305622 35.76725874381981 35.59146676432888 35.30580479765611 35.13001281816517 34.9102728438015 34.66855887200147 34.49276689251053 34.25105292071049 34.009338948910454 33.855520966855885 33.61380699505585 33.525911005310384 33.32814502838308 33.064457059146676 32.866691082219376 32.60300311298297 32.27339315143747 32.00970518220106 31.68009522065556 31.43838124885552 31.196667277055482 30.845083318073613 30.471525361655374 30.07599340780077 29.812305438564366 29.394799487273392 29.087163523164257 28.84544955136422 28.64768357443692 28.296099615455045 28.142281633400476 28.010437648782275 27.944515656473172 27.87859366416407 27.87859366416407 27.90056766160044 27.87859366416407 27.856619666727706 27.834645669291337 27.768723676982237 27.68082768723677 27.461087712873102 27.285295733382164 27.153451748763963 27.02160776414576 26.845815784654825 26.779893792345725 26.713971800036624 26.713971800036624 26.73594579747299 26.73594579747299 26.73594579747299 26.713971800036624 26.713971800036624 26.713971800036624 26.691997802600255 26.691997802600255 26.691997802600255 26.691997802600255 26.67002380516389 26.67002380516389 26.67002380516389 26.648049807727524 26.648049807727524 26.648049807727524 26.648049807727524 26.626075810291155 26.626075810291155 26.60410181285479 26.60410181285479 26.60410181285479 26.60410181285479 26.60410181285479 26.60410181285479 26.60410181285479 26.60410181285479 26.60410181285479 26.60410181285479 26.60410181285479 26.60410181285479 26.60410181285479 26.58212781541842 26.58212781541842 26.58212781541842 26.58212781541842 26.58212781541842 26.58212781541842 26.58212781541842 26.560153817982055 26.58212781541842 26.560153817982055 26.58212781541842 26.560153817982055 26.560153817982055 26.560153817982055 26.560153817982055 26.58212781541842 26.560153817982055 26.560153817982055 26.560153817982055 26.560153817982055 26.560153817982055 26.560153817982055 26.58212781541842 26.560153817982055 26.58212781541842 26.58212781541842 26.58212781541842 26.560153817982055 26.560153817982055 26.560153817982055 26.58212781541842 26.560153817982055 26.560153817982055 26.58212781541842 26.560153817982055 26.560153817982055 26.58212781541842 26.560153817982055 26.560153817982055 26.560153817982055 26.560153817982055 26.560153817982055 26.560153817982055 26.560153817982055 26.560153817982055 26.560153817982055 26.560153817982055 26.560153817982055 26.560153817982055 26.560153817982055 26.560153817982055 26.560153817982055 26.560153817982055 26.560153817982055 26.560153817982055 26.560153817982055 26.560153817982055 26.560153817982055 26.560153817982055 26.560153817982055 26.560153817982055 26.560153817982055 26.560153817982055 26.560153817982055 26.560153817982055 26.560153817982055 26.560153817982055 26.560153817982055 26.560153817982055 26.560153817982055 26.560153817982055 26.560153817982055 26.560153817982055 26.560153817982055 26.560153817982055 26.560153817982055 26.560153817982055 26.560153817982055 26.560153817982055 26.560153817982055 26.560153817982055 26.560153817982055 26.560153817982055 26.58212781541842 26.560153817982055 26.560153817982055 26.560153817982055 26.560153817982055 26.560153817982055 26.560153817982055 26.560153817982055 26.560153817982055 26.560153817982055 26.560153817982055 26.560153817982055 26.560153817982055 26.560153817982055 26.560153817982055 26.560153817982055 26.560153817982055 26.560153817982055 26.560153817982055 26.560153817982055 26.560153817982055 26.560153817982055 26.560153817982055 26.560153817982055 26.560153817982055 26.560153817982055 26.560153817982055 26.560153817982055 26.560153817982055 26.560153817982055 26.560153817982055 26.560153817982055 26.560153817982055 26.58212781541842 26.560153817982055 26.560153817982055 26.560153817982055 26.560153817982055 26.560153817982055 26.560153817982055 26.560153817982055 26.560153817982055 26.560153817982055 26.560153817982055 26.560153817982055 26.560153817982055 26.560153817982055 26.538179820545686 26.560153817982055 26.538179820545686 26.538179820545686 26.560153817982055 26.560153817982055 26.560153817982055 26.538179820545686 26.560153817982055 26.560153817982055 26.560153817982055 26.560153817982055 26.560153817982055 26.560153817982055 26.560153817982055 26.538179820545686 26.560153817982055 26.560153817982055 26.538179820545686 26.560153817982055 26.560153817982055 26.560153817982055 26.560153817982055 26.560153817982055 26.560153817982055 26.58212781541842 26.58212781541842 26.60410181285479 26.60410181285479 26.73594579747299 26.82384178721846 26.911737776963925 27.04358176158213 27.197399743636698 27.351217725691264 27.614905694927668 27.790697674418606 28.076359641091376 28.449917597509614 28.84544955136422 29.262955502655192 29.658487456509796 30.032045412928035 30.405603369346274 30.647317341146312 31.196667277055482 31.702069218091925 32.07562717451016 32.47115912836477 32.932613074528476 33.284197033510345 33.635780992492215 33.89946896172862 34.33894891045596 34.73448086431057 35.10803882072881 35.48159677714705 35.78923274125618 36.250686687419886 36.975828602819995 37.3713605566746 37.7668925105292 38.33821644387475 38.93151437465666 39.546786302874935 39.986266251602274 40.667460172129644 41.37062809009339 41.87603003112983 42.57919794909357 43.348287859366415 43.91961179271196 44.6227797106757 45.12818165171214 46.117011536348656 46.57846548251236 47.061893426112434 48.00677531587621 48.55612525178539 48.99560520051273 49.808643105658305 50.84142098516755 51.03918696209485 51.45669291338582 52.357626808276876 52.863028749313315 53.302508698040654 53.654092657022524 54.18146859549533 54.57700054934993 55.30214246475005 55.65372642373192 56.049258377586526 56.64255630836843 57.257828236586704 57.69730818531404 58.44442409815052 58.81798205456876 59.82878593664164 60.641823841787215 60.92748580845999 61.63065372642373 62.37776963926021 62.94909357260575 63.762131477751325 64.53122138802416 65.62992125984252 66.15729719831532 67.03625709577 67.69547701886101 68.26680095220655 69.51931880607947 70.09064273942502 70.61801867789782 71.14539461637062 71.84856253433438 72.35396447537082 73.1010803882073 73.6284563266801 74.17780626258927 74.81505218824393 75.25453213697125 75.86980406518953 76.66086797289874 77.0783739241897 77.62772386009888 78.06720380882624 78.52865775498992 78.99011170115364 79.38564365500824 80.39644753708112 80.79197949093573 81.23145943966307 81.93462735762681 82.48397729353599 83.12122321919063 83.84636513459074 84.35176707562718 85.03296099615454 85.7361289141183 86.21955685771837 86.85680278337301 87.51602270646401 87.91155466031863 88.50485259110053 88.90038454495513 89.40578648599158 89.91118842702802 90.35066837575536 90.76817432704634 91.09778428859184 91.36147225782824 91.75700421168284 91.88884819630104 92.26240615271928 92.48214612708296 92.61399011170116 92.74583409631936 92.7897820911921 92.7897820911921 92.7897820911921 92.74583409631936 92.48214612708296 92.10858817066472 91.82292620399194 91.3834462552646 91.0538362937191 90.50448635780992 89.88921442959166 89.51565647317341 88.90038454495513 88.30708661417323 87.88958066288225 87.09851675517305 86.6590368064457 86.21955685771837 85.62625892693646 84.76927302691814 84.35176707562718 83.8683391320271 83.25306720380883 82.59384728071782 82.08844533968139 81.53909540377221 80.92382347555393 80.46236952939023 79.91301959348105 79.47353964475371 78.8802417139718 78.26496978575352 77.80351583958982 77.1442959164988 76.4850759934078 76.0895440395532 75.43032411646219 74.77110419337117 74.15583226515291 73.73832631386193 72.88134041384362 72.46383446255265 72.0243545138253 71.27723860098882 70.50814869071598 69.98077275224318 69.18970884453397 68.39864493682475 67.80534700604285 67.1681010803882 66.1133492034426 65.52005127266068 64.641091375206 63.95989745467863 63.16883354696942 61.82841970335103 61.16919978026002 60.663797839223584 60.180369895623514 59.740889946896175 59.2574620032961 58.57626808276872 57.82915216993224 57.125984251968504 56.620582310932065 56.07123237502289 55.30214246475005 54.35726057498627 53.93975462369529 53.478300677531585 52.863028749313315 52.006042849295 51.69840688518586 51.10510895440396 50.55575901849478 50.116279069767444 49.3471891594946 49.08350119025819 48.44625526460355 47.58926936458524 47.1497894158579 46.71030946713056 46.292803515839594 45.65555759018495 45.06225965940304 44.66672770554844 43.941585790148324 43.502105841420985 43.194469877311846 42.798937923457245 42.667093938839045 42.18366599523897 41.87603003112983 41.65629005676616 41.39260208752975 41.10694012085699 40.90917414392968 40.513642190075075 40.381798205456874 40.206006225965936 40.008240249038636 39.810474272111335 39.524812305438566 39.26112433620216 39.04138436183849 38.68980040285662 38.60190441311115 38.27229445156565 37.98663248489288 37.65702252334737 37.45925654642007 36.931880607947264 36.822010620765425 36.426478666910825 36.272660684856255 35.81120673869255 35.41567478483794 35.10803882072881 34.6465848745651 34.22907892327412 33.92144295916499 33.54788500274675 33.284197033510345 32.866691082219376 32.53708112067387 32.33931514374657 32.07562717451016 31.68009522065556 31.548251236037355 31.196667277055482 31.08679728987365 30.647317341146312 30.405603369346274 30.07599340780077 29.76835744369163 29.460721479582496 29.262955502655192 28.933345541109688 28.75755356161875 28.515839589818714 28.25215162058231 28.076359641091376 27.834645669291337 27.68082768723677 27.417139718000367 27.285295733382164 27.131477751327594 26.911737776963925 26.88976377952756 26.867789782091194 26.867789782091194 26.88976377952756 26.88976377952756 26.867789782091194 26.867789782091194 26.845815784654825 26.845815784654825 26.82384178721846 26.82384178721846 26.82384178721846 26.80186778978209 26.80186778978209 26.80186778978209 26.779893792345725 26.757919794909355 26.757919794909355 26.73594579747299 26.713971800036624 26.691997802600255 26.67002380516389 26.67002380516389 26.648049807727524 26.648049807727524 26.648049807727524 26.626075810291155 26.626075810291155 26.626075810291155 26.60410181285479 26.60410181285479 26.60410181285479 26.60410181285479 26.60410181285479 26.60410181285479 26.60410181285479 26.60410181285479 26.60410181285479 26.60410181285479 26.58212781541842 26.58212781541842 26.58212781541842 26.58212781541842 26.560153817982055 26.538179820545686 26.560153817982055 26.538179820545686 26.538179820545686 26.560153817982055 26.538179820545686 26.538179820545686 26.538179820545686 26.538179820545686 26.538179820545686 26.538179820545686 26.538179820545686 26.538179820545686 26.538179820545686 26.51620582310932 26.51620582310932 26.51620582310932 26.51620582310932 26.538179820545686 26.51620582310932 26.51620582310932 26.51620582310932 26.51620582310932 26.51620582310932 26.51620582310932 26.51620582310932 26.51620582310932 26.494231825672955 26.494231825672955 26.494231825672955 26.494231825672955 26.472257828236586 26.472257828236586 26.472257828236586 26.472257828236586 26.472257828236586 26.472257828236586 26.472257828236586 26.472257828236586 26.45028383080022 26.45028383080022 26.45028383080022 26.45028383080022 26.45028383080022 26.45028383080022 26.45028383080022 26.45028383080022 26.42830983336385 26.42830983336385 26.42830983336385 26.42830983336385 26.42830983336385 26.42830983336385 26.406335835927486 26.406335835927486 26.406335835927486 26.406335835927486 26.406335835927486 26.406335835927486 26.38436183849112 26.38436183849112 26.38436183849112 26.38436183849112 26.38436183849112 26.38436183849112 26.38436183849112 26.38436183849112 26.38436183849112 26.38436183849112 26.38436183849112 26.38436183849112 26.38436183849112 26.38436183849112 26.38436183849112 26.38436183849112 26.38436183849112 26.38436183849112 26.38436183849112 26.38436183849112 26.38436183849112 26.38436183849112 26.38436183849112 26.38436183849112 26.38436183849112 26.38436183849112 26.38436183849112 26.38436183849112 26.38436183849112 26.38436183849112 26.38436183849112 26.38436183849112 26.38436183849112 26.38436183849112 26.38436183849112 26.38436183849112 26.38436183849112 26.38436183849112 26.38436183849112 26.38436183849112 26.38436183849112 26.38436183849112 26.38436183849112 26.38436183849112 26.38436183849112 26.38436183849112 26.38436183849112 26.38436183849112 26.38436183849112 26.38436183849112 26.38436183849112 26.38436183849112 26.38436183849112 26.38436183849112 26.38436183849112 26.38436183849112 26.36238784105475 26.38436183849112 26.38436183849112 26.38436183849112 26.38436183849112 26.38436183849112 26.38436183849112 26.36238784105475 26.38436183849112 26.38436183849112 26.38436183849112 26.38436183849112 26.36238784105475 26.36238784105475 26.36238784105475 26.38436183849112 26.38436183849112 26.36238784105475 26.38436183849112 26.38436183849112 26.38436183849112 26.36238784105475 26.36238784105475 26.38436183849112 26.38436183849112 26.38436183849112 26.38436183849112 26.38436183849112 26.36238784105475 26.38436183849112 26.38436183849112 26.36238784105475 26.36238784105475 26.36238784105475 26.36238784105475 26.36238784105475 26.36238784105475 26.36238784105475 26.36238784105475 26.36238784105475 26.36238784105475 26.36238784105475 26.36238784105475 26.36238784105475 26.36238784105475 26.36238784105475 26.36238784105475 26.36238784105475 26.340413843618386 26.340413843618386 26.36238784105475 26.36238784105475 26.36238784105475 26.36238784105475 26.36238784105475 26.36238784105475 26.36238784105475 26.36238784105475 26.36238784105475 26.36238784105475 26.38436183849112 26.38436183849112 26.406335835927486 26.472257828236586 26.560153817982055 26.648049807727524 26.911737776963925 27.065555759018494 27.307269730818533 27.702801684673137 27.988463651345906 28.515839589818714 29.240981505218826 29.63651345907343 30.163889397546235 30.58139534883721 30.954953305255447 31.59219923091009 31.767991210401025 32.4491851309284 32.778795092473906 33.284197033510345 33.89946896172862 34.141182933528654 34.53671488738326 35.0421168284197 35.37172678996521 35.83318073612892 36.20673869254715 36.712140633583594 37.2395165720564 37.8328145028383 38.33821644387475 38.68980040285662 39.06335835927486 39.7665262772386 40.052188243911374 40.513642190075075 41.17286211316609 41.74418604651163 42.18366599523897 42.97472990294818 43.414209851675515 43.85368980040286 44.46896172862113 45.0842336568394 45.76542757736678 46.22688152353049 46.79820545687603 47.457425379967034 47.96282732100348 48.62204724409449 49.369163156930966 49.89653909540377 50.577733015931145 51.17103094671306 51.6105108954404 52.44552279802234 52.928950741622415 53.390404687786116 53.98370261856803 54.73081853140451 55.36806445705915 55.85149240065922 56.356894341695664 57.21388024171397 57.71928218275041 58.37850210584142 58.75206006225966 59.367331990477936 59.960629921259844 60.509979857169014 61.08130379051456 61.69657571873283 62.13605566746017 62.773301593114816 63.498443508514924 63.95989745467863 64.92675334187878 65.41018128547884 65.95953122138803 66.48690715986083 67.23402307269731 68.06903497527925 68.99194286760667 69.65116279069767 70.11261673686138 70.59604468046146 71.34316059329794 71.56290056766161 72.4198864676799 73.14502838308002 73.54056033693463 74.17780626258927 74.79307819080753 75.45229811389855 75.91375206006227 76.46310199597144 76.85863394982604 77.45193188060796 77.89141182933528 78.46273576268084 79.25379967039004 79.671305621681 80.22065555759019 80.41842153451748 80.98974546786303 81.49514740889947 82.44002929866325 82.76963926020875 83.16517121406336 83.53872917048159 84.11005310382714 84.35176707562718 84.92309100897272 85.6702069218092 86.1316608679729 86.70298480131844 87.29628273210035 87.77971067570043 88.50485259110053 89.03222852957333 89.40578648599158 89.80131843984618 90.15290239882806 90.63633034242812 91.09778428859184 91.53726423731918 91.93279619117378 92.21845815784656 92.43819813221022 92.8557040835012 93.03149606299212 93.383080021974 93.49295000915583 93.60281999633767 93.66874198864677 93.73466398095587 93.7786119758286 93.7786119758286 93.80058597326497 93.80058597326497 93.80058597326497 93.80058597326497 93.7786119758286 93.73466398095587 93.62479399377403 93.55887200146493 93.42702801684673 93.1853140450467 93.00952206555576 92.8557040835012 92.5260941219557 92.28438015015564 92.08661417322836 91.40542025270096 91.03186229628274 90.74620032960996 90.43856436550082 90.04303241164622 89.55960446804615 89.18604651162791 88.6586705731551 87.91155466031863 87.71378868339133 87.09851675517305 86.6590368064457 85.9998168833547 85.36257095770006 84.87914301409998 84.17597509613624 83.40688518586339 82.85753524995422 81.82475737044497 81.20948544222671 80.44039553195387 79.95696758835379 79.07800769089911 78.5506317524263 77.75956784471708 76.9465299395715 76.19941402673503 75.49624610877129 74.92492217542575 74.22175425746201 73.71635231642557 72.94726240615272 72.1561984984435 71.69474455227981 70.9036806445706 70.33235671122506 69.21168284197034 68.09100897271563 67.71745101629739 67.10217908807911 66.39901117011536 65.49807727522432 64.641091375206 63.718183482878594 63.124885552096686 62.26789965207837 61.60867972898736 60.94945980589635 60.444057864859914 59.41127998535067 58.59824208020509 57.85112616736861 57.169932246841235 56.33492034425929 55.43398644936825 54.57700054934993 54.137520600622594 53.170664713422454 52.64328877494964 52.18183482878594 51.50064090825856 50.533785021058414 49.76469511078557 49.43508514924007 49.12744918513093 48.46822926203992 48.09467130562168 47.69913935176707 47.083867423548796 46.688335469694195 46.402673503021425 45.87529756454862 45.76542757736678 45.32594762863944 44.93041567478484 44.57883171580296 44.24922175425746 43.765793810657385 43.502105841420985 43.282365867057315 42.97472990294818 42.64511994140267 42.27156198498443 42.00787401574803 41.61234206189343 41.04101812854789 40.645486174693275 40.27192821827504 40.074162241347736 39.7006042849295 39.15125434902033 38.86559238234756 38.57993041567478 38.07452847463834 37.78886650796557 37.415308551547334 37.21754257462003 36.822010620765425 36.492400659219925 36.22871268998352 35.94305072331075 35.52554477201978 35.32777879509247 35.17396081303791 34.99816883354697 34.80040285661967 34.58066288225599 34.44881889763779 34.16315693096502 34.03131294634682 33.81157297198315 33.591832997619484 33.284197033510345 33.196301043764876 32.778795092473906 32.5151071232375 32.2514191540011 32.03167917963743 31.74601721296466 31.43838124885552 31.262589269364586 30.998901300128182 30.779161325764512 30.603369346273574 30.44955136421901 30.317707379600805 30.185863394982604 30.032045412928035 29.9221754257462 29.746383446255265 29.54861746932796 29.394799487273392 29.109137520600623 28.955319538546053 28.735579564182384 28.47189159494598 28.296099615455045 28.12030763596411 27.856619666727706 27.636879692364037 27.417139718000367 27.285295733382164 27.10950375389123 26.933711774400294 26.82384178721846 26.779893792345725 26.757919794909355 26.757919794909355 26.779893792345725 26.80186778978209 26.80186778978209 26.779893792345725 26.757919794909355 26.757919794909355 26.73594579747299 26.73594579747299 26.73594579747299 26.73594579747299 26.73594579747299 26.73594579747299 26.73594579747299 26.73594579747299 26.713971800036624 26.713971800036624 26.691997802600255 26.691997802600255 26.691997802600255 26.67002380516389 26.67002380516389 26.648049807727524 26.648049807727524 26.648049807727524 26.648049807727524 26.648049807727524 26.648049807727524 26.648049807727524 26.648049807727524 26.626075810291155 26.626075810291155 26.626075810291155 26.60410181285479 26.60410181285479 26.60410181285479 26.60410181285479 26.58212781541842 26.60410181285479 26.58212781541842 26.60410181285479 26.58212781541842 26.58212781541842 26.58212781541842 26.58212781541842 26.560153817982055 26.560153817982055 26.560153817982055 26.560153817982055 26.560153817982055 26.560153817982055 26.560153817982055 26.560153817982055 26.538179820545686 26.560153817982055 26.538179820545686 26.560153817982055 26.538179820545686 26.538179820545686 26.538179820545686 26.560153817982055 26.538179820545686 26.560153817982055 26.538179820545686 26.560153817982055 26.538179820545686 26.538179820545686 26.538179820545686 26.538179820545686 26.538179820545686 26.538179820545686 26.560153817982055 26.538179820545686 26.538179820545686 26.538179820545686 26.538179820545686 26.538179820545686 26.538179820545686 26.538179820545686 26.538179820545686 26.538179820545686 26.538179820545686 26.538179820545686 26.538179820545686 26.538179820545686 26.538179820545686 26.538179820545686 26.538179820545686 26.538179820545686 26.538179820545686 26.538179820545686 26.538179820545686 26.538179820545686 26.538179820545686 26.538179820545686 26.538179820545686 26.538179820545686 26.538179820545686 26.538179820545686 26.538179820545686 26.538179820545686 26.538179820545686 26.538179820545686 26.538179820545686 26.538179820545686 26.538179820545686 26.538179820545686 26.538179820545686 26.538179820545686 26.538179820545686 26.538179820545686 26.538179820545686 26.538179820545686 26.538179820545686 26.538179820545686 26.538179820545686 26.538179820545686 26.538179820545686 26.538179820545686 26.538179820545686 26.538179820545686 26.538179820545686 26.538179820545686 26.538179820545686 26.538179820545686 26.538179820545686 26.538179820545686 26.538179820545686 26.538179820545686 26.538179820545686 26.538179820545686 26.538179820545686 26.538179820545686 26.538179820545686 26.538179820545686 26.538179820545686 26.538179820545686 26.538179820545686 26.538179820545686 26.538179820545686 26.538179820545686 26.538179820545686 26.538179820545686 26.538179820545686 26.538179820545686 26.538179820545686 26.538179820545686 26.538179820545686 26.538179820545686 26.538179820545686 26.538179820545686 26.538179820545686 26.538179820545686 26.538179820545686 26.538179820545686 26.538179820545686 26.538179820545686 26.538179820545686 26.538179820545686 26.538179820545686 26.538179820545686 26.538179820545686 26.538179820545686 26.538179820545686 26.538179820545686 26.538179820545686 26.538179820545686 26.538179820545686 26.538179820545686 26.538179820545686 26.51620582310932 26.538179820545686 26.51620582310932 26.538179820545686 26.51620582310932 26.51620582310932 26.538179820545686 26.51620582310932 26.538179820545686 26.538179820545686 26.51620582310932 26.51620582310932 26.51620582310932 26.51620582310932 26.51620582310932 26.51620582310932 26.51620582310932 26.538179820545686 26.51620582310932 26.51620582310932 26.51620582310932 26.51620582310932 26.51620582310932 26.51620582310932 26.51620582310932 26.51620582310932 26.51620582310932 26.51620582310932 26.51620582310932 26.51620582310932 26.51620582310932 26.51620582310932 26.51620582310932 26.51620582310932 26.51620582310932 26.538179820545686 26.538179820545686 26.538179820545686 26.538179820545686 26.538179820545686 26.538179820545686 26.560153817982055 26.58212781541842 26.648049807727524 26.73594579747299 26.867789782091194 27.04358176158213 27.219373741073063 27.395165720564 27.724775682109502 28.010437648782275 28.62570957700055 28.955319538546053 29.438747482146127 29.966123420618935 30.537447353964474 31.064823292437282 31.41640725141915 31.78996520783739 32.29536714887384 32.82274308734664 33.196301043764876 33.635780992492215 34.11920893609229 34.40487090276506 34.99816883354697 35.15198681560154 35.61344076176525 36.16279069767442 36.690166636147225 37.261490569492764 37.65702252334737 38.05255447720198 38.66782640542025 39.32704632851126 40.184032228529574 40.535616187511444 40.99707013367515 41.61234206189343 42.0298480131844 42.62314594396631 43.194469877311846 43.61197582860282 44.22724775682109 44.66672770554844 45.26002563633034 45.87529756454862 46.292803515839594 46.93004944149423 47.50137337483977 47.85295733382164 48.62204724409449 49.06152719282183 49.45705914667643 50.094305072331075 50.48983702618568 50.92931697491302 51.32484892876762 52.0719648416041 52.64328877494964 53.08276872367698 53.698040651895255 54.401208569859 54.81871452114997 55.47793444424098 56.049258377586526 56.64255630836843 57.36769822376854 57.87310016480498 58.66416407251419 59.60904596227797 60.180369895623514 60.94945980589635 61.60867972898736 62.39974363669658 63.256729536714886 64.3114814136605 65.1684673136788 65.717817249588 66.33308917780627 67.29994506500641 67.78337300860647 68.72825489837027 69.8928767624977 70.31038271378868 71.0355246291888 71.84856253433438 72.66160043947995 73.18897637795277 73.67240432155283 74.39754623695293 75.12268815235305 75.65006409082585 76.26533601904413 77.1442959164988 77.64969785753524 78.26496978575352 78.57260574986266 79.12195568577184 79.73722761399011 80.35249954220839 80.9457974729903 81.53909540377221 81.95660135506317 82.54989928584509 82.9454312396997 83.62662516022706 84.2638710858817 84.72532503204542 85.4065189525728 86.08771287310017 86.57114081670024 87.51602270646401 87.99945065006409 88.4609045962278 89.16407251419155 89.62552646035525 90.28474638344626 90.70225233473722 91.40542025270096 92.08661417322836 92.46017212964658 92.7897820911921 93.27321003479217 93.71268998351951 94.10822193737411 94.34993590917415 94.63559787584691 94.87731184764695 95.00915583226515 95.14099981688335 95.20692180919247 95.20692180919247 95.20692180919247 95.18494781175609 95.07507782457425 94.85533785021059 94.54770188610145 94.28401391686505 93.9104559604468 93.62479399377403 93.1853140450467 92.8557040835012 92.35030214246476 91.60318622962828 91.22962827321004 90.81212232191906 90.19685039370079 89.51565647317341 88.87841054751877 88.41695660135505 87.75773667826405 87.07654275773669 86.3953488372093 85.9338948910456 85.2087529756455 84.76927302691814 84.11005310382714 83.6046511627907 82.85753524995422 82.08844533968139 81.53909540377221 80.85790148324483 80.17670756271745 79.71525361655375 79.05603369346274 78.33089177806264 77.49587987548068 76.90258194469877 76.26533601904413 75.6940120856986 75.05676616004395 74.19978026002565 73.40871635231643 72.8373924189709 72.00238051638894 71.18934261124336 70.53012268815235 69.6951107855704 69.05786485991577 68.26680095220655 67.45376304706097 66.61875114447903 65.8496612342062 65.1684673136788 64.53122138802416 64.09174143929684 63.652261490569494 63.23475553927852 62.79527559055118 62.15802966489654 61.54275773667826 60.94945980589635 60.53195385460538 59.894707928950744 59.718915949459806 58.90587804431423 58.31258011353232 57.96099615455045 57.36769822376854 56.840322285295734 56.444790331441126 55.69767441860465 55.25819446987731 54.84068851858634 54.29133858267717 53.80791063907709 53.214612708295185 52.423548800585976 52.006042849295 51.52261490569492 51.06116095953122 50.68760300311298 50.116279069767444 49.940487090276505 49.08350119025819 48.77586522614906 48.44625526460355 47.91887932613075 47.65519135689434 46.973997436366965 46.44662149789416 46.051089544039556 45.47976561069402 44.90844167734847 44.46896172862113 43.699871818348285 43.304339864493684 42.930781908075446 42.44735396447537 42.07379600805713 41.61234206189343 41.12891411829335 40.667460172129644 40.27192821827504 39.898370261856805 39.612708295184035 39.01941036440212 38.75572239516572 38.51400842336568 38.27229445156565 37.87676249771104 37.52517853872917 37.28346456692913 37.019776597692726 36.712140633583594 36.38253067203809 36.14081670023805 35.94305072331075 35.74528474638345 35.39370078740157 35.19593481047427 35.02014283098333 34.7784288591833 34.60263687969236 34.36092290789233 34.207104925837754 34.009338948910454 33.767624977110415 33.61380699505585 33.503937007874015 33.284197033510345 33.020509064273945 32.95458707196484 32.82274308734664 32.581029115546606 32.29536714887384 32.09760117194653 31.833913202710125 31.46035524629189 31.21864127449185 30.823109320637247 30.559421351400843 30.22981138985534 29.878227430873466 29.63651345907343 29.350851492400658 29.109137520600623 28.955319538546053 28.77952755905512 28.62570957700055 28.47189159494598 28.38399560520051 28.34004761032778 28.27412561801868 28.18622962827321 28.142281633400476 28.03241164621864 27.96648965390954 27.834645669291337 27.68082768723677 27.505035707745833 27.395165720564 27.241347738509432 27.153451748763963 27.04358176158213 26.97765976927303 26.95568577183666 26.95568577183666 26.97765976927303 26.97765976927303 26.95568577183666 26.95568577183666 26.933711774400294 26.933711774400294 26.911737776963925 26.88976377952756 26.88976377952756 26.88976377952756 26.88976377952756 26.867789782091194 26.845815784654825 26.845815784654825 26.845815784654825 26.82384178721846 26.80186778978209 26.779893792345725 26.757919794909355 26.757919794909355 26.757919794909355 26.73594579747299 26.73594579747299 26.73594579747299 26.73594579747299 26.713971800036624 26.73594579747299 26.713971800036624 26.73594579747299 26.713971800036624 26.73594579747299 26.73594579747299 26.713971800036624 26.73594579747299 26.713971800036624 26.713971800036624 26.713971800036624 26.713971800036624 26.713971800036624 26.713971800036624 26.713971800036624 26.713971800036624 26.691997802600255 26.691997802600255 26.691997802600255 26.691997802600255 26.67002380516389 26.67002380516389 26.67002380516389 26.648049807727524 26.648049807727524 26.648049807727524 26.626075810291155 26.626075810291155 26.60410181285479 26.60410181285479 26.60410181285479 26.60410181285479 26.58212781541842 26.58212781541842 26.560153817982055 26.560153817982055 26.560153817982055 26.538179820545686 26.51620582310932 26.51620582310932 26.51620582310932 26.494231825672955 26.494231825672955 26.494231825672955 26.472257828236586 26.472257828236586 26.45028383080022 26.42830983336385 26.42830983336385 26.42830983336385 26.42830983336385 26.406335835927486 26.406335835927486 26.406335835927486 26.406335835927486 26.406335835927486 26.406335835927486 26.406335835927486 26.406335835927486 26.406335835927486 26.406335835927486 26.406335835927486 26.406335835927486 26.406335835927486 26.406335835927486 26.406335835927486 26.406335835927486 26.406335835927486 26.406335835927486 26.38436183849112 26.406335835927486 26.38436183849112 26.38436183849112 26.38436183849112 26.38436183849112 26.406335835927486 26.38436183849112 26.38436183849112 26.38436183849112 26.38436183849112 26.38436183849112 26.38436183849112 26.38436183849112 26.38436183849112 26.38436183849112 26.406335835927486 26.38436183849112 26.38436183849112 26.406335835927486 26.38436183849112 26.38436183849112 26.38436183849112 26.38436183849112 26.38436183849112 26.38436183849112 26.38436183849112 26.38436183849112 26.38436183849112 26.38436183849112 26.38436183849112 26.38436183849112 26.38436183849112 26.38436183849112 26.36238784105475 26.38436183849112 26.36238784105475 26.36238784105475 26.38436183849112 26.36238784105475 26.36238784105475 26.36238784105475 26.36238784105475 26.340413843618386 26.340413843618386 26.340413843618386 26.340413843618386 26.340413843618386 26.340413843618386 26.340413843618386 26.318439846182017 26.340413843618386 26.340413843618386 26.340413843618386 26.340413843618386 26.340413843618386 26.318439846182017 26.318439846182017 26.340413843618386 26.340413843618386 26.318439846182017 26.340413843618386 26.318439846182017 26.318439846182017 26.318439846182017 26.318439846182017 26.318439846182017 26.318439846182017 26.318439846182017 26.318439846182017 26.318439846182017 26.318439846182017 26.318439846182017 26.318439846182017 26.318439846182017 26.318439846182017 26.318439846182017 26.318439846182017 26.29646584874565 26.29646584874565 26.29646584874565 26.29646584874565 26.29646584874565 26.29646584874565 26.29646584874565 