29.0 29.0 29.0 29.0 29.0 29.030763596410914 29.030763596410914 29.030763596410914 29.0 29.030763596410914 29.030763596410914 29.030763596410914 29.030763596410914 29.0 29.0 29.0 29.030763596410914 29.0 29.0 29.030763596410914 29.030763596410914 29.0 29.030763596410914 29.030763596410914 29.0 29.030763596410914 29.0 29.0 29.0 29.030763596410914 29.030763596410914 29.0 29.0 29.030763596410914 29.030763596410914 29.0 29.030763596410914 29.0 29.030763596410914 29.030763596410914 29.0 29.030763596410914 29.0 29.030763596410914 29.030763596410914 29.0 29.030763596410914 29.030763596410914 29.030763596410914 29.0 29.030763596410914 29.0 29.0 29.030763596410914 29.030763596410914 29.0 29.030763596410914 29.0 29.030763596410914 29.0 29.030763596410914 29.0 29.0 29.0 29.0 29.0 29.030763596410914 29.030763596410914 29.030763596410914 29.030763596410914 29.0 29.0 29.0 29.0 29.030763596410914 29.0 29.0 29.0 29.030763596410914 29.0 29.030763596410914 29.0 29.0 29.030763596410914 29.030763596410914 29.0 29.030763596410914 29.0 29.0 29.0 29.0 29.030763596410914 29.030763596410914 29.030763596410914 29.0 29.0 29.0 29.0 29.030763596410914 29.030763596410914 29.0 29.0 29.030763596410914 29.0 29.030763596410914 29.030763596410914 29.0 29.0 29.030763596410914 29.030763596410914 29.030763596410914 29.0 29.030763596410914 29.0 29.0 29.0 29.030763596410914 29.030763596410914 29.030763596410914 29.0 29.030763596410914 29.030763596410914 29.030763596410914 29.0 29.0 29.0 29.030763596410914 29.030763596410914 29.030763596410914 29.030763596410914 29.030763596410914 29.030763596410914 29.030763596410914 29.030763596410914 29.0 29.030763596410914 29.030763596410914 29.030763596410914 29.030763596410914 29.0 29.030763596410914 29.0 29.0 29.0 29.030763596410914 29.0 29.0 29.0 29.0 29.0 29.0 29.0 29.0 29.0 29.030763596410914 29.030763596410914 29.030763596410914 29.0 29.0 29.0 29.030763596410914 29.0 29.030763596410914 29.0 29.0 29.030763596410914 29.030763596410914 29.030763596410914 29.030763596410914 29.0 29.0 29.0 29.030763596410914 29.0 29.030763596410914 29.030763596410914 29.030763596410914 29.030763596410914 29.030763596410914 29.030763596410914 29.030763596410914 29.030763596410914 29.0 29.0 29.030763596410914 29.0 29.0 29.030763596410914 29.030763596410914 29.030763596410914 29.030763596410914 29.030763596410914 29.030763596410914 29.0 29.0 29.0 29.0 29.0 29.030763596410914 29.0 29.0 29.0 29.030763596410914 29.030763596410914 29.0 29.0 29.0 29.0 29.030763596410914 29.030763596410914 29.030763596410914 29.030763596410914 29.030763596410914 29.0 29.030763596410914 29.0 29.0 29.0 29.0 29.030763596410914 29.0 29.030763596410914 29.030763596410914 29.0 29.030763596410914 29.030763596410914 29.0 29.0 29.030763596410914 29.030763596410914 29.030763596410914 29.0 29.030763596410914 29.0 29.0 29.030763596410914 29.0 29.0 29.030763596410914 29.0 29.0 29.030763596410914 29.030763596410914 29.0 29.0 29.030763596410914 29.0 29.0 29.030763596410914 29.030763596410914 29.0 29.0 29.030763596410914 29.030763596410914 29.0 29.0 29.0 29.030763596410914 29.0 29.030763596410914 29.030763596410914 29.030763596410914 29.030763596410914 29.030763596410914 29.030763596410914 29.030763596410914 29.0 29.030763596410914 29.030763596410914 29.0 29.0 29.0 29.0 29.030763596410914 29.030763596410914 29.030763596410914 29.030763596410914 29.0 29.030763596410914 29.0 29.0 29.030763596410914 29.030763596410914 29.0 29.030763596410914 29.0 29.030763596410914 29.0 29.030763596410914 29.030763596410914 29.030763596410914 29.030763596410914 29.030763596410914 29.0 29.0 29.0 29.0 29.0 29.0 29.030763596410914 29.030763596410914 29.0 29.030763596410914 29.0 29.030763596410914 29.0 29.0 29.0 29.0 29.0 29.0 29.030763596410914 29.0 29.0 29.0 29.0 29.030763596410914 29.0 29.0 29.0 29.030763596410914 29.0 29.0 29.030763596410914 29.030763596410914 29.030763596410914 29.0 29.030763596410914 29.0 29.030763596410914 29.0 29.0 29.0 29.0 29.030763596410914 29.0 29.030763596410914 29.0 29.0 29.0 29.0 29.030763596410914 29.0 29.0 29.030763596410914 29.030763596410914 29.030763596410914 29.030763596410914 29.030763596410914 29.0 29.0 29.030763596410914 29.0 29.0 29.030763596410914 29.0 29.030763596410914 29.030763596410914 29.0 29.0 29.030763596410914 29.0 29.0 29.0 29.030763596410914 29.0 29.030763596410914 29.0 29.0 29.0 29.030763596410914 29.0 29.0 29.0 29.0 29.030763596410914 29.030763596410914 29.030763596410914 29.030763596410914 29.0 29.0 29.0 29.0 29.030763596410914 29.030763596410914 29.0 29.030763596410914 29.030763596410914 29.0 29.0 29.030763596410914 29.0 29.0 29.0 29.0 29.0 29.0 29.0 29.030763596410914 29.030763596410914 29.0 29.030763596410914 29.0 29.030763596410914 29.030763596410914 29.0 29.030763596410914 29.0 29.0 29.030763596410914 29.0 29.0 29.030763596410914 29.030763596410914 29.0 29.0 29.0 29.0 29.0 29.0 29.030763596410914 29.0 29.030763596410914 29.030763596410914 29.030763596410914 29.0 29.0 29.0 29.0 29.0 29.0 29.030763596410914 29.0 29.030763596410914 29.030763596410914 29.0 29.0 29.0 29.0 29.0 29.0 29.030763596410914 29.030763596410914 29.030763596410914 29.0 29.0 29.0 29.0 29.0 29.0 29.0 29.0 29.0 29.030763596410914 29.0 29.0 29.030763596410914 29.030763596410914 29.0 29.0 29.030763596410914 29.030763596410914 29.0 29.0 29.030763596410914 29.030763596410914 29.0 29.030763596410914 29.0 29.0 29.030763596410914 29.0 29.0 29.030763596410914 29.030763596410914 29.0 29.0 29.0 29.0 29.0 29.0 29.0 29.0 29.030763596410914 29.0 29.0 29.0 29.0 29.0 29.030763596410914 29.0 29.0 29.0 29.0 29.0 29.030763596410914 29.030763596410914 29.0 29.0 29.030763596410914 29.030763596410914 29.030763596410914 29.0 29.0 29.030763596410914 29.0 29.0 29.030763596410914 29.030763596410914 29.030763596410914 29.0 29.030763596410914 29.0 29.0 29.030763596410914 29.030763596410914 29.030763596410914 29.0 29.030763596410914 29.0 29.0 29.0 29.0 29.030763596410914 29.030763596410914 29.0 29.030763596410914 29.0 29.030763596410914 29.0 29.0 29.030763596410914 29.0 29.030763596410914 29.0 29.0 29.0 29.030763596410914 29.0 29.0 29.0 29.0 29.0 29.030763596410914 29.0 29.030763596410914 29.0 29.030763596410914 29.030763596410914 29.030763596410914 29.030763596410914 29.030763596410914 29.030763596410914 29.0 29.030763596410914 29.030763596410914 29.0 29.030763596410914 29.0 29.0 29.0 29.030763596410914 29.0 29.0 29.0 29.030763596410914 29.0 29.0 29.030763596410914 29.030763596410914 29.0 29.0 29.030763596410914 29.0 29.030763596410914 29.0 29.030763596410914 29.0 29.0 29.030763596410914 29.0 29.030763596410914 29.030763596410914 29.0 29.030763596410914 29.030763596410914 29.0 29.0 29.030763596410914 29.0 29.0 29.0 29.0 29.0 29.0 29.0 29.0 29.030763596410914 29.0 29.0 29.030763596410914 29.0 29.0 29.0 29.0 29.030763596410914 29.030763596410914 29.030763596410914 29.0 29.0 29.0 29.0 29.030763596410914 29.0 29.0 29.0 29.030763596410914 29.0 29.0 29.030763596410914 29.0 29.0 29.030763596410914 29.030763596410914 29.0 29.030763596410914 29.030763596410914 29.0 29.030763596410914 29.030763596410914 29.030763596410914 29.0 29.030763596410914 29.0 29.030763596410914 29.0 29.0 29.030763596410914 29.030763596410914 29.030763596410914 29.030763596410914 29.030763596410914 29.030763596410914 29.030763596410914 29.030763596410914 29.0 29.0 29.0 29.0 29.0 29.030763596410914 29.0 29.030763596410914 29.0 29.0 29.030763596410914 29.030763596410914 29.0 29.030763596410914 29.0 29.030763596410914 29.0 29.0 29.030763596410914 29.0 29.030763596410914 29.030763596410914 29.0 29.030763596410914 29.0 29.0 29.0 29.0 29.0 29.0 29.030763596410914 29.030763596410914 29.030763596410914 29.0 29.0 29.030763596410914 29.0 29.030763596410914 29.0 29.030763596410914 29.0 29.0 29.0 29.0 29.030763596410914 29.030763596410914 29.0 29.0 29.0 29.0 29.0 29.0 29.0 29.0 29.030763596410914 29.0 29.0 29.030763596410914 29.0 29.030763596410914 29.0 29.0 29.030763596410914 29.0 29.0 29.030763596410914 29.0 29.030763596410914 29.0 29.0 29.0 29.0 29.0 29.0 29.030763596410914 29.0 29.030763596410914 29.030763596410914 29.0 29.030763596410914 29.030763596410914 29.0 29.0 29.030763596410914 29.0 29.030763596410914 29.030763596410914 29.0 29.0 29.0 29.030763596410914 29.0 29.030763596410914 29.030763596410914 29.030763596410914 29.030763596410914 29.030763596410914 29.0 29.0 29.030763596410914 29.030763596410914 29.030763596410914 29.030763596410914 29.030763596410914 29.0 29.0 29.0 29.030763596410914 29.0 29.0 29.0 29.030763596410914 29.0 29.030763596410914 29.030763596410914 29.030763596410914 29.0 29.0 29.0 29.030763596410914 29.030763596410914 29.030763596410914 29.0 29.030763596410914 29.0 29.030763596410914 29.0 29.0 29.0 29.030763596410914 29.030763596410914 29.030763596410914 29.0 29.030763596410914 29.030763596410914 29.0 29.030763596410914 29.0 29.030763596410914 29.030763596410914 29.030763596410914 29.0 29.0 29.030763596410914 29.0 29.0 29.0 29.0 29.030763596410914 29.0 29.030763596410914 29.0 29.030763596410914 29.030763596410914 29.0 29.0 29.0 29.0 29.0 29.030763596410914 29.0 29.030763596410914 29.0 29.0 29.0 29.0 29.030763596410914 29.030763596410914 29.0 29.030763596410914 29.030763596410914 29.030763596410914 29.0 29.0 29.030763596410914 29.030763596410914 29.0 29.0 29.030763596410914 29.0 29.030763596410914 29.0 29.030763596410914 29.0 29.030763596410914 29.0 29.0 29.0 29.0 29.0 29.0 29.0 29.0 29.0 29.030763596410914 29.0 29.030763596410914 29.0 29.030763596410914 29.030763596410914 29.030763596410914 29.030763596410914 29.0 29.030763596410914 29.030763596410914 29.030763596410914 29.030763596410914 29.0 29.0 29.030763596410914 29.030763596410914 29.030763596410914 29.030763596410914 29.0 29.030763596410914 29.030763596410914 29.0 29.030763596410914 29.030763596410914 29.030763596410914 29.030763596410914 29.0 29.0 29.0 29.0 29.030763596410914 29.030763596410914 29.0 29.0 29.0 29.0 29.030763596410914 29.030763596410914 29.0 29.030763596410914 29.030763596410914 29.030763596410914 29.030763596410914 29.0 29.0 29.0 29.0 29.09229078923274 29.215345174876397 29.30763596410914 29.461453946163708 29.58450833180736 29.6767991210401 29.83061710309467 29.922907892327412 30.045962277971068 30.23054385643655 30.353598242080206 30.538179820545686 30.72276139901117 31.030397363120308 31.584142098516754 31.984068851858634 32.32246841237868 32.814685954953305 33.214612708295185 33.89141182933528 34.56821095037539 35.21424647500458 35.9218091924556 36.47555392785204 36.96777147042666 37.82915216993224 38.321369712506865 39.0596960263688 39.55191356894342 40.25947628639443 40.87474821461271 41.27467496795458 41.797656106940124 42.22834645669291 42.905145577733016 43.5511811023622 44.16645303058048 44.781724958798755 45.48928767624977 46.2276139901117 47.05823109320637 47.27357626808276 48.011902581944696 48.99633766709394 49.48855520966856 50.19611792711957 50.87291704815968 51.51895257278886 52.13422450100714 52.65720563999267 53.64164072514191 54.10309467130563 54.59531221388024 55.30287493133125 56.041201245193186 56.59494598058963 57.33327229445156 57.88701702984801 58.71763413294268 59.45596044680461 60.07123237502289 61.11719465299395 61.6709393883904 62.16315693096502 63.14759201611426 63.424464383812484 64.1320271012635 64.93188060794725 65.60867972898737 66.31624244643838 66.96227797106756 67.51602270646401 68.10053103827138 68.53122138802416 69.11572971983153 69.73100164804981 70.13092840139169 70.74620032960996 71.33070866141732 71.91521699322467 72.28438015015564 72.65354330708661 73.17652444607214 73.66874198864676 74.03790514557772 74.49935909174144 74.8377586522615 75.05310382713789 75.3299761948361 75.51455777330159 75.729902948178 76.06830250869804 76.28364768357443 76.52975645486174 76.68357443691632 76.92968320820361 77.26808276872367 77.45266434718914 77.57571873283281 77.72953671488739 77.85259110053104 78.03717267899651 78.12946346822926 78.34480864310567 78.46786302874932 78.56015381798206 78.68320820362571 78.80626258926935 78.92931697491301 79.05237136055666 79.20618934261125 79.39077092107672 79.51382530672038 79.60611609595313 79.69840688518586 79.85222486724042 80.0368064457059 80.19062442776048 80.31367881340414 80.4674967954587 80.62131477751328 80.74436916315693 80.9289507416224 81.08276872367698 81.17505951290971 81.32887749496429 81.45193188060794 81.6057498626625 81.8210950375389 81.97491301959349 82.06720380882622 82.2517853872917 82.37483977293536 82.59018494781176 82.71323933345542 82.95934810474272 83.1439296832082 83.29774766526276 83.45156564731735 83.69767441860465 83.8207288042483 84.00531038271379 84.15912836476835 84.34370994323385 84.52829152169932 84.62058231093206 84.77440029298663 84.92821827504119 85.02050906427394 85.1435634499176 85.20509064273942 85.29738143197216 85.42043581761581 85.54349020325947 85.63578099249222 85.69730818531404 85.78959897454678 85.91265336019043 86.00494414942318 86.03570774583409 86.09723493865592 86.15876213147774 86.15876213147774 86.15876213147774 86.15876213147774 86.15876213147774 86.15876213147774 86.18952572788865 86.15876213147774 86.15876213147774 86.15876213147774 86.15876213147774 86.15876213147774 86.15876213147774 86.15876213147774 86.15876213147774 86.15876213147774 86.15876213147774 86.15876213147774 86.15876213147774 86.15876213147774 86.15876213147774 86.15876213147774 86.15876213147774 86.15876213147774 86.12799853506684 86.09723493865592 86.066471342245 86.00494414942318 85.94341695660134 85.91265336019043 85.8511261673686 85.8203625709577 85.78959897454678 85.78959897454678 85.78959897454678 85.78959897454678 85.75883537813587 85.75883537813587 85.72807178172496 85.69730818531404 85.63578099249222 85.60501739608131 85.54349020325947 85.51272660684856 85.45119941402672 85.45119941402672 85.42043581761581 85.42043581761581 85.42043581761581 85.3896722212049 85.3896722212049 85.3896722212049 85.358908624794 85.32814502838306 85.26661783556125 85.23585423915033 85.1435634499176 85.05127266068484 84.98974546786303 84.95898187145211 84.89745467863028 84.86669108221938 84.83592748580845 84.83592748580845 84.80516388939753 84.80516388939753 84.80516388939753 84.80516388939753 84.80516388939753 84.80516388939753 84.80516388939753 84.80516388939753 84.80516388939753 84.80516388939753 84.80516388939753 84.80516388939753 84.80516388939753 84.80516388939753 84.80516388939753 84.80516388939753 84.80516388939753 84.80516388939753 84.80516388939753 84.80516388939753 84.80516388939753 84.80516388939753 84.80516388939753 84.80516388939753 84.74363669657572 84.68210950375389 84.68210950375389 84.62058231093206 84.55905511811024 84.52829152169932 84.49752792528841 84.49752792528841 84.4667643288775 84.43600073246657 84.4667643288775 84.43600073246657 84.43600073246657 84.43600073246657 84.43600073246657 84.43600073246657 84.43600073246657 84.43600073246657 84.43600073246657 84.43600073246657 84.43600073246657 84.43600073246657 84.43600073246657 84.43600073246657 84.43600073246657 84.43600073246657 84.43600073246657 84.4667643288775 84.43600073246657 84.43600073246657 84.4667643288775 84.4667643288775 84.43600073246657 84.43600073246657 84.43600073246657 84.43600073246657 84.43600073246657 84.40523713605566 84.37447353964475 84.37447353964475 84.37447353964475 84.37447353964475 84.37447353964475 84.37447353964475 84.37447353964475 84.37447353964475 84.37447353964475 84.37447353964475 84.37447353964475 84.37447353964475 84.37447353964475 84.34370994323385 84.31294634682291 84.282182750412 84.18989196117926 84.15912836476835 84.12836476835744 84.09760117194652 84.06683757553562 84.06683757553562 84.06683757553562 84.06683757553562 84.06683757553562 84.06683757553562 84.06683757553562 84.06683757553562 84.06683757553562 84.06683757553562 84.06683757553562 84.09760117194652 84.06683757553562 84.09760117194652 84.06683757553562 84.06683757553562 84.09760117194652 84.06683757553562 84.09760117194652 84.06683757553562 84.09760117194652 84.09760117194652 84.09760117194652 84.09760117194652 84.06683757553562 84.06683757553562 84.06683757553562 84.06683757553562 84.06683757553562 84.06683757553562 84.06683757553562 84.06683757553562 84.0360739791247 84.0360739791247 84.00531038271379 84.00531038271379 84.00531038271379 84.00531038271379 84.00531038271379 84.00531038271379 84.00531038271379 84.00531038271379 84.00531038271379 84.00531038271379 84.00531038271379 84.00531038271379 84.00531038271379 83.97454678630287 83.94378318989196 83.94378318989196 83.94378318989196 83.91301959348104 83.88225599707013 83.88225599707013 83.85149240065923 83.85149240065923 83.8207288042483 83.8207288042483 83.8207288042483 83.8207288042483 83.8207288042483 83.8207288042483 83.8207288042483 83.8207288042483 83.8207288042483 83.8207288042483 83.85149240065923 83.85149240065923 83.85149240065923 83.78996520783738 83.75920161142648 83.72843801501557 83.69767441860465 83.66691082219373 83.66691082219373 83.66691082219373 83.63614722578282 83.63614722578282 83.66691082219373 83.63614722578282 83.63614722578282 83.63614722578282 83.63614722578282 83.63614722578282 83.63614722578282 83.63614722578282 83.63614722578282 83.63614722578282 83.63614722578282 83.60538362937191 83.57462003296098 83.54385643655007 83.51309284013917 83.45156564731735 83.45156564731735 83.42080205090642 83.39003845449551 83.32851126167368 83.32851126167368 83.29774766526276 83.29774766526276 83.26698406885185 83.29774766526276 83.26698406885185 83.26698406885185 83.26698406885185 83.26698406885185 83.26698406885185 83.26698406885185 83.26698406885185 83.26698406885185 83.26698406885185 83.29774766526276 83.26698406885185 83.26698406885185 83.26698406885185 83.26698406885185 83.26698406885185 83.26698406885185 83.26698406885185 83.26698406885185 83.26698406885185 83.26698406885185 83.23622047244095 83.23622047244095 83.23622047244095 83.23622047244095 83.23622047244095 83.23622047244095 83.20545687603003 83.1746932796191 83.1439296832082 83.11316608679729 83.08240249038637 83.08240249038637 83.08240249038637 83.08240249038637 83.08240249038637 83.08240249038637 83.08240249038637 83.08240249038637 83.08240249038637 83.08240249038637 83.08240249038637 83.08240249038637 83.08240249038637 83.08240249038637 83.08240249038637 83.08240249038637 83.08240249038637 83.08240249038637 83.08240249038637 83.11316608679729 83.08240249038637 83.08240249038637 83.08240249038637 83.08240249038637 83.08240249038637 83.11316608679729 83.11316608679729 83.11316608679729 83.11316608679729 83.1439296832082 83.1439296832082 83.11316608679729 83.1439296832082 83.1439296832082 83.1746932796191 83.20545687603003 83.20545687603003 83.26698406885185 83.32851126167368 83.35927485808459 83.35927485808459 83.42080205090642 83.45156564731735 83.48232924372826 83.51309284013917 83.57462003296098 83.63614722578282 83.69767441860465 83.75920161142648 83.85149240065923 83.88225599707013 83.94378318989196 84.00531038271379 84.12836476835744 84.18989196117926 84.18989196117926 84.2514191540011 84.2514191540011 84.2514191540011 84.282182750412 84.2514191540011 84.2514191540011 84.22065555759018 84.12836476835744 83.94378318989196 83.60538362937191 83.42080205090642 83.08240249038637 82.86705731550998 82.49789415857902 82.09796740523714 81.79033144112799 81.35964109137521 80.9289507416224 80.52902398828053 79.88298846365134 79.42153451748763 78.71397180003662 77.69877311847647 76.96044680461453 76.40670206921808 75.88372093023256 75.36073979124703 74.59164988097417 73.82255997070132 73.0842336568394 72.19208936092289 71.79216260758102 71.33070866141732 70.86925471525362 70.25398278703534 69.60794726240616 69.17725691265336 68.592748580846 67.97747665262773 67.54678630287492 66.71616919978025 66.47006042849296 65.94707928950741 65.45486174693279 65.08569859000184 64.59348104742722 64.00897271561985 63.670573155099795 63.36293719099066 63.17835561252517 62.870719648416035 62.37850210584142 62.13239333455411 61.82475737044497 61.547885002746746 61.240249038637614 61.055667460172124 60.87108588170665 60.62497711041934 60.34810474272111 60.132759567844715 59.978941585790146 59.79436000732467 59.67130562168101 59.48672404321553 59.363669657571876 59.17908807910639 58.99450650064091 58.87145211499725 58.59457974729903 58.44076176524446 58.163889397546235 57.94854422266984 57.79472624061527 57.61014466214979 57.302508698040654 57.117927119575164 56.87181834828786 56.656473173411456 56.47189159494598 56.225782823658676 56.041201245193186 55.79509247390588 55.54898370261857 55.36440212415309 55.179820545687605 55.05676616004395 54.872184581578466 54.68760300311298 54.56454861746933 54.379967039003844 54.25691265336019 54.13385826771653 53.88774949642922 53.76469511078557 53.54934993590917 53.364768357443694 53.14942318256729 53.08789598974546 52.811023622047244 52.68796923640359 52.47262406152719 52.31880607947262 52.07269730818531 51.826588536898 51.64200695843252 51.42666178355613 51.18055301226882 50.96520783739241 50.74986266251602 50.596044680461446 50.2576451199414 50.042299945065004 49.85771836659953 49.73466398095587 49.51931880607947 49.365500824024906 49.119392052737595 48.99633766709394 48.81175608862846 48.65793810657389 48.53488372093023 48.411829335286576 48.25801135323201 48.073429774766524 47.91961179271196 47.7965574070683 47.61197582860282 47.45815784654825 47.33510346090459 47.18128547885003 47.05823109320637 46.904413111151804 46.78135872550815 46.658304339864486 46.504486357809924 46.25837758652261 46.13532320087896 46.0122688152353 45.82768723676982 45.70463285112616 45.45852407983885 45.24317890496246 44.99707013367515 44.781724958798755 44.627906976744185 44.474088994689616 44.227980223402305 44.04339864493682 43.828053470060425 43.70499908441677 43.52041750595129 43.366599523896724 43.24354513825307 43.028199963376665 42.93590917414393 42.84361838491119 42.75132759567845 42.62827321003479 42.505218824391136 42.38216443874748 42.22834645669291 41.951474088994686 41.85918329976195 41.705365317707376 41.39772935359824 41.18238417872185 40.90551181102362 40.597875846914484 40.413294268449 40.136421900750776 39.982603918696206 39.76725874381981 39.55191356894342 39.39809558688884 39.18275041201245 38.99816883354697 38.8443508514924 38.629005676616 38.44442409815052 38.19831532686321 37.89067936275407 37.70609778428859 37.33693462735763 37.060062259659404 36.96777147042666 36.66013550631752 36.47555392785204 36.32173594579747 36.01409998168833 35.86028199963376 35.61417322834646 35.39882805347006 35.21424647500458 34.96813770371727 34.8143197216627 34.56821095037539 34.35286577549899 34.229811389855335 34.01446621497894 33.79912104010255 33.7068302508698 33.614539461637065 33.55301226881524 33.460721479582496 33.39919428676067 33.368430690349754 33.27613990111701 33.214612708295185 33.12232191906244 33.0300311298297 32.968503937007874 32.906976744186046 32.75315876213148 32.660867972898735 32.53781358725508 32.47628639443325 32.414759201611425 32.32246841237868 32.23017762314594 32.168650430324114 32.07635964109137 31.984068851858634 31.86101446621498 31.79948727339315 31.70719648416041 31.584142098516754 31.522614905694926 31.461087712873102 31.36879692364036 31.307269730818533 31.21497894158579 31.12268815235305 30.999633766709394 30.81505218824391 30.72276139901117 30.630470609778428 30.47665262772386 30.38436183849112 30.353598242080206 30.322834645669293 30.322834645669293 30.29207104925838 30.29207104925838 30.261307452847465 30.261307452847465 30.23054385643655 30.23054385643655 30.23054385643655 30.199780260025637 30.199780260025637 30.199780260025637 30.169016663614723 30.169016663614723 30.169016663614723 30.169016663614723 30.13825306720381 30.107489470792896 30.107489470792896 30.07672587438198 30.07672587438198 30.045962277971068 30.015198681560154 30.015198681560154 29.98443508514924 29.922907892327412 29.861380699505585 29.83061710309467 29.769089910272843 29.73832631386193 29.707562717451015 29.6767991210401 29.6767991210401 29.646035524629188 29.646035524629188 29.646035524629188 29.646035524629188 29.646035524629188 29.646035524629188 29.646035524629188 29.615271928218274 29.615271928218274 29.646035524629188 29.615271928218274 29.615271928218274 29.615271928218274 29.615271928218274 29.615271928218274 29.615271928218274 29.615271928218274 29.615271928218274 29.646035524629188 29.615271928218274 29.646035524629188 29.615271928218274 29.615271928218274 29.615271928218274 29.615271928218274 29.615271928218274 29.615271928218274 29.615271928218274 29.615271928218274 29.615271928218274 29.615271928218274 29.615271928218274 29.615271928218274 29.615271928218274 29.615271928218274 29.615271928218274 29.615271928218274 29.615271928218274 29.615271928218274 29.615271928218274 29.615271928218274 29.615271928218274 29.58450833180736 29.615271928218274 29.615271928218274 29.58450833180736 29.58450833180736 29.58450833180736 29.553744735396446 29.553744735396446 29.553744735396446 29.553744735396446 29.553744735396446 29.553744735396446 29.553744735396446 29.553744735396446 29.553744735396446 29.522981138985532 29.522981138985532 29.522981138985532 29.522981138985532 29.522981138985532 29.522981138985532 29.522981138985532 29.522981138985532 29.522981138985532 29.522981138985532 29.522981138985532 29.522981138985532 29.522981138985532 29.522981138985532 29.522981138985532 29.522981138985532 29.522981138985532 29.49221754257462 29.522981138985532 29.49221754257462 29.49221754257462 29.522981138985532 29.522981138985532 29.522981138985532 29.49221754257462 29.522981138985532 29.49221754257462 29.49221754257462 29.49221754257462 29.522981138985532 29.49221754257462 29.49221754257462 29.49221754257462 29.49221754257462 29.49221754257462 29.49221754257462 29.49221754257462 29.49221754257462 29.49221754257462 29.461453946163708 29.461453946163708 29.461453946163708 29.461453946163708 29.461453946163708 29.461453946163708 29.461453946163708 29.461453946163708 29.461453946163708 29.461453946163708 29.461453946163708 29.461453946163708 29.461453946163708 29.461453946163708 29.461453946163708 29.461453946163708 29.461453946163708 29.461453946163708 29.430690349752794 29.430690349752794 29.39992675334188 29.39992675334188 29.39992675334188 29.39992675334188 29.39992675334188 29.39992675334188 29.39992675334188 29.39992675334188 29.39992675334188 29.369163156930966 29.369163156930966 29.39992675334188 29.369163156930966 29.369163156930966 29.39992675334188 29.369163156930966 29.369163156930966 29.369163156930966 29.369163156930966 29.369163156930966 29.369163156930966 29.369163156930966 29.369163156930966 29.369163156930966 29.369163156930966 29.369163156930966 29.369163156930966 29.369163156930966 29.369163156930966 29.369163156930966 29.369163156930966 29.369163156930966 29.369163156930966 29.369163156930966 29.369163156930966 29.369163156930966 29.369163156930966 29.369163156930966 29.369163156930966 29.369163156930966 29.369163156930966 29.369163156930966 29.369163156930966 29.369163156930966 29.369163156930966 29.369163156930966 29.369163156930966 29.369163156930966 29.369163156930966 29.369163156930966 29.369163156930966 29.369163156930966 29.338399560520052 29.338399560520052 29.369163156930966 29.369163156930966 29.369163156930966 29.369163156930966 29.369163156930966 29.338399560520052 29.369163156930966 29.369163156930966 29.369163156930966 29.369163156930966 29.338399560520052 29.369163156930966 29.338399560520052 29.369163156930966 29.369163156930966 29.369163156930966 29.338399560520052 29.369163156930966 29.369163156930966 29.338399560520052 29.369163156930966 29.369163156930966 29.369163156930966 29.369163156930966 29.369163156930966 29.369163156930966 29.369163156930966 29.369163156930966 29.369163156930966 29.369163156930966 29.369163156930966 29.369163156930966 29.369163156930966 29.338399560520052 29.338399560520052 29.369163156930966 29.369163156930966 29.338399560520052 29.338399560520052 29.369163156930966 29.369163156930966 29.369163156930966 29.369163156930966 29.369163156930966 29.369163156930966 29.369163156930966 29.369163156930966 29.369163156930966 29.369163156930966 29.369163156930966 29.369163156930966 29.338399560520052 29.369163156930966 29.369163156930966 29.369163156930966 29.369163156930966 29.369163156930966 29.369163156930966 29.369163156930966 29.369163156930966 29.369163156930966 29.369163156930966 29.338399560520052 29.369163156930966 29.338399560520052 29.369163156930966 29.338399560520052 29.338399560520052 29.338399560520052 29.338399560520052 29.369163156930966 29.338399560520052 29.369163156930966 29.369163156930966 29.338399560520052 29.369163156930966 29.369163156930966 29.338399560520052 29.369163156930966 29.338399560520052 29.338399560520052 29.338399560520052 29.369163156930966 29.369163156930966 29.338399560520052 29.338399560520052 29.369163156930966 29.369163156930966 29.338399560520052 29.369163156930966 29.338399560520052 29.338399560520052 29.369163156930966 29.338399560520052 29.338399560520052 29.338399560520052 29.338399560520052 29.369163156930966 29.369163156930966 29.369163156930966 29.369163156930966 29.369163156930966 29.338399560520052 29.369163156930966 29.338399560520052 29.369163156930966 29.338399560520052 29.338399560520052 29.338399560520052 29.369163156930966 29.369163156930966 29.338399560520052 29.338399560520052 29.338399560520052 29.338399560520052 29.369163156930966 29.338399560520052 29.369163156930966 29.338399560520052 29.338399560520052 29.338399560520052 29.369163156930966 29.338399560520052 29.369163156930966 29.369163156930966 29.369163156930966 29.338399560520052 29.338399560520052 29.369163156930966 29.369163156930966 29.369163156930966 29.338399560520052 29.369163156930966 29.369163156930966 29.338399560520052 29.338399560520052 29.369163156930966 29.338399560520052 29.338399560520052 29.338399560520052 29.338399560520052 29.338399560520052 29.369163156930966 29.338399560520052 29.369163156930966 29.369163156930966 29.369163156930966 29.369163156930966 29.338399560520052 29.369163156930966 29.369163156930966 29.369163156930966 29.338399560520052 29.338399560520052 29.338399560520052 29.338399560520052 29.369163156930966 29.338399560520052 29.338399560520052 29.338399560520052 29.369163156930966 29.338399560520052 29.369163156930966 29.369163156930966 29.369163156930966 29.338399560520052 29.369163156930966 29.338399560520052 29.338399560520052 29.338399560520052 29.369163156930966 29.338399560520052 29.338399560520052 29.338399560520052 29.369163156930966 29.369163156930966 29.338399560520052 29.369163156930966 29.338399560520052 29.369163156930966 29.338399560520052 29.369163156930966 29.338399560520052 29.369163156930966 29.338399560520052 29.369163156930966 29.369163156930966 29.338399560520052 29.338399560520052 29.369163156930966 29.338399560520052 29.338399560520052 29.338399560520052 29.369163156930966 29.338399560520052 29.338399560520052 29.338399560520052 29.369163156930966 29.338399560520052 29.338399560520052 29.369163156930966 29.338399560520052 29.369163156930966 29.369163156930966 29.338399560520052 29.369163156930966 29.338399560520052 29.338399560520052 29.338399560520052 29.338399560520052 29.338399560520052 29.338399560520052 29.338399560520052 29.338399560520052 29.369163156930966 29.338399560520052 29.338399560520052 29.369163156930966 29.369163156930966 29.369163156930966 29.338399560520052 29.369163156930966 29.338399560520052 29.338399560520052 29.369163156930966 29.338399560520052 29.338399560520052 29.369163156930966 29.338399560520052 29.338399560520052 29.338399560520052 29.369163156930966 29.338399560520052 29.369163156930966 29.338399560520052 29.369163156930966 29.338399560520052 29.338399560520052 29.338399560520052 29.369163156930966 29.369163156930966 29.338399560520052 29.338399560520052 29.338399560520052 29.338399560520052 29.369163156930966 29.338399560520052 29.338399560520052 29.338399560520052 29.338399560520052 29.338399560520052 29.369163156930966 29.338399560520052 29.338399560520052 29.338399560520052 29.338399560520052 29.338399560520052 29.338399560520052 29.369163156930966 29.338399560520052 29.369163156930966 29.338399560520052 29.338399560520052 29.338399560520052 29.369163156930966 29.338399560520052 29.338399560520052 29.369163156930966 29.338399560520052 29.369163156930966 29.338399560520052 29.338399560520052 29.338399560520052 29.338399560520052 29.338399560520052 29.369163156930966 29.369163156930966 29.338399560520052 29.338399560520052 29.338399560520052 29.369163156930966 29.338399560520052 29.338399560520052 29.338399560520052 29.338399560520052 29.369163156930966 29.338399560520052 29.369163156930966 29.369163156930966 29.338399560520052 29.338399560520052 29.338399560520052 29.338399560520052 29.338399560520052 29.338399560520052 29.369163156930966 29.338399560520052 29.338399560520052 29.338399560520052 29.369163156930966 29.338399560520052 29.338399560520052 29.369163156930966 29.338399560520052 29.369163156930966 29.369163156930966 29.338399560520052 29.338399560520052 29.338399560520052 29.369163156930966 29.369163156930966 29.338399560520052 29.338399560520052 29.338399560520052 29.338399560520052 29.338399560520052 29.338399560520052 29.338399560520052 29.338399560520052 29.338399560520052 29.338399560520052 29.338399560520052 29.338399560520052 29.338399560520052 29.369163156930966 29.338399560520052 29.338399560520052 29.338399560520052 29.338399560520052 29.338399560520052 29.369163156930966 29.369163156930966 29.338399560520052 29.338399560520052 29.369163156930966 29.338399560520052 29.338399560520052 29.369163156930966 29.369163156930966 29.338399560520052 29.338399560520052 29.369163156930966 29.369163156930966 29.369163156930966 29.338399560520052 29.338399560520052 29.338399560520052 29.338399560520052 29.338399560520052 29.369163156930966 29.338399560520052 29.338399560520052 29.338399560520052 29.369163156930966 29.338399560520052 29.369163156930966 29.338399560520052 29.338399560520052 29.338399560520052 29.338399560520052 29.338399560520052 29.338399560520052 29.338399560520052 29.338399560520052 29.338399560520052 29.338399560520052 29.338399560520052 29.369163156930966 29.338399560520052 29.338399560520052 29.338399560520052 29.369163156930966 29.338399560520052 29.338399560520052 29.338399560520052 29.338399560520052 29.369163156930966 29.338399560520052 29.338399560520052 29.338399560520052 29.369163156930966 29.369163156930966 29.338399560520052 29.369163156930966 29.338399560520052 29.338399560520052 29.338399560520052 29.338399560520052 29.369163156930966 29.338399560520052 29.369163156930966 29.338399560520052 29.338399560520052 29.338399560520052 29.369163156930966 29.369163156930966 29.369163156930966 29.338399560520052 29.369163156930966 29.338399560520052 29.369163156930966 29.338399560520052 29.369163156930966 29.338399560520052 29.338399560520052 29.369163156930966 29.338399560520052 29.338399560520052 29.338399560520052 29.338399560520052 29.338399560520052 29.338399560520052 29.369163156930966 29.369163156930966 29.369163156930966 29.338399560520052 29.338399560520052 29.338399560520052 29.338399560520052 29.338399560520052 29.338399560520052 29.338399560520052 29.338399560520052 29.338399560520052 29.338399560520052 29.338399560520052 29.338399560520052 29.338399560520052 29.338399560520052 29.338399560520052 29.338399560520052 29.338399560520052 29.338399560520052 29.338399560520052 29.338399560520052 29.338399560520052 29.369163156930966 29.338399560520052 29.338399560520052 29.338399560520052 29.369163156930966 29.338399560520052 29.338399560520052 29.338399560520052 29.338399560520052 29.338399560520052 29.338399560520052 29.369163156930966 29.338399560520052 29.338399560520052 29.338399560520052 29.338399560520052 29.369163156930966 29.338399560520052 29.369163156930966 29.338399560520052 29.338399560520052 29.338399560520052 29.338399560520052 29.369163156930966 29.369163156930966 29.369163156930966 29.338399560520052 29.338399560520052 29.338399560520052 29.369163156930966 29.338399560520052 29.338399560520052 29.338399560520052 29.338399560520052 29.369163156930966 29.369163156930966 29.338399560520052 29.338399560520052 29.338399560520052 29.338399560520052 29.338399560520052 29.338399560520052 29.338399560520052 29.338399560520052 29.338399560520052 29.338399560520052 29.338399560520052 29.338399560520052 29.338399560520052 29.338399560520052 29.369163156930966 29.338399560520052 29.338399560520052 29.369163156930966 29.369163156930966 29.338399560520052 29.369163156930966 29.369163156930966 29.338399560520052 29.338399560520052 29.338399560520052 29.369163156930966 29.369163156930966 29.369163156930966 29.338399560520052 29.338399560520052 29.369163156930966 29.338399560520052 29.369163156930966 29.369163156930966 29.338399560520052 29.338399560520052 29.338399560520052 29.338399560520052 29.338399560520052 29.30763596410914 29.30763596410914 29.30763596410914 29.30763596410914 29.30763596410914 29.30763596410914 29.30763596410914 29.30763596410914 29.30763596410914 29.30763596410914 29.30763596410914 29.30763596410914 29.30763596410914 29.30763596410914 29.30763596410914 29.30763596410914 29.30763596410914 29.30763596410914 29.30763596410914 29.30763596410914 29.30763596410914 29.30763596410914 29.30763596410914 29.30763596410914 29.30763596410914 29.30763596410914 29.30763596410914 29.30763596410914 29.30763596410914 29.30763596410914 29.30763596410914 29.30763596410914 29.30763596410914 29.30763596410914 29.30763596410914 29.30763596410914 29.30763596410914 29.30763596410914 29.30763596410914 29.30763596410914 29.30763596410914 29.30763596410914 29.30763596410914 29.30763596410914 29.30763596410914 29.30763596410914 29.30763596410914 29.30763596410914 29.30763596410914 29.30763596410914 29.30763596410914 29.30763596410914 29.30763596410914 29.30763596410914 29.30763596410914 29.338399560520052 29.338399560520052 29.369163156930966 29.461453946163708 29.553744735396446 29.6767991210401 29.73832631386193 29.799853506683757 29.8921442959165 30.107489470792896 30.261307452847465 30.353598242080206 30.507416224134772 30.753524995422083 30.845815784654825 30.907342977476652 31.091924555942136 31.338033327229446 31.70719648416041 31.95330525544772 32.44552279802234 32.814685954953305 33.09155832265153 33.614539461637065 33.829884636513455 34.137520600622594 34.50668375755356 34.75279252884087 35.15271928218275 35.491118842702804 35.76799121040103 36.1679179637429 36.444790331441126 36.81395348837209 37.18311664530306 37.459989013001284 37.798388573521336 38.10602453763047 38.53671488738326 38.90587804431423 39.21351400842337 39.45962277971067 39.76725874381981 40.044131111518034 40.56711225050357 40.78245742537997 40.96703900384545 41.42849295000916 41.67460172129647 41.88994689617286 42.28987364951474 42.53598242080205 42.99743636696576 43.366599523896724 43.79728987364952 44.28950741622413 44.6586705731551 45.181651712140635 45.70463285112616 46.043032411646216 46.56601355063175 46.965940303973625 47.519685039370074 48.28877494964292 48.81175608862846 49.27321003479216 49.79619117377769 50.288408716352315 51.18055301226882 51.58047976561069 52.16498809741805 52.74949642922542 53.24171397180004 53.64164072514191 54.19538546053836 54.56454861746933 55.05676616004395 55.48745650979674 55.948910455960444 56.47189159494598 56.841054751876946 57.33327229445156 57.763962644204355 58.1023622047244 58.50228895806629 58.779161325764505 59.17908807910639 59.48672404321553 59.732832814502835 60.132759567844715 60.53268632118659 61.02490386376122 61.45559421351401 61.76323017762314 62.347738509430506 62.65537447353964 62.96301043764878 63.27064640175792 63.70133675151071 63.94744552279802 64.31660867972897 64.5627174510163 64.90111701153634 65.39333455411096 65.54715253616553 65.79326130745284 66.10089727156199 66.31624244643838 66.68540560336935 66.96227797106756 67.33144112799853 67.66984068851858 67.88518586339498 68.1620582310932 68.43893059879143 68.77733015931148 69.2695477018861 69.66947445522797 70.16169199780259 70.59238234755539 71.02307269730818 71.45376304706097 71.76139901117011 72.22285295733383 72.68430690349753 73.05347006042848 73.48416041018129 73.91485075993407 74.34554110968686 74.74546786302875 74.8685222486724 75.23768540560337 75.60684856253434 75.88372093023256 76.28364768357443 76.62204724409449 76.8681560153818 77.23731917231275 77.39113715436733 77.7910639077092 78.25251785387292 78.49862662516023 78.8985533785021 79.26771653543307 79.5753524995422 79.88298846365134 80.12909723493865 80.49826039186962 80.83665995238968 81.08276872367698 81.42116828419702 81.75956784471708 82.0056766160044 82.4671305621681 82.62094854422267 82.92858450833181 83.26698406885185 83.48232924372826 83.75920161142648 84.09760117194652 84.2514191540011 84.49752792528841 84.62058231093206 84.83592748580845 85.1435634499176 85.26661783556125 85.48196301043765 85.66654458890312 85.8511261673686 85.97418055301226 86.066471342245 86.25105292071049 86.37410730635415 86.43563449917598 86.4971616919978 86.52792528840871 86.52792528840871 86.55868888481963 86.52792528840871 86.55868888481963 86.55868888481963 86.55868888481963 86.55868888481963 86.52792528840871 86.52792528840871 86.52792528840871 86.55868888481963 86.52792528840871 86.52792528840871 86.52792528840871 86.55868888481963 86.55868888481963 86.55868888481963 86.55868888481963 86.58945248123054 86.55868888481963 86.55868888481963 86.55868888481963 86.55868888481963 86.55868888481963 86.52792528840871 86.52792528840871 86.52792528840871 86.52792528840871 86.46639809558688 86.43563449917598 86.40487090276505 86.37410730635415 86.3125801135323 86.2818165171214 86.25105292071049 86.22028932429959 86.18952572788865 86.18952572788865 86.18952572788865 86.18952572788865 86.15876213147774 86.066471342245 86.00494414942318 85.94341695660134 85.88188976377953 85.8511261673686 85.78959897454678 85.75883537813587 85.69730818531404 85.66654458890312 85.66654458890312 85.63578099249222 85.63578099249222 85.63578099249222 85.63578099249222 85.66654458890312 85.63578099249222 85.63578099249222 85.66654458890312 85.66654458890312 85.66654458890312 85.63578099249222 85.66654458890312 85.66654458890312 85.63578099249222 85.63578099249222 85.63578099249222 85.63578099249222 85.60501739608131 85.57425379967039 85.48196301043765 85.42043581761581 85.32814502838306 85.1743270463285 85.05127266068484 84.89745467863028 84.80516388939753 84.74363669657572 84.7128731001648 84.68210950375389 84.62058231093206 84.62058231093206 84.58981871452116 84.55905511811024 84.55905511811024 84.55905511811024 84.52829152169932 84.49752792528841 84.43600073246657 84.34370994323385 84.2514191540011 84.12836476835744 84.09760117194652 84.06683757553562 84.00531038271379 83.94378318989196 83.91301959348104 83.85149240065923 83.85149240065923 83.8207288042483 83.78996520783738 83.72843801501557 83.66691082219373 83.60538362937191 83.51309284013917 83.42080205090642 83.32851126167368 83.23622047244095 83.1746932796191 83.08240249038637 82.99011170115364 82.95934810474272 82.95934810474272 82.92858450833181 82.89782091192089 82.86705731550998 82.83629371909906 82.80553012268815 82.80553012268815 82.77476652627723 82.77476652627723 82.80553012268815 82.80553012268815 82.83629371909906 82.86705731550998 82.86705731550998 82.86705731550998 82.86705731550998 82.86705731550998 82.83629371909906 82.80553012268815 82.77476652627723 82.74400292986633 82.68247573704448 82.65171214063358 82.62094854422267 82.55942135140083 82.55942135140083 82.49789415857902 82.43636696575717 82.40560336934627 82.34407617652444 82.28254898370261 82.2517853872917 82.19025819446988 82.15949459805896 82.12873100164805 82.09796740523714 82.06720380882622 82.0364402124153 82.0056766160044 81.97491301959349 81.94414942318257 81.94414942318257 81.91338582677164 81.91338582677164 81.88262223036074 81.88262223036074 81.85185863394983 81.8210950375389 81.79033144112799 81.72880424830618 81.72880424830618 81.69804065189524 81.69804065189524 81.66727705548433 81.66727705548433 81.63651345907343 81.63651345907343 81.6057498626625 81.5749862662516 81.54422266984068 81.54422266984068 81.54422266984068 81.51345907342977 81.51345907342977 81.48269547701886 81.48269547701886 81.48269547701886 81.48269547701886 81.48269547701886 81.45193188060794 81.45193188060794 81.45193188060794 81.45193188060794 81.45193188060794 81.45193188060794 81.45193188060794 81.45193188060794 81.45193188060794 81.45193188060794 81.45193188060794 81.45193188060794 81.45193188060794 81.45193188060794 81.45193188060794 81.45193188060794 81.45193188060794 81.48269547701886 81.45193188060794 81.45193188060794 81.45193188060794 81.48269547701886 81.45193188060794 81.45193188060794 81.45193188060794 81.45193188060794 81.35964109137521 81.29811389855337 81.26735030214246 81.17505951290971 81.1442959164988 81.08276872367698 81.08276872367698 81.08276872367698 81.08276872367698 81.1135323200879 81.1135323200879 81.1135323200879 81.1135323200879 81.1135323200879 81.1135323200879 81.1135323200879 81.1135323200879 81.1135323200879 81.1135323200879 81.08276872367698 81.08276872367698 81.05200512726607 81.05200512726607 81.05200512726607 81.02124153085515 81.02124153085515 80.99047793444424 80.95971433803334 80.9289507416224 80.8981871452115 80.86742354880059 80.83665995238968 80.80589635597875 80.80589635597875 80.77513275956784 80.77513275956784 80.77513275956784 80.77513275956784 80.74436916315693 80.74436916315693 80.74436916315693 80.71360556674601 80.71360556674601 80.68284197033509 80.68284197033509 80.68284197033509 80.68284197033509 80.71360556674601 80.68284197033509 80.68284197033509 80.68284197033509 80.62131477751328 80.62131477751328 80.59055118110236 80.59055118110236 80.55978758469143 80.52902398828053 80.49826039186962 80.4674967954587 80.4367331990478 80.40596960263687 80.37520600622597 80.34444240981506 80.31367881340414 80.25215162058231 80.2213880241714 80.19062442776048 80.15986083134956 80.12909723493865 80.06757004211681 80.006042849295 79.97527925288409 79.94451565647316 79.91375206006225 79.91375206006225 79.88298846365134 79.88298846365134 79.88298846365134 79.85222486724042 79.85222486724042 79.7906976744186 79.72917048159677 79.69840688518586 79.66764328877494 79.66764328877494 79.63687969236403 79.60611609595313 79.60611609595313 79.5753524995422 79.54458890313128 79.51382530672038 79.48306171030947 79.45229811389855 79.42153451748763 79.36000732466582 79.3292437282549 79.29848013184399 79.26771653543307 79.17542574620032 79.0831349569676 79.02160776414576 78.92931697491301 78.80626258926935 78.74473539644754 78.65244460721479 78.59091741439296 78.46786302874932 78.34480864310567 78.25251785387292 78.12946346822926 78.0064090825856 77.91411829335286 77.72953671488739 77.60648232924373 77.42190075077824 77.23731917231275 77.08350119025819 76.74510162973814 76.46822926203993 76.28364768357443 75.85295733382165 75.60684856253434 75.36073979124703 74.99157663431606 74.77623145943966 74.25325032045413 73.85332356711226 73.7302691814686 73.14576084966123 73.11499725325032 72.56125251785386 72.13056216810108 71.82292620399194 71.33070866141732 70.68467313678812 70.25398278703534 70.00787401574803 69.63871085881706 69.08496612342061 68.56198498443507 68.06976744186046 67.54678630287492 67.05456876030031 66.71616919978025 66.19318806079472 65.97784288591834 65.33180736128914 64.83958981871451 64.50119025819447 64.03973631203075 63.578282365867054 63.239882805347 62.716901666361466 62.44002929866325 62.101629738143195 61.76323017762314 61.45559421351401 60.994140267350296 60.655740706830244 60.07123237502289 59.67130562168101 59.39443325398278 58.96374290422999 58.65610694012086 58.37923457242263 57.917780626258924 57.67167185497162 57.33327229445156 56.994872733931516 56.77952755905512 56.441127998535066 56.16425563083684 55.88738326313862 55.54898370261857 55.27211133492034 54.90294817798937 54.47225782823658 54.01080388207288 53.610877128731005 53.33400476103277 53.057132393334555 52.65720563999267 52.38033327229445 51.98040651895257 51.488188976377955 51.211316608679724 50.995971433803334 50.62680827687237 50.2576451199414 49.980772752243176 49.642373191723124 49.27321003479216 48.9040468778612 48.65793810657389 48.44259293169749 47.95037538912287 47.70426661783556 47.36586705731551 47.1197582860282 46.750595129097235 46.41219556857718 46.196850393700785 45.85845083318073 45.58157846548251 45.24317890496246 45.05859732649698 44.72019776597693 44.50485259110053 44.25874381981322 43.95110785570408 43.73576268082768 43.48965390954038 43.305072331074896 42.93590917414393 42.72056399926753 42.47445522798022 42.22834645669291 42.013001281816514 41.82841970335103 41.55154733565281 41.243911371543675 40.936275407434536 40.72093023255814 40.413294268449 40.044131111518034 39.85954953305256 39.49038637612159 39.121223219190625 38.875114447903314 38.567478483794176 38.19831532686321 37.89067936275407 37.552279802234025 37.42922541659037 37.02929866324849 36.84471708478301 36.66013550631752 36.41402673503021 36.29097234938656 36.1679179637429 35.952572788866505 35.952572788866505 35.89104559604468 35.737227613990115 35.67570042116829 35.46035524629189 35.39882805347006 35.27577366782641 35.09119208936092 34.937374107306354 34.72202893242996 34.69126533601904 34.537447353964474 34.35286577549899 34.16828419703351 33.95293902215711 33.76835744369163 33.58377586522615 33.39919428676067 33.27613990111701 33.15308551547336 32.906976744186046 32.814685954953305 32.660867972898735 32.53781358725508 32.47628639443325 32.38399560520051 32.32246841237868 32.29170481596777 32.23017762314594 32.168650430324114 32.168650430324114 32.107123237502286 32.107123237502286 32.07635964109137 32.04559604468046 32.014832448269544 31.95330525544772 31.922541659036806 31.79948727339315 31.737960080571323 31.64566929133858 31.522614905694926 31.461087712873102 31.36879692364036 31.21497894158579 31.12268815235305 31.030397363120308 30.96887017029848 30.87657938106574 30.784288591832997 30.72276139901117 30.630470609778428 30.538179820545686 30.507416224134772 30.445889031312948 30.38436183849112 30.322834645669293 30.199780260025637 30.107489470792896 30.045962277971068 29.922907892327412 29.8921442959165 29.83061710309467 29.799853506683757 29.769089910272843 29.73832631386193 29.73832631386193 29.73832631386193 29.707562717451015 29.707562717451015 29.6767991210401 29.646035524629188 29.646035524629188 29.615271928218274 29.615271928218274 29.615271928218274 29.615271928218274 29.615271928218274 29.615271928218274 29.58450833180736 29.58450833180736 29.58450833180736 29.553744735396446 29.522981138985532 29.522981138985532 29.522981138985532 29.49221754257462 29.461453946163708 29.461453946163708 29.461453946163708 29.430690349752794 29.430690349752794 29.430690349752794 29.430690349752794 29.39992675334188 29.39992675334188 29.369163156930966 29.30763596410914 29.276872367698225 29.215345174876397 29.184581578465483 29.123054385643655 29.061527192821828 29.030763596410914 29.0 28.969236403589086 28.969236403589086 28.969236403589086 28.969236403589086 28.969236403589086 28.938472807178172 28.938472807178172 28.90770921076726 28.90770921076726 28.876945614356345 28.876945614356345 28.876945614356345 28.84618201794543 28.84618201794543 28.84618201794543 28.815418421534517 28.815418421534517 28.815418421534517 28.784654825123603 28.784654825123603 28.784654825123603 28.784654825123603 28.784654825123603 28.75389122871269 28.75389122871269 28.723127632301775 28.723127632301775 28.723127632301775 28.723127632301775 28.723127632301775 28.723127632301775 28.723127632301775 28.723127632301775 28.723127632301775 28.723127632301775 28.723127632301775 28.723127632301775 28.723127632301775 28.723127632301775 28.723127632301775 28.69236403589086 28.661600439479948 28.661600439479948 28.661600439479948 28.661600439479948 28.630836843069034 28.661600439479948 28.630836843069034 28.630836843069034 28.630836843069034 28.630836843069034 28.630836843069034 28.630836843069034 28.630836843069034 28.630836843069034 28.630836843069034 28.60007324665812 28.60007324665812 28.60007324665812 28.60007324665812 28.60007324665812 28.60007324665812 28.60007324665812 28.60007324665812 28.60007324665812 28.60007324665812 28.60007324665812 28.60007324665812 28.60007324665812 28.60007324665812 28.569309650247206 28.569309650247206 28.569309650247206 28.569309650247206 28.569309650247206 28.569309650247206 28.538546053836292 28.569309650247206 28.569309650247206 28.538546053836292 28.538546053836292 28.538546053836292 28.569309650247206 28.538546053836292 28.538546053836292 28.538546053836292 28.538546053836292 28.538546053836292 28.538546053836292 28.538546053836292 28.538546053836292 28.569309650247206 28.538546053836292 28.538546053836292 28.569309650247206 28.538546053836292 28.538546053836292 28.538546053836292 28.538546053836292 28.538546053836292 28.538546053836292 28.538546053836292 28.538546053836292 28.538546053836292 28.538546053836292 28.538546053836292 28.538546053836292 28.569309650247206 28.538546053836292 28.538546053836292 28.538546053836292 28.538546053836292 28.538546053836292 28.538546053836292 28.538546053836292 28.538546053836292 28.538546053836292 28.538546053836292 28.538546053836292 28.538546053836292 28.538546053836292 28.538546053836292 28.538546053836292 28.538546053836292 28.538546053836292 28.538546053836292 28.538546053836292 28.538546053836292 28.538546053836292 28.538546053836292 28.538546053836292 28.538546053836292 28.538546053836292 28.538546053836292 28.538546053836292 28.538546053836292 28.538546053836292 28.538546053836292 28.538546053836292 28.538546053836292 28.538546053836292 28.538546053836292 28.538546053836292 28.538546053836292 28.538546053836292 28.538546053836292 28.538546053836292 28.538546053836292 28.538546053836292 28.538546053836292 28.538546053836292 28.538546053836292 28.538546053836292 28.538546053836292 28.538546053836292 28.538546053836292 28.538546053836292 28.538546053836292 28.538546053836292 28.538546053836292 28.538546053836292 28.538546053836292 28.538546053836292 28.538546053836292 28.538546053836292 28.538546053836292 28.538546053836292 28.538546053836292 28.538546053836292 28.538546053836292 28.538546053836292 28.538546053836292 28.538546053836292 28.538546053836292 28.538546053836292 28.538546053836292 28.538546053836292 28.538546053836292 28.538546053836292 28.538546053836292 28.538546053836292 28.538546053836292 28.538546053836292 28.538546053836292 28.538546053836292 28.538546053836292 28.538546053836292 28.538546053836292 28.538546053836292 28.538546053836292 28.538546053836292 28.538546053836292 28.538546053836292 28.538546053836292 28.538546053836292 28.538546053836292 28.538546053836292 28.538546053836292 28.538546053836292 28.538546053836292 28.538546053836292 28.538546053836292 28.538546053836292 28.538546053836292 28.538546053836292 28.538546053836292 28.538546053836292 28.538546053836292 28.538546053836292 28.538546053836292 28.538546053836292 28.538546053836292 28.538546053836292 28.538546053836292 28.538546053836292 28.538546053836292 28.538546053836292 28.538546053836292 28.538546053836292 28.538546053836292 28.538546053836292 28.538546053836292 28.538546053836292 28.538546053836292 28.538546053836292 28.538546053836292 28.538546053836292 28.538546053836292 28.538546053836292 28.538546053836292 28.538546053836292 28.538546053836292 28.538546053836292 28.538546053836292 28.538546053836292 28.538546053836292 28.538546053836292 28.538546053836292 28.538546053836292 28.538546053836292 28.538546053836292 28.538546053836292 28.538546053836292 28.538546053836292 28.538546053836292 28.538546053836292 28.538546053836292 28.538546053836292 28.538546053836292 28.538546053836292 28.538546053836292 28.538546053836292 28.538546053836292 28.538546053836292 28.538546053836292 28.538546053836292 28.538546053836292 28.538546053836292 28.538546053836292 28.538546053836292 28.538546053836292 28.538546053836292 28.538546053836292 28.538546053836292 28.538546053836292 28.538546053836292 28.538546053836292 28.538546053836292 28.538546053836292 28.538546053836292 28.538546053836292 28.538546053836292 28.538546053836292 28.538546053836292 28.50778245742538 28.50778245742538 28.50778245742538 28.477018861014468 28.477018861014468 28.477018861014468 28.477018861014468 28.477018861014468 28.477018861014468 28.446255264603554 28.446255264603554 28.446255264603554 28.446255264603554 28.446255264603554 28.477018861014468 28.446255264603554 28.446255264603554 28.446255264603554 28.446255264603554 28.446255264603554 28.446255264603554 28.446255264603554 28.446255264603554 28.446255264603554 28.446255264603554 28.446255264603554 28.446255264603554 28.446255264603554 28.446255264603554 28.446255264603554 28.446255264603554 28.446255264603554 28.446255264603554 28.446255264603554 28.446255264603554 28.446255264603554 28.446255264603554 28.446255264603554 28.446255264603554 28.446255264603554 28.446255264603554 28.446255264603554 28.446255264603554 28.446255264603554 28.446255264603554 28.446255264603554 28.446255264603554 28.446255264603554 28.446255264603554 28.446255264603554 28.446255264603554 28.446255264603554 28.446255264603554 28.446255264603554 28.446255264603554 28.446255264603554 28.446255264603554 28.446255264603554 28.446255264603554 28.446255264603554 28.446255264603554 28.446255264603554 28.446255264603554 28.446255264603554 28.446255264603554 28.446255264603554 28.446255264603554 28.446255264603554 28.446255264603554 28.446255264603554 28.446255264603554 28.446255264603554 28.446255264603554 28.446255264603554 28.446255264603554 28.446255264603554 28.446255264603554 28.446255264603554 28.446255264603554 28.446255264603554 28.446255264603554 28.446255264603554 28.446255264603554 28.446255264603554 28.446255264603554 28.446255264603554 28.446255264603554 28.446255264603554 28.446255264603554 28.446255264603554 28.446255264603554 28.446255264603554 28.446255264603554 28.446255264603554 28.446255264603554 28.446255264603554 28.446255264603554 28.446255264603554 28.446255264603554 28.446255264603554 28.446255264603554 28.446255264603554 28.446255264603554 28.446255264603554 28.446255264603554 28.446255264603554 28.446255264603554 28.446255264603554 28.446255264603554 28.446255264603554 28.446255264603554 28.446255264603554 28.446255264603554 28.446255264603554 28.446255264603554 28.446255264603554 28.446255264603554 28.446255264603554 28.446255264603554 28.446255264603554 28.446255264603554 28.446255264603554 28.446255264603554 28.446255264603554 28.446255264603554 28.446255264603554 28.446255264603554 28.446255264603554 28.446255264603554 28.446255264603554 28.446255264603554 28.446255264603554 28.446255264603554 28.446255264603554 28.446255264603554 28.446255264603554 28.446255264603554 28.446255264603554 28.446255264603554 28.446255264603554 28.446255264603554 28.446255264603554 28.446255264603554 28.446255264603554 28.446255264603554 28.446255264603554 28.446255264603554 28.446255264603554 28.446255264603554 28.446255264603554 28.446255264603554 28.446255264603554 28.446255264603554 28.446255264603554 28.446255264603554 28.446255264603554 28.446255264603554 28.446255264603554 28.446255264603554 28.446255264603554 28.446255264603554 28.446255264603554 28.446255264603554 28.446255264603554 28.446255264603554 28.446255264603554 28.446255264603554 28.446255264603554 28.446255264603554 28.446255264603554 28.446255264603554 28.446255264603554 28.446255264603554 28.446255264603554 28.446255264603554 28.446255264603554 28.446255264603554 28.446255264603554 28.446255264603554 28.446255264603554 28.446255264603554 28.446255264603554 28.446255264603554 28.446255264603554 28.446255264603554 28.446255264603554 28.446255264603554 28.446255264603554 28.446255264603554 28.41549166819264 28.41549166819264 28.41549166819264 28.41549166819264 28.41549166819264 28.41549166819264 28.41549166819264 28.41549166819264 28.41549166819264 28.41549166819264 28.41549166819264 28.41549166819264 28.41549166819264 28.41549166819264 28.41549166819264 28.41549166819264 28.41549166819264 28.41549166819264 28.41549166819264 28.41549166819264 28.41549166819264 28.41549166819264 28.41549166819264 28.41549166819264 28.41549166819264 28.41549166819264 28.41549166819264 28.41549166819264 28.41549166819264 28.41549166819264 28.41549166819264 28.41549166819264 28.41549166819264 28.41549166819264 28.41549166819264 28.41549166819264 28.41549166819264 28.41549166819264 28.41549166819264 28.41549166819264 28.41549166819264 28.41549166819264 28.41549166819264 28.41549166819264 28.41549166819264 28.41549166819264 28.41549166819264 28.41549166819264 28.41549166819264 28.41549166819264 28.41549166819264 28.41549166819264 28.41549166819264 28.41549166819264 28.41549166819264 28.41549166819264 28.41549166819264 28.41549166819264 28.41549166819264 28.41549166819264 28.41549166819264 28.41549166819264 28.41549166819264 28.41549166819264 28.41549166819264 28.41549166819264 28.41549166819264 28.41549166819264 28.41549166819264 28.41549166819264 28.41549166819264 28.41549166819264 28.41549166819264 28.41549166819264 28.41549166819264 28.41549166819264 28.41549166819264 28.41549166819264 28.41549166819264 28.41549166819264 28.41549166819264 28.41549166819264 28.41549166819264 28.41549166819264 28.41549166819264 28.41549166819264 28.41549166819264 28.41549166819264 28.41549166819264 28.41549166819264 28.41549166819264 28.41549166819264 28.41549166819264 28.41549166819264 28.41549166819264 28.41549166819264 28.41549166819264 28.41549166819264 28.41549166819264 28.41549166819264 28.41549166819264 28.41549166819264 28.41549166819264 28.41549166819264 28.41549166819264 28.41549166819264 28.41549166819264 28.41549166819264 28.41549166819264 28.41549166819264 28.41549166819264 28.41549166819264 28.41549166819264 28.41549166819264 28.41549166819264 28.41549166819264 28.41549166819264 28.41549166819264 28.41549166819264 28.41549166819264 28.41549166819264 28.41549166819264 28.41549166819264 28.41549166819264 28.41549166819264 28.41549166819264 28.41549166819264 28.41549166819264 28.41549166819264 28.41549166819264 28.41549166819264 28.41549166819264 28.41549166819264 28.41549166819264 28.41549166819264 28.41549166819264 28.41549166819264 28.41549166819264 28.41549166819264 28.41549166819264 28.41549166819264 28.41549166819264 28.41549166819264 28.41549166819264 28.41549166819264 28.41549166819264 28.41549166819264 28.41549166819264 28.41549166819264 28.41549166819264 28.41549166819264 28.41549166819264 28.41549166819264 28.41549166819264 28.41549166819264 28.41549166819264 28.41549166819264 28.41549166819264 28.41549166819264 28.41549166819264 28.41549166819264 28.41549166819264 28.41549166819264 28.41549166819264 28.41549166819264 28.41549166819264 28.41549166819264 28.41549166819264 28.41549166819264 28.41549166819264 28.41549166819264 28.41549166819264 28.41549166819264 28.41549166819264 28.41549166819264 28.41549166819264 28.41549166819264 28.41549166819264 28.41549166819264 28.41549166819264 28.41549166819264 28.41549166819264 28.41549166819264 28.41549166819264 28.41549166819264 28.41549166819264 28.41549166819264 28.41549166819264 28.41549166819264 28.41549166819264 28.41549166819264 28.41549166819264 28.41549166819264 28.41549166819264 28.41549166819264 28.41549166819264 28.41549166819264 28.41549166819264 28.41549166819264 28.41549166819264 28.41549166819264 28.41549166819264 28.41549166819264 28.41549166819264 28.41549166819264 28.41549166819264 28.41549166819264 28.41549166819264 28.41549166819264 28.41549166819264 28.41549166819264 28.41549166819264 28.41549166819264 28.41549166819264 28.41549166819264 28.41549166819264 28.41549166819264 28.41549166819264 28.41549166819264 28.41549166819264 28.41549166819264 28.41549166819264 28.41549166819264 28.41549166819264 28.41549166819264 28.41549166819264 28.41549166819264 28.41549166819264 28.41549166819264 28.41549166819264 28.41549166819264 28.41549166819264 28.41549166819264 28.41549166819264 28.41549166819264 28.41549166819264 28.41549166819264 28.41549166819264 28.41549166819264 28.41549166819264 28.41549166819264 28.41549166819264 28.384728071781726 28.41549166819264 28.41549166819264 28.41549166819264 28.41549166819264 28.41549166819264 28.41549166819264 28.41549166819264 28.41549166819264 28.41549166819264 28.41549166819264 28.41549166819264 28.41549166819264 28.41549166819264 28.41549166819264 28.41549166819264 28.41549166819264 28.41549166819264 28.41549166819264 28.41549166819264 28.41549166819264 28.41549166819264 28.41549166819264 28.41549166819264 28.41549166819264 28.41549166819264 28.41549166819264 28.41549166819264 28.41549166819264 28.41549166819264 28.41549166819264 28.41549166819264 28.41549166819264 28.41549166819264 28.41549166819264 28.41549166819264 28.41549166819264 28.41549166819264 28.446255264603554 28.477018861014468 28.538546053836292 28.60007324665812 28.69236403589086 28.815418421534517 28.938472807178172 29.09229078923274 29.123054385643655 29.215345174876397 29.30763596410914 29.39992675334188 29.522981138985532 29.707562717451015 29.769089910272843 29.8921442959165 29.98443508514924 30.07672587438198 30.322834645669293 30.445889031312948 30.5689434169566 30.753524995422083 30.907342977476652 31.153451748763963 31.491851309284012 31.830250869804065 32.168650430324114 32.414759201611425 32.75315876213148 33.12232191906244 33.33766709393884 33.76835744369163 33.983702618568024 34.16828419703351 34.44515656473173 34.75279252884087 34.99890130012818 35.30653726423732 35.55264603552463 35.952572788866505 36.26020875297564 36.56784471708478 37.09082585607032 37.398461820179456 37.9522065555759 38.25984251968504 38.81358725508149 39.39809558688884 39.890313129463465 40.72093023255814 41.15162058231093 41.67460172129647 42.32063724592565 43.028199963376665 43.7665262772386 44.41256180186779 44.935542940853324 45.427760483427946 46.104559604468044 46.84288591832997 47.5812122321919 48.073429774766524 48.780992492217536 49.48855520966856 49.980772752243176 50.4729902948178 51.30360739791247 51.76506134407617 52.34956967588353 52.78026002563632 53.364768357443694 54.13385826771653 54.5030214246475 54.841420985167545 55.395165720563995 55.76432887749496 56.28731001648049 56.81029115546603 57.27174510162973 57.70243545138253 58.04083501190259 58.317707379600805 58.7483977293536 59.2098516755173 59.579014832448266 59.886650796557404 60.28657754989928 60.71726789965207 61.02490386376122 61.48635780992492 61.91704815967771 62.28621131660868 62.65537447353964 62.93224684123786 63.424464383812484 63.70133675151071 64.00897271561985 64.22431789049625 64.50119025819447 64.68577183665994 64.99340780076909 65.20875297564548 65.54715253616553 65.85478850027468 66.07013367515107 66.28547885002746 66.53158762131477 66.86998718183483 67.39296832082036 67.66984068851858 68.13129463468229 68.56198498443507 68.86962094854422 69.300311298297 69.60794726240616 70.06940120856986 70.53085515473356 70.86925471525362 71.2999450650064 71.76139901117011 72.09979857169017 72.74583409631936 73.17652444607214 73.5456876030031 73.91485075993407 74.6224134773851 74.99157663431606 75.45303058047976 75.79143014099981 76.28364768357443 76.43746566562899 76.8681560153818 77.48342794360008 77.82182750412012 78.25251785387292 78.71397180003662 78.99084416773485 79.42153451748763 79.66764328877494 80.06757004211681 80.4367331990478 80.68284197033509 80.99047793444424 81.29811389855337 81.51345907342977 81.72880424830618 81.91338582677164 82.12873100164805 82.37483977293536 82.62094854422267 82.89782091192089 83.1439296832082 83.29774766526276 83.63614722578282 83.78996520783738 84.06683757553562 84.4667643288775 84.65134590734297 84.92821827504119 85.1743270463285 85.358908624794 85.54349020325947 85.69730818531404 85.88188976377953 86.03570774583409 86.12799853506684 86.25105292071049 86.34334370994324 86.40487090276505 86.40487090276505 86.40487090276505 86.40487090276505 86.40487090276505 86.37410730635415 86.37410730635415 86.37410730635415 86.37410730635415 86.37410730635415 86.37410730635415 86.37410730635415 86.37410730635415 86.37410730635415 86.37410730635415 86.37410730635415 86.37410730635415 86.37410730635415 86.37410730635415 86.37410730635415 86.37410730635415 86.37410730635415 86.34334370994324 86.34334370994324 86.34334370994324 86.3125801135323 86.2818165171214 86.2818165171214 86.25105292071049 86.25105292071049 86.22028932429959 86.22028932429959 86.22028932429959 86.18952572788865 86.18952572788865 86.18952572788865 86.18952572788865 86.15876213147774 86.12799853506684 86.09723493865592 86.066471342245 86.03570774583409 86.03570774583409 86.00494414942318 86.00494414942318 86.00494414942318 86.00494414942318 86.00494414942318 86.00494414942318 86.00494414942318 86.00494414942318 86.00494414942318 86.00494414942318 86.00494414942318 85.97418055301226 85.94341695660134 85.91265336019043 85.88188976377953 85.8203625709577 85.78959897454678 85.75883537813587 85.72807178172496 85.69730818531404 85.69730818531404 85.69730818531404 85.66654458890312 85.66654458890312 85.63578099249222 85.63578099249222 85.63578099249222 85.63578099249222 85.63578099249222 85.63578099249222 85.63578099249222 85.60501739608131 85.60501739608131 85.63578099249222 85.60501739608131 85.57425379967039 85.57425379967039 85.51272660684856 85.48196301043765 85.45119941402672 85.42043581761581 85.3896722212049 85.358908624794 85.32814502838306 85.26661783556125 85.23585423915033 85.1435634499176 85.11279985350667 85.08203625709577 85.05127266068484 85.02050906427394 84.98974546786303 84.92821827504119 84.86669108221938 84.80516388939753 84.77440029298663 84.74363669657572 84.7128731001648 84.68210950375389 84.65134590734297 84.65134590734297 84.62058231093206 84.58981871452116 84.55905511811024 84.52829152169932 84.52829152169932 84.49752792528841 84.49752792528841 84.49752792528841 84.49752792528841 84.4667643288775 84.43600073246657 84.37447353964475 84.34370994323385 84.31294634682291 84.31294634682291 84.31294634682291 84.31294634682291 84.31294634682291 84.282182750412 84.282182750412 84.2514191540011 84.2514191540011 84.2514191540011 84.22065555759018 84.18989196117926 84.18989196117926 84.12836476835744 84.15912836476835 84.12836476835744 84.12836476835744 84.12836476835744 84.12836476835744 84.12836476835744 84.12836476835744 84.15912836476835 84.15912836476835 84.12836476835744 84.15912836476835 84.12836476835744 84.15912836476835 84.12836476835744 84.15912836476835 84.12836476835744 84.06683757553562 84.0360739791247 83.97454678630287 83.91301959348104 83.91301959348104 83.85149240065923 83.85149240065923 83.85149240065923 83.8207288042483 83.8207288042483 83.85149240065923 83.8207288042483 83.8207288042483 83.85149240065923 83.85149240065923 83.85149240065923 83.85149240065923 83.85149240065923 83.85149240065923 83.85149240065923 83.85149240065923 83.85149240065923 83.85149240065923 83.85149240065923 83.85149240065923 83.85149240065923 83.85149240065923 83.85149240065923 83.85149240065923 83.85149240065923 83.85149240065923 83.85149240065923 83.85149240065923 83.85149240065923 83.85149240065923 83.85149240065923 83.85149240065923 83.85149240065923 83.85149240065923 83.85149240065923 83.85149240065923 83.85149240065923 83.85149240065923 83.85149240065923 83.85149240065923 83.85149240065923 83.85149240065923 83.85149240065923 83.8207288042483 83.8207288042483 83.75920161142648 83.69767441860465 83.66691082219373 83.63614722578282 83.63614722578282 83.63614722578282 83.60538362937191 83.60538362937191 83.60538362937191 83.63614722578282 83.60538362937191 83.60538362937191 83.60538362937191 83.60538362937191 83.60538362937191 83.60538362937191 83.60538362937191 83.60538362937191 83.60538362937191 83.60538362937191 83.60538362937191 83.57462003296098 83.54385643655007 83.51309284013917 83.42080205090642 83.39003845449551 83.32851126167368 83.23622047244095 83.1746932796191 83.11316608679729 83.05163889397545 83.02087529756454 83.02087529756454 83.02087529756454 82.99011170115364 82.99011170115364 82.99011170115364 82.99011170115364 82.99011170115364 83.02087529756454 82.99011170115364 82.99011170115364 82.99011170115364 82.95934810474272 82.89782091192089 82.86705731550998 82.83629371909906 82.80553012268815 82.80553012268815 82.77476652627723 82.77476652627723 82.77476652627723 82.77476652627723 82.77476652627723 82.74400292986633 82.74400292986633 82.74400292986633 82.74400292986633 82.71323933345542 82.68247573704448 82.65171214063358 82.65171214063358 82.65171214063358 82.62094854422267 82.59018494781176 82.59018494781176 82.59018494781176 82.55942135140083 82.55942135140083 82.55942135140083 82.55942135140083 82.55942135140083 82.55942135140083 82.55942135140083 82.55942135140083 82.52865775498992 82.55942135140083 82.55942135140083 82.55942135140083 82.55942135140083 82.55942135140083 82.55942135140083 82.55942135140083 82.55942135140083 82.55942135140083 82.55942135140083 82.55942135140083 82.55942135140083 82.59018494781176 82.59018494781176 82.59018494781176 82.59018494781176 82.59018494781176 82.59018494781176 82.59018494781176 82.59018494781176 82.59018494781176 82.59018494781176 82.55942135140083 82.55942135140083 82.55942135140083 82.55942135140083 82.55942135140083 82.59018494781176 82.59018494781176 82.55942135140083 82.59018494781176 82.59018494781176 82.59018494781176 82.59018494781176 82.59018494781176 82.59018494781176 82.59018494781176 82.59018494781176 82.59018494781176 82.59018494781176 82.55942135140083 82.59018494781176 82.59018494781176 82.59018494781176 82.59018494781176 82.59018494781176 82.55942135140083 82.55942135140083 82.55942135140083 82.55942135140083 82.55942135140083 82.55942135140083 82.52865775498992 82.52865775498992 82.52865775498992 82.52865775498992 82.55942135140083 82.52865775498992 82.52865775498992 82.52865775498992 82.52865775498992 82.52865775498992 82.55942135140083 82.52865775498992 82.55942135140083 82.52865775498992 82.55942135140083 82.55942135140083 82.52865775498992 82.52865775498992 82.52865775498992 82.55942135140083 82.52865775498992 82.52865775498992 82.52865775498992 82.52865775498992 82.52865775498992 82.52865775498992 82.49789415857902 82.49789415857902 82.4671305621681 82.4671305621681 82.4671305621681 82.43636696575717 82.43636696575717 82.43636696575717 82.40560336934627 82.37483977293536 82.34407617652444 82.31331258011353 82.28254898370261 82.2517853872917 82.19025819446988 82.09796740523714 81.94414942318257 81.88262223036074 81.75956784471708 81.63651345907343 81.48269547701886 81.32887749496429 81.20582310932063 81.08276872367698 80.95971433803334 80.83665995238968 80.68284197033509 80.49826039186962 80.37520600622597 80.15986083134956 79.97527925288409 79.7906976744186 79.5753524995422 79.42153451748763 79.17542574620032 78.92931697491301 78.77549899285845 78.52939022157113 78.28328145028382 78.03717267899651 77.88335469694195 77.57571873283281 77.29884636513458 77.08350119025819 76.74510162973814 76.40670206921808 76.16059329793077 75.66837575535615 75.39150338765793 75.11463101995972 74.74546786302875 74.34554110968686 74.09943233839957 73.7302691814686 73.48416041018129 73.14576084966123 72.71507049990844 72.56125251785386 72.28438015015564 71.9459805896356 71.69987181834829 71.36147225782824 70.96154550448635 70.59238234755539 70.16169199780259 69.91558322651528 69.60794726240616 69.17725691265336 68.65427577366782 68.13129463468229 67.79289507416223 67.2391503387658 66.71616919978025 66.31624244643838 65.82402490386376 65.48562534334371 64.96264420435817 64.47042666178355 64.1320271012635 63.60904596227797 62.93224684123786 62.59384728071782 62.101629738143195 61.947811756088626 61.51712140633583 61.086431056583045 60.80955868888482 60.22505035707745 59.82512360373558 59.51748763962644 59.117560886284565 58.96374290422999 58.40999816883354 57.97930781908075 57.70243545138253 57.302508698040654 56.90258194469877 56.59494598058963 56.25654642006958 56.01043764878227 55.641274491851306 55.27211133492034 55.026002563633035 54.65683940670207 54.31843984618202 54.01080388207288 53.70316791796374 53.580113532320084 53.33400476103277 53.026368796923634 52.74949642922542 52.44186046511628 51.91887932613075 51.64200695843252 51.242080205090645 51.05749862662516 50.534517487639626 49.980772752243176 49.82695477018861 49.427028016846734 49.027101263504846 48.75022889580663 48.38106573887566 48.13495696758835 47.7965574070683 47.45815784654825 47.24281267167186 46.904413111151804 46.56601355063175 46.31990477934444 45.950741622413474 45.5508148690716 45.27394250137337 44.75096136238784 44.474088994689616 44.135689434169564 43.85881706647134 43.48965390954038 43.15125434902033 42.8743819813221 42.53598242080205 42.16681926387108 41.951474088994686 41.58231093206372 41.36696575718733 41.02856619666728 40.72093023255814 40.50558505768174 40.1979490935726 39.82878593664164 39.582677165354326 39.21351400842337 38.8443508514924 38.50595129097235 38.29060611609595 38.075260941219554 37.73686138069951 37.398461820179456 37.060062259659404 36.752426295550265 36.56784471708478 36.32173594579747 36.13715436733199 36.044863578099246 35.86028199963376 35.67570042116829 35.55264603552463 35.429591649880976 35.30653726423732 35.15271928218275 34.96813770371727 34.8143197216627 34.69126533601904 34.56821095037539 34.41439296832082 34.229811389855335 34.01446621497894 33.860648232924376 33.58377586522615 33.460721479582496 33.30690349752793 33.18384911188427 33.0300311298297 32.87621314777513 32.75315876213148 32.63010437648782 32.414759201611425 32.32246841237868 32.23017762314594 32.107123237502286 32.014832448269544 31.86101446621498 31.768723676982237 31.64566929133858 31.522614905694926 31.399560520051274 31.338033327229446 31.245742537996705 31.184215345174877 31.12268815235305 31.06116095953122 30.938106573887566 30.845815784654825 30.784288591832997 30.66123420618934 30.599707013367514 30.507416224134772 30.445889031312948 30.322834645669293 30.169016663614723 30.13825306720381 30.07672587438198 29.922907892327412 29.8921442959165 29.83061710309467 29.73832631386193 29.707562717451015 29.58450833180736 29.553744735396446 29.553744735396446 29.522981138985532 29.522981138985532 29.522981138985532 29.49221754257462 29.461453946163708 29.430690349752794 29.39992675334188 29.369163156930966 29.338399560520052 29.30763596410914 29.276872367698225 29.24610877128731 29.215345174876397 29.215345174876397 29.215345174876397 29.215345174876397 29.184581578465483 29.184581578465483 29.15381798205457 29.15381798205457 29.15381798205457 29.123054385643655 29.123054385643655 29.123054385643655 29.09229078923274 29.09229078923274 29.09229078923274 29.061527192821828 29.061527192821828 29.061527192821828 29.061527192821828 29.030763596410914 29.030763596410914 29.030763596410914 29.030763596410914 29.0 29.0 29.0 28.969236403589086 28.938472807178172 28.90770921076726 28.90770921076726 28.876945614356345 28.84618201794543 28.84618201794543 28.84618201794543 28.815418421534517 28.815418421534517 28.815418421534517 28.815418421534517 28.815418421534517 28.815418421534517 28.784654825123603 28.784654825123603 28.784654825123603 28.784654825123603 28.784654825123603 28.784654825123603 28.784654825123603 28.784654825123603 28.784654825123603 28.75389122871269 28.784654825123603 28.75389122871269 28.75389122871269 28.723127632301775 28.69236403589086 28.661600439479948 28.630836843069034 28.60007324665812 28.60007324665812 28.569309650247206 28.569309650247206 28.569309650247206 28.569309650247206 28.569309650247206 28.569309650247206 28.569309650247206 28.569309650247206 28.569309650247206 28.569309650247206 28.569309650247206 28.569309650247206 28.569309650247206 28.569309650247206 28.569309650247206 28.569309650247206 28.538546053836292 28.569309650247206 28.538546053836292 28.538546053836292 28.538546053836292 28.538546053836292 28.538546053836292 28.538546053836292 28.538546053836292 28.538546053836292 28.538546053836292 28.538546053836292 28.538546053836292 28.538546053836292 28.50778245742538 28.538546053836292 28.538546053836292 28.538546053836292 28.50778245742538 28.50778245742538 28.50778245742538 28.50778245742538 28.50778245742538 28.50778245742538 28.50778245742538 28.50778245742538 28.50778245742538 28.50778245742538 28.50778245742538 28.477018861014468 28.50778245742538 28.50778245742538 28.50778245742538 28.50778245742538 28.477018861014468 28.477018861014468 28.50778245742538 28.50778245742538 28.477018861014468 28.477018861014468 28.477018861014468 28.50778245742538 28.477018861014468 28.477018861014468 28.477018861014468 28.477018861014468 28.477018861014468 28.446255264603554 28.446255264603554 28.446255264603554 28.446255264603554 28.446255264603554 28.446255264603554 28.41549166819264 28.41549166819264 28.41549166819264 28.41549166819264 28.41549166819264 28.41549166819264 28.41549166819264 28.41549166819264 28.41549166819264 28.41549166819264 28.384728071781726 28.41549166819264 28.41549166819264 28.41549166819264 28.384728071781726 28.41549166819264 28.41549166819264 28.41549166819264 28.384728071781726 28.384728071781726 28.384728071781726 28.384728071781726 28.384728071781726 28.384728071781726 28.384728071781726 28.384728071781726 28.384728071781726 28.384728071781726 28.384728071781726 28.384728071781726 28.384728071781726 28.384728071781726 28.384728071781726 28.384728071781726 28.384728071781726 28.384728071781726 28.384728071781726 28.384728071781726 28.353964475370812 28.353964475370812 28.353964475370812 28.3232008789599 28.3232008789599 28.3232008789599 28.3232008789599 28.292437282548985 28.292437282548985 28.292437282548985 28.292437282548985 28.292437282548985 28.292437282548985 28.292437282548985 28.292437282548985 28.292437282548985 28.292437282548985 28.292437282548985 28.292437282548985 28.292437282548985 28.292437282548985 28.292437282548985 28.292437282548985 28.292437282548985 28.292437282548985 28.292437282548985 28.292437282548985 28.292437282548985 28.292437282548985 28.292437282548985 28.292437282548985 28.292437282548985 28.292437282548985 28.292437282548985 28.292437282548985 28.292437282548985 28.292437282548985 28.292437282548985 28.292437282548985 28.292437282548985 28.292437282548985 28.292437282548985 28.292437282548985 28.292437282548985 28.292437282548985 28.292437282548985 28.292437282548985 28.292437282548985 28.292437282548985 28.292437282548985 28.292437282548985 28.292437282548985 28.292437282548985 28.292437282548985 28.292437282548985 28.292437282548985 28.292437282548985 28.292437282548985 28.292437282548985 28.292437282548985 28.292437282548985 28.292437282548985 28.292437282548985 28.292437282548985 28.292437282548985 28.292437282548985 28.292437282548985 28.292437282548985 28.292437282548985 28.292437282548985 28.292437282548985 28.292437282548985 28.292437282548985 28.292437282548985 28.292437282548985 28.292437282548985 28.292437282548985 28.292437282548985 28.292437282548985 28.292437282548985 28.292437282548985 28.292437282548985 28.292437282548985 28.292437282548985 28.292437282548985 28.292437282548985 28.292437282548985 28.292437282548985 28.292437282548985 28.292437282548985 28.292437282548985 28.292437282548985 28.292437282548985 28.292437282548985 28.292437282548985 28.292437282548985 28.292437282548985 28.292437282548985 28.292437282548985 28.292437282548985 28.292437282548985 28.292437282548985 28.292437282548985 28.292437282548985 28.3232008789599 28.292437282548985 28.292437282548985 28.292437282548985 28.292437282548985 28.292437282548985 28.292437282548985 28.292437282548985 28.292437282548985 28.292437282548985 28.292437282548985 28.292437282548985 28.292437282548985 28.292437282548985 28.292437282548985 28.292437282548985 28.292437282548985 28.292437282548985 28.292437282548985 28.292437282548985 28.292437282548985 28.292437282548985 28.292437282548985 28.292437282548985 28.292437282548985 28.292437282548985 28.292437282548985 28.292437282548985 28.292437282548985 28.292437282548985 28.292437282548985 28.292437282548985 28.292437282548985 28.292437282548985 28.292437282548985 28.292437282548985 28.292437282548985 28.292437282548985 28.292437282548985 28.292437282548985 28.292437282548985 28.292437282548985 28.292437282548985 28.292437282548985 28.292437282548985 28.292437282548985 28.292437282548985 28.292437282548985 28.292437282548985 28.292437282548985 28.292437282548985 28.292437282548985 28.292437282548985 28.292437282548985 28.292437282548985 28.292437282548985 28.292437282548985 28.292437282548985 28.292437282548985 28.292437282548985 28.292437282548985 28.292437282548985 28.292437282548985 28.292437282548985 28.292437282548985 28.292437282548985 28.292437282548985 28.292437282548985 28.292437282548985 28.292437282548985 28.292437282548985 28.292437282548985 28.292437282548985 28.292437282548985 28.292437282548985 28.292437282548985 28.292437282548985 28.292437282548985 28.292437282548985 28.292437282548985 28.292437282548985 28.292437282548985 28.292437282548985 28.292437282548985 28.292437282548985 28.292437282548985 28.292437282548985 28.292437282548985 28.292437282548985 28.292437282548985 28.292437282548985 28.292437282548985 28.292437282548985 28.292437282548985 28.292437282548985 28.292437282548985 28.292437282548985 28.292437282548985 28.292437282548985 28.292437282548985 28.292437282548985 28.292437282548985 28.292437282548985 28.292437282548985 28.292437282548985 28.292437282548985 28.292437282548985 28.292437282548985 28.292437282548985 28.292437282548985 28.292437282548985 28.292437282548985 28.292437282548985 28.292437282548985 28.292437282548985 28.292437282548985 28.26167368613807 28.292437282548985 28.292437282548985 28.292437282548985 28.292437282548985 28.292437282548985 28.292437282548985 28.292437282548985 28.292437282548985 28.292437282548985 28.292437282548985 28.292437282548985 28.26167368613807 28.292437282548985 28.292437282548985 28.26167368613807 28.292437282548985 28.292437282548985 28.292437282548985 28.292437282548985 28.292437282548985 28.292437282548985 28.292437282548985 28.292437282548985 28.292437282548985 28.26167368613807 28.292437282548985 28.292437282548985 28.292437282548985 28.292437282548985 28.26167368613807 28.292437282548985 28.292437282548985 28.292437282548985 28.292437282548985 28.292437282548985 28.26167368613807 28.292437282548985 28.26167368613807 28.292437282548985 28.292437282548985 28.292437282548985 28.292437282548985 28.26167368613807 28.292437282548985 28.292437282548985 28.292437282548985 28.292437282548985 28.292437282548985 28.292437282548985 28.292437282548985 28.26167368613807 28.26167368613807 28.292437282548985 28.292437282548985 28.292437282548985 28.292437282548985 28.292437282548985 28.292437282548985 28.292437282548985 28.292437282548985 28.292437282548985 28.292437282548985 28.26167368613807 28.26167368613807 28.26167368613807 28.292437282548985 28.292437282548985 28.292437282548985 28.292437282548985 28.292437282548985 28.292437282548985 28.292437282548985 28.26167368613807 28.292437282548985 28.292437282548985 28.292437282548985 28.292437282548985 28.26167368613807 28.26167368613807 28.292437282548985 28.26167368613807 28.292437282548985 28.292437282548985 28.292437282548985 28.26167368613807 28.292437282548985 28.292437282548985 28.292437282548985 28.292437282548985 28.26167368613807 28.26167368613807 28.292437282548985 28.292437282548985 28.292437282548985 28.292437282548985 28.26167368613807 28.292437282548985 28.292437282548985 28.292437282548985 28.26167368613807 28.26167368613807 28.292437282548985 28.292437282548985 28.292437282548985 28.292437282548985 28.292437282548985 28.292437282548985 28.292437282548985 28.292437282548985 28.292437282548985 28.292437282548985 28.292437282548985 28.292437282548985 28.292437282548985 28.26167368613807 28.292437282548985 28.292437282548985 28.292437282548985 28.26167368613807 28.292437282548985 28.292437282548985 28.292437282548985 28.292437282548985 28.26167368613807 28.26167368613807 28.26167368613807 28.292437282548985 28.292437282548985 28.292437282548985 28.292437282548985 28.292437282548985 28.26167368613807 28.292437282548985 28.292437282548985 28.292437282548985 28.292437282548985 28.26167368613807 28.292437282548985 28.292437282548985 28.292437282548985 28.292437282548985 28.292437282548985 28.292437282548985 28.292437282548985 28.292437282548985 28.292437282548985 28.292437282548985 28.292437282548985 28.292437282548985 28.26167368613807 28.292437282548985 28.292437282548985 28.26167368613807 28.26167368613807 28.292437282548985 28.26167368613807 28.292437282548985 28.292437282548985 28.292437282548985 28.292437282548985 28.292437282548985 28.26167368613807 28.292437282548985 28.292437282548985 28.292437282548985 28.292437282548985 28.292437282548985 28.26167368613807 28.292437282548985 28.292437282548985 28.292437282548985 28.26167368613807 28.26167368613807 28.26167368613807 28.292437282548985 28.292437282548985 28.292437282548985 28.26167368613807 28.292437282548985 28.26167368613807 28.292437282548985 28.292437282548985 28.26167368613807 28.292437282548985 28.26167368613807 28.292437282548985 28.26167368613807 28.292437282548985 28.292437282548985 28.292437282548985 28.292437282548985 28.26167368613807 28.292437282548985 28.292437282548985 28.26167368613807 28.292437282548985 28.292437282548985 28.292437282548985 28.292437282548985 28.292437282548985 28.292437282548985 28.26167368613807 28.292437282548985 28.26167368613807 28.292437282548985 28.292437282548985 28.292437282548985 28.292437282548985 28.292437282548985 28.292437282548985 28.26167368613807 28.26167368613807 28.26167368613807 28.292437282548985 28.292437282548985 28.292437282548985 28.292437282548985 28.292437282548985 28.292437282548985 28.292437282548985 28.292437282548985 28.292437282548985 28.292437282548985 28.26167368613807 28.292437282548985 28.292437282548985 28.292437282548985 28.292437282548985 28.292437282548985 28.292437282548985 28.292437282548985 28.26167368613807 28.292437282548985 28.292437282548985 28.292437282548985 28.292437282548985 28.292437282548985 28.292437282548985 28.292437282548985 28.26167368613807 28.26167368613807 28.26167368613807 28.26167368613807 28.26167368613807 28.292437282548985 28.26167368613807 28.26167368613807 28.26167368613807 28.26167368613807 28.26167368613807 28.26167368613807 28.26167368613807 28.26167368613807 28.26167368613807 28.26167368613807 28.26167368613807 28.26167368613807 28.26167368613807 28.26167368613807 28.26167368613807 28.26167368613807 28.26167368613807 28.26167368613807 28.26167368613807 28.26167368613807 28.26167368613807 28.26167368613807 28.26167368613807 28.26167368613807 28.26167368613807 28.26167368613807 28.26167368613807 28.26167368613807 28.26167368613807 28.26167368613807 28.26167368613807 28.26167368613807 28.26167368613807 28.26167368613807 28.26167368613807 28.26167368613807 28.26167368613807 28.26167368613807 28.26167368613807 28.26167368613807 28.26167368613807 28.26167368613807 28.26167368613807 28.26167368613807 28.26167368613807 28.26167368613807 28.26167368613807 28.26167368613807 28.26167368613807 28.26167368613807 28.26167368613807 28.26167368613807 28.26167368613807 28.26167368613807 28.26167368613807 28.26167368613807 28.26167368613807 28.26167368613807 28.26167368613807 28.26167368613807 28.26167368613807 28.26167368613807 28.26167368613807 28.26167368613807 28.26167368613807 28.26167368613807 28.26167368613807 28.26167368613807 28.26167368613807 28.26167368613807 28.26167368613807 28.26167368613807 28.26167368613807 28.26167368613807 28.26167368613807 28.26167368613807 28.26167368613807 28.26167368613807 28.26167368613807 28.26167368613807 28.26167368613807 28.26167368613807 28.26167368613807 28.26167368613807 28.26167368613807 28.26167368613807 28.26167368613807 28.26167368613807 28.26167368613807 28.26167368613807 28.26167368613807 28.26167368613807 28.26167368613807 28.26167368613807 28.26167368613807 28.26167368613807 28.26167368613807 28.26167368613807 28.26167368613807 28.26167368613807 28.26167368613807 28.26167368613807 28.26167368613807 28.26167368613807 28.26167368613807 28.26167368613807 28.26167368613807 28.26167368613807 28.26167368613807 28.26167368613807 28.26167368613807 28.26167368613807 28.26167368613807 28.26167368613807 28.26167368613807 28.26167368613807 28.26167368613807 28.26167368613807 28.26167368613807 28.292437282548985 28.292437282548985 28.26167368613807 28.292437282548985 28.292437282548985 28.292437282548985 28.292437282548985 28.292437282548985 28.292437282548985 28.3232008789599 28.292437282548985 28.292437282548985 28.292437282548985 28.3232008789599 28.292437282548985 28.3232008789599 28.3232008789599 28.3232008789599 28.3232008789599 28.3232008789599 28.3232008789599 28.3232008789599 28.3232008789599 28.353964475370812 28.446255264603554 28.60007324665812 28.69236403589086 28.938472807178172 29.09229078923274 29.215345174876397 29.369163156930966 29.461453946163708 29.615271928218274 29.73832631386193 29.861380699505585 29.953671488738326 30.13825306720381 30.261307452847465 30.445889031312948 30.630470609778428 30.96887017029848 31.27650613440762 31.491851309284012 31.70719648416041 31.984068851858634 32.3532320087896 32.72239516572056 33.15308551547336 33.614539461637065 34.075993407800766 34.41439296832082 34.8143197216627 35.21424647500458 35.491118842702804 35.952572788866505 36.198681560153815 36.598608313495696 36.96777147042666 37.24464383812489 37.70609778428859 38.075260941219554 38.413660501739606 38.81358725508149 39.30580479765611 39.644204358176154 40.16718549716169 40.75169382896905 41.21314777513276 41.55154733565281 42.412928035158394 43.028199963376665 43.73576268082768 44.16645303058048 44.75096136238784 45.181651712140635 45.79692364035891 46.25837758652261 46.87364951474089 47.45815784654825 47.95037538912287 48.565647317341146 49.45779161325764 49.73466398095587 50.380699505585056 50.842153451748764 51.488188976377955 52.34956967588353 52.9340780076909 53.364768357443694 54.01080388207288 54.47225782823658 55.026002563633035 55.45669291338582 55.948910455960444 56.502655191356894 56.90258194469877 57.48709027650613 58.071598608313494 58.50228895806629 59.24061527192821 59.82512360373558 60.28657754989928 60.901849478117555 61.36330342428126 62.101629738143195 62.901483244826956 63.36293719099066 64.00897271561985 64.43966306537264 64.90111701153634 65.45486174693279 66.07013367515107 66.62387841054752 67.14685954953305 67.51602270646401 68.00824024903864 68.40816700238051 68.8388573521333 69.45412928035158 69.70023805163889 70.06940120856986 70.56161875114448 71.14612708295184 71.69987181834829 72.09979857169017 72.53048892144295 73.0842336568394 73.48416041018129 74.13019593481047 74.6224134773851 75.51455777330159 76.16059329793077 76.62204724409449 77.11426478666911 77.60648232924373 78.0064090825856 78.71397180003662 79.05237136055666 79.51382530672038 79.88298846365134 80.15986083134956 80.49826039186962 80.74436916315693 80.9289507416224 81.20582310932063 81.35964109137521 81.6057498626625 81.8210950375389 81.97491301959349 82.06720380882622 82.22102179088078 82.37483977293536 82.59018494781176 82.77476652627723 82.99011170115364 83.1746932796191 83.26698406885185 83.35927485808459 83.42080205090642 83.45156564731735 83.45156564731735 83.45156564731735 83.45156564731735 83.45156564731735 83.45156564731735 83.42080205090642 83.42080205090642 83.42080205090642 83.42080205090642 83.39003845449551 83.35927485808459 83.29774766526276 83.26698406885185 83.26698406885185 83.26698406885185 83.26698406885185 83.26698406885185 83.26698406885185 83.26698406885185 83.26698406885185 83.26698406885185 83.26698406885185 83.26698406885185 83.26698406885185 83.26698406885185 83.26698406885185 83.26698406885185 83.26698406885185 83.26698406885185 83.26698406885185 83.26698406885185 83.26698406885185 83.26698406885185 83.26698406885185 83.26698406885185 83.26698406885185 83.26698406885185 83.26698406885185 83.29774766526276 83.35927485808459 83.42080205090642 83.45156564731735 83.51309284013917 83.54385643655007 83.57462003296098 83.60538362937191 83.60538362937191 83.66691082219373 83.66691082219373 83.66691082219373 83.69767441860465 83.72843801501557 83.72843801501557 83.72843801501557 83.72843801501557 83.72843801501557 83.72843801501557 83.72843801501557 83.72843801501557 83.72843801501557 83.72843801501557 83.72843801501557 83.72843801501557 83.72843801501557 83.72843801501557 83.72843801501557 83.72843801501557 83.75920161142648 83.75920161142648 83.75920161142648 83.78996520783738 83.78996520783738 83.78996520783738 83.78996520783738 83.78996520783738 83.8207288042483 83.8207288042483 83.8207288042483 83.85149240065923 83.85149240065923 83.88225599707013 83.88225599707013 83.88225599707013 83.91301959348104 83.91301959348104 83.94378318989196 83.94378318989196 83.94378318989196 83.94378318989196 83.94378318989196 83.94378318989196 83.94378318989196 83.94378318989196 83.94378318989196 83.94378318989196 83.94378318989196 83.91301959348104 83.94378318989196 83.91301959348104 83.91301959348104 83.94378318989196 83.94378318989196 83.94378318989196 83.94378318989196 83.94378318989196 83.94378318989196 83.94378318989196 83.94378318989196 83.94378318989196 83.91301959348104 83.94378318989196 83.94378318989196 83.91301959348104 83.91301959348104 83.94378318989196 83.91301959348104 83.91301959348104 83.88225599707013 83.88225599707013 83.88225599707013 83.85149240065923 83.85149240065923 83.85149240065923 83.85149240065923 83.8207288042483 83.8207288042483 83.8207288042483 83.8207288042483 83.78996520783738 83.78996520783738 83.78996520783738 83.75920161142648 83.72843801501557 83.69767441860465 83.63614722578282 83.57462003296098 83.54385643655007 83.48232924372826 83.42080205090642 83.35927485808459 83.29774766526276 83.26698406885185 83.26698406885185 83.23622047244095 83.23622047244095 83.20545687603003 83.20545687603003 83.1746932796191 83.1746932796191 83.1439296832082 83.1439296832082 83.11316608679729 83.1439296832082 83.11316608679729 83.08240249038637 83.02087529756454 82.99011170115364 82.92858450833181 82.86705731550998 82.83629371909906 82.80553012268815 82.77476652627723 82.71323933345542 82.68247573704448 82.65171214063358 82.62094854422267 82.59018494781176 82.59018494781176 82.55942135140083 82.55942135140083 82.52865775498992 82.52865775498992 82.52865775498992 82.52865775498992 82.52865775498992 82.52865775498992 82.52865775498992 82.52865775498992 82.52865775498992 82.52865775498992 82.4671305621681 82.43636696575717 82.43636696575717 82.40560336934627 82.40560336934627 82.40560336934627 82.40560336934627 82.40560336934627 82.40560336934627 82.37483977293536 82.37483977293536 82.37483977293536 82.34407617652444 82.31331258011353 82.28254898370261 82.22102179088078 82.22102179088078 82.19025819446988 82.15949459805896 82.12873100164805 82.12873100164805 82.09796740523714 82.0364402124153 81.97491301959349 81.94414942318257 81.88262223036074 81.85185863394983 81.8210950375389 81.75956784471708 81.72880424830618 81.69804065189524 81.66727705548433 81.6057498626625 81.5749862662516 81.51345907342977 81.48269547701886 81.42116828419702 81.39040468778612 81.29811389855337 81.23658670573155 81.17505951290971 81.1135323200879 81.08276872367698 81.05200512726607 81.02124153085515 80.99047793444424 80.99047793444424 80.99047793444424 80.99047793444424 80.99047793444424 80.99047793444424 81.02124153085515 81.02124153085515 81.02124153085515 81.02124153085515 81.02124153085515 81.02124153085515 81.02124153085515 81.02124153085515 80.99047793444424 81.02124153085515 80.99047793444424 80.95971433803334 80.95971433803334 80.95971433803334 80.95971433803334 80.9289507416224 80.9289507416224 80.9289507416224 80.9289507416224 80.9289507416224 80.9289507416224 80.95971433803334 80.9289507416224 80.9289507416224 80.9289507416224 80.9289507416224 80.9289507416224 80.9289507416224 80.9289507416224 80.9289507416224 80.95971433803334 80.95971433803334 80.95971433803334 80.9289507416224 80.9289507416224 80.95971433803334 80.9289507416224 80.9289507416224 80.9289507416224 80.9289507416224 80.8981871452115 80.8981871452115 80.8981871452115 80.8981871452115 80.86742354880059 80.83665995238968 80.80589635597875 80.77513275956784 80.74436916315693 80.74436916315693 80.71360556674601 80.71360556674601 80.71360556674601 80.71360556674601 80.71360556674601 80.71360556674601 80.71360556674601 80.71360556674601 80.71360556674601 80.74436916315693 80.74436916315693 80.74436916315693 80.77513275956784 80.77513275956784 80.77513275956784 80.77513275956784 80.77513275956784 80.77513275956784 80.77513275956784 80.77513275956784 80.77513275956784 80.77513275956784 80.77513275956784 80.77513275956784 80.77513275956784 80.77513275956784 80.74436916315693 80.77513275956784 80.74436916315693 80.74436916315693 80.74436916315693 80.74436916315693 80.74436916315693 80.74436916315693 80.74436916315693 80.74436916315693 80.74436916315693 80.74436916315693 80.74436916315693 80.74436916315693 80.74436916315693 80.74436916315693 80.74436916315693 80.74436916315693 80.74436916315693 80.65207837392418 80.59055118110236 80.55978758469143 80.49826039186962 80.4674967954587 80.4674967954587 80.40596960263687 80.40596960263687 80.37520600622597 80.37520600622597 80.37520600622597 80.37520600622597 80.37520600622597 80.37520600622597 80.37520600622597 80.37520600622597 80.34444240981506 80.31367881340414 80.25215162058231 80.19062442776048 80.12909723493865 80.0368064457059 79.94451565647316 79.88298846365134 79.72917048159677 79.63687969236403 79.42153451748763 79.17542574620032 79.02160776414576 78.8677897820912 78.62168101080388 78.4370994323384 78.06793627540742 77.85259110053104 77.5449551364219 77.20655557590185 76.99121040102546 76.77586522614905 76.40670206921808 75.94524812305438 75.45303058047976 74.89928584508331 74.56088628456325 74.03790514557772 73.60721479582494 73.11499725325032 72.6227797106757 72.25361655374473 71.79216260758102 71.45376304706097 70.99230910089727 70.28474638344625 69.88481963010437 69.54642006958431 69.08496612342061 68.77733015931148 68.3774034059696 68.06976744186046 67.48525911005311 67.05456876030031 66.71616919978025 66.37776963926021 65.97784288591834 65.45486174693279 65.11646218641275 64.62424464383813 64.1012635048526 63.578282365867054 63.20911920893609 62.716901666361466 62.409265702252334 61.91704815967771 61.42483061710309 61.086431056583045 60.56344991759751 60.07123237502289 59.79436000732467 59.086797289873644 58.59457974729903 58.19465299395715 57.82548983702618 57.240981505218826 56.90258194469877 55.97967405237136 55.76432887749496 55.21058414209851 54.99523896722212 54.226149056949275 53.67240432155283 53.27247756821095 52.718732832814496 52.16498809741805 51.76506134407617 51.211316608679724 50.842153451748764 50.380699505585056 49.888481963010435 49.580845998901296 49.027101263504846 48.719465299395715 48.44259293169749 48.073429774766524 47.7965574070683 47.39663065372642 46.93517670756272 46.442959164988096 45.98150521882439 45.48928767624977 45.181651712140635 44.6586705731551 44.474088994689616 43.85881706647134 43.39736312030763 43.0897271561985 42.659036806445705 42.259110053103825 42.013001281816514 41.64383812488555 41.39772935359824 41.05932979307819 40.75169382896905 40.536348654092656 40.22871268998352 39.79802234023072 39.55191356894342 39.21351400842337 38.875114447903314 38.629005676616 38.22907892327412 37.98297015198681 37.64457059146676 37.36769822376854 37.12158945248123 36.87548068119392 36.752426295550265 36.53708112067387 36.352499542208385 36.22944515656473 36.07562717451016 35.952572788866505 35.79875480681194 35.583409631935545 35.429591649880976 35.27577366782641 35.09119208936092 34.937374107306354 34.72202893242996 34.56821095037539 34.32210217908808 34.16828419703351 34.01446621497894 33.922175425746204 33.79912104010255 33.7068302508698 33.55301226881524 33.49148507599341 33.39919428676067 33.33766709393884 33.27613990111701 33.2453763047061 33.18384911188427 33.15308551547336 33.09155832265153 33.060794726240616 32.968503937007874 32.87621314777513 32.78392235854239 32.660867972898735 32.53781358725508 32.44552279802234 32.32246841237868 32.23017762314594 32.07635964109137 31.891778062625892 31.79948727339315 31.70719648416041 31.584142098516754 31.55337850210584 31.491851309284012 31.461087712873102 31.399560520051274 31.338033327229446 31.307269730818533 31.27650613440762 31.21497894158579 31.184215345174877 31.153451748763963 31.12268815235305 31.091924555942136 31.030397363120308 31.030397363120308 30.999633766709394 30.96887017029848 30.96887017029848 30.938106573887566 30.87657938106574 30.784288591832997 30.72276139901117 30.630470609778428 30.5689434169566 30.538179820545686 30.38436183849112 30.261307452847465 30.199780260025637 30.045962277971068 29.83061710309467 29.73832631386193 29.615271928218274 29.553744735396446 29.553744735396446 29.522981138985532 29.553744735396446 29.522981138985532 29.522981138985532 29.522981138985532 29.49221754257462 29.49221754257462 29.461453946163708 29.461453946163708 29.461453946163708 29.430690349752794 29.430690349752794 29.430690349752794 29.39992675334188 29.430690349752794 29.39992675334188 29.39992675334188 29.369163156930966 29.369163156930966 29.369163156930966 29.338399560520052 29.30763596410914 29.30763596410914 29.276872367698225 29.24610877128731 29.24610877128731 29.215345174876397 29.215345174876397 29.184581578465483 29.184581578465483 29.184581578465483 29.15381798205457 29.15381798205457 29.15381798205457 29.15381798205457 29.123054385643655 29.123054385643655 29.09229078923274 29.09229078923274 29.09229078923274 29.061527192821828 29.061527192821828 29.030763596410914 29.030763596410914 29.0 28.969236403589086 28.938472807178172 28.938472807178172 28.90770921076726 28.90770921076726 28.876945614356345 28.876945614356345 28.84618201794543 28.84618201794543 28.84618201794543 28.84618201794543 28.84618201794543 28.815418421534517 28.815418421534517 28.815418421534517 28.815418421534517 28.815418421534517 28.784654825123603 28.784654825123603 28.75389122871269 28.75389122871269 28.723127632301775 28.723127632301775 28.723127632301775 28.69236403589086 28.69236403589086 28.69236403589086 28.69236403589086 28.69236403589086 28.661600439479948 28.661600439479948 28.661600439479948 28.661600439479948 28.661600439479948 28.661600439479948 28.630836843069034 28.630836843069034 28.60007324665812 28.60007324665812 28.569309650247206 28.538546053836292 28.538546053836292 28.50778245742538 28.50778245742538 28.477018861014468 28.477018861014468 28.446255264603554 28.446255264603554 28.446255264603554 28.446255264603554 28.41549166819264 28.41549166819264 28.41549166819264 28.41549166819264 28.41549166819264 28.41549166819264 28.41549166819264 28.41549166819264 28.384728071781726 28.384728071781726 28.41549166819264 28.41549166819264 28.41549166819264 28.384728071781726 28.41549166819264 28.41549166819264 28.41549166819264 28.384728071781726 28.41549166819264 28.384728071781726 28.384728071781726 28.384728071781726 28.384728071781726 28.384728071781726 28.384728071781726 28.384728071781726 28.384728071781726 28.384728071781726 28.384728071781726 28.384728071781726 28.384728071781726 28.353964475370812 28.353964475370812 28.353964475370812 28.384728071781726 28.353964475370812 28.384728071781726 28.353964475370812 28.353964475370812 28.353964475370812 28.353964475370812 28.353964475370812 28.353964475370812 28.353964475370812 28.353964475370812 28.353964475370812 28.353964475370812 28.353964475370812 28.353964475370812 28.353964475370812 28.353964475370812 28.353964475370812 28.353964475370812 28.353964475370812 28.353964475370812 28.353964475370812 28.353964475370812 28.353964475370812 28.353964475370812 28.353964475370812 28.353964475370812 28.353964475370812 28.353964475370812 28.353964475370812 28.353964475370812 28.353964475370812 28.353964475370812 28.353964475370812 28.353964475370812 28.353964475370812 28.353964475370812 28.353964475370812 28.353964475370812 28.353964475370812 28.353964475370812 28.353964475370812 28.353964475370812 28.353964475370812 28.353964475370812 28.353964475370812 28.353964475370812 28.353964475370812 28.353964475370812 28.353964475370812 28.353964475370812 28.353964475370812 28.353964475370812 28.353964475370812 28.353964475370812 28.353964475370812 28.353964475370812 28.353964475370812 28.353964475370812 28.353964475370812 28.353964475370812 28.353964475370812 28.353964475370812 28.353964475370812 28.353964475370812 28.353964475370812 28.353964475370812 28.353964475370812 28.353964475370812 28.353964475370812 28.353964475370812 28.353964475370812 28.353964475370812 28.353964475370812 28.353964475370812 28.353964475370812 28.353964475370812 28.353964475370812 28.353964475370812 28.353964475370812 28.353964475370812 28.353964475370812 28.353964475370812 28.353964475370812 28.353964475370812 28.353964475370812 28.353964475370812 28.353964475370812 28.353964475370812 28.353964475370812 28.353964475370812 28.353964475370812 28.353964475370812 28.353964475370812 28.353964475370812 28.353964475370812 28.353964475370812 28.353964475370812 28.353964475370812 28.353964475370812 28.353964475370812 28.353964475370812 28.353964475370812 28.353964475370812 28.353964475370812 28.353964475370812 28.353964475370812 28.353964475370812 28.353964475370812 28.353964475370812 28.353964475370812 28.353964475370812 28.353964475370812 28.353964475370812 28.353964475370812 28.353964475370812 28.353964475370812 28.353964475370812 28.353964475370812 28.353964475370812 28.353964475370812 28.353964475370812 28.353964475370812 28.353964475370812 28.353964475370812 28.353964475370812 28.353964475370812 28.353964475370812 28.353964475370812 28.353964475370812 28.353964475370812 28.353964475370812 28.353964475370812 28.353964475370812 28.353964475370812 28.353964475370812 28.353964475370812 28.353964475370812 28.353964475370812 28.353964475370812 28.353964475370812 28.353964475370812 28.353964475370812 28.353964475370812 28.353964475370812 28.353964475370812 28.353964475370812 28.353964475370812 28.353964475370812 28.353964475370812 28.353964475370812 28.353964475370812 28.353964475370812 28.353964475370812 28.353964475370812 28.353964475370812 28.353964475370812 28.353964475370812 28.353964475370812 28.353964475370812 28.353964475370812 28.353964475370812 28.353964475370812 28.353964475370812 28.353964475370812 28.353964475370812 28.353964475370812 28.353964475370812 28.353964475370812 28.353964475370812 28.353964475370812 28.353964475370812 28.353964475370812 28.353964475370812 28.353964475370812 28.353964475370812 28.353964475370812 28.353964475370812 28.353964475370812 28.353964475370812 28.353964475370812 28.353964475370812 28.353964475370812 28.353964475370812 28.353964475370812 28.353964475370812 28.353964475370812 28.3232008789599 28.3232008789599 28.3232008789599 28.3232008789599 28.3232008789599 28.3232008789599 28.3232008789599 28.3232008789599 28.3232008789599 28.292437282548985 28.292437282548985 28.292437282548985 28.292437282548985 28.292437282548985 28.292437282548985 28.292437282548985 28.292437282548985 28.292437282548985 28.292437282548985 28.292437282548985 28.292437282548985 28.292437282548985 28.292437282548985 28.292437282548985 28.292437282548985 28.292437282548985 28.292437282548985 28.292437282548985 28.292437282548985 28.292437282548985 28.292437282548985 28.292437282548985 28.292437282548985 28.292437282548985 28.292437282548985 28.292437282548985 28.292437282548985 28.292437282548985 28.292437282548985 28.292437282548985 28.292437282548985 28.292437282548985 28.292437282548985 28.292437282548985 28.292437282548985 28.3232008789599 28.292437282548985 28.292437282548985 28.292437282548985 28.3232008789599 28.292437282548985 28.292437282548985 28.3232008789599 28.292437282548985 28.292437282548985 28.292437282548985 28.292437282548985 28.292437282548985 28.292437282548985 28.292437282548985 28.292437282548985 28.292437282548985 28.292437282548985 28.292437282548985 28.292437282548985 28.292437282548985 28.292437282548985 28.292437282548985 28.292437282548985 28.292437282548985 28.292437282548985 28.292437282548985 28.292437282548985 28.292437282548985 28.292437282548985 28.292437282548985 28.292437282548985 28.292437282548985 28.292437282548985 28.292437282548985 28.292437282548985 28.292437282548985 28.292437282548985 28.292437282548985 28.292437282548985 28.292437282548985 28.292437282548985 28.292437282548985 28.292437282548985 28.292437282548985 28.3232008789599 28.292437282548985 28.292437282548985 28.292437282548985 28.292437282548985 28.292437282548985 28.292437282548985 28.292437282548985 28.292437282548985 28.292437282548985 28.292437282548985 28.292437282548985 28.292437282548985 28.292437282548985 28.292437282548985 28.292437282548985 28.292437282548985 28.292437282548985 28.292437282548985 28.292437282548985 28.292437282548985 28.3232008789599 28.292437282548985 28.3232008789599 28.292437282548985 28.292437282548985 28.292437282548985 28.292437282548985 28.292437282548985 28.292437282548985 28.292437282548985 28.292437282548985 28.292437282548985 28.292437282548985 28.292437282548985 28.292437282548985 28.292437282548985 28.292437282548985 28.292437282548985 28.292437282548985 28.292437282548985 28.292437282548985 28.292437282548985 28.292437282548985 28.292437282548985 28.292437282548985 28.292437282548985 28.292437282548985 28.292437282548985 28.292437282548985 28.292437282548985 28.292437282548985 28.292437282548985 28.292437282548985 28.292437282548985 28.292437282548985 28.292437282548985 28.292437282548985 28.292437282548985 28.292437282548985 28.292437282548985 28.292437282548985 28.3232008789599 28.292437282548985 28.292437282548985 28.292437282548985 28.292437282548985 28.292437282548985 28.292437282548985 28.292437282548985 28.292437282548985 28.292437282548985 28.292437282548985 28.292437282548985 28.292437282548985 28.292437282548985 28.292437282548985 28.292437282548985 28.292437282548985 28.292437282548985 28.292437282548985 28.292437282548985 28.292437282548985 28.292437282548985 28.292437282548985 28.292437282548985 28.292437282548985 28.292437282548985 28.292437282548985 28.292437282548985 28.292437282548985 28.292437282548985 28.292437282548985 28.292437282548985 28.292437282548985 28.292437282548985 28.292437282548985 28.292437282548985 28.292437282548985 28.292437282548985 28.292437282548985 28.292437282548985 28.292437282548985 28.292437282548985 28.292437282548985 28.292437282548985 28.292437282548985 28.292437282548985 28.292437282548985 28.292437282548985 28.292437282548985 28.292437282548985 28.292437282548985 28.292437282548985 28.292437282548985 28.292437282548985 28.292437282548985 28.292437282548985 28.292437282548985 28.292437282548985 28.292437282548985 28.292437282548985 28.292437282548985 28.292437282548985 28.292437282548985 28.292437282548985 28.292437282548985 28.292437282548985 28.292437282548985 28.292437282548985 28.292437282548985 28.292437282548985 28.292437282548985 28.292437282548985 28.292437282548985 28.292437282548985 28.292437282548985 28.292437282548985 28.292437282548985 28.292437282548985 28.292437282548985 28.292437282548985 28.292437282548985 28.292437282548985 28.292437282548985 28.292437282548985 28.292437282548985 28.292437282548985 28.292437282548985 28.292437282548985 28.292437282548985 28.292437282548985 28.292437282548985 28.292437282548985 28.292437282548985 28.292437282548985 28.292437282548985 28.292437282548985 28.292437282548985 28.292437282548985 28.292437282548985 28.292437282548985 28.292437282548985 28.292437282548985 28.292437282548985 28.292437282548985 28.3232008789599 28.292437282548985 28.292437282548985 28.292437282548985 28.292437282548985 28.292437282548985 28.292437282548985 28.292437282548985 28.292437282548985 28.292437282548985 28.3232008789599 28.292437282548985 28.292437282548985 28.292437282548985 28.292437282548985 28.292437282548985 28.292437282548985 28.292437282548985 28.292437282548985 28.292437282548985 28.292437282548985 28.292437282548985 28.292437282548985 28.292437282548985 28.292437282548985 28.292437282548985 28.292437282548985 28.292437282548985 28.292437282548985 28.292437282548985 28.292437282548985 28.3232008789599 28.292437282548985 28.292437282548985 28.3232008789599 28.292437282548985 28.292437282548985 28.292437282548985 28.292437282548985 28.292437282548985 28.292437282548985 28.3232008789599 28.292437282548985 28.292437282548985 28.292437282548985 28.292437282548985 28.292437282548985 28.292437282548985 28.292437282548985 28.292437282548985 28.292437282548985 28.292437282548985 28.292437282548985 28.292437282548985 28.292437282548985 28.292437282548985 28.292437282548985 28.292437282548985 28.292437282548985 28.292437282548985 28.292437282548985 28.292437282548985 28.292437282548985 28.292437282548985 28.292437282548985 28.292437282548985 28.292437282548985 28.292437282548985 28.292437282548985 28.292437282548985 28.292437282548985 28.292437282548985 28.292437282548985 28.292437282548985 28.3232008789599 28.292437282548985 28.292437282548985 28.292437282548985 28.292437282548985 28.292437282548985 28.292437282548985 28.292437282548985 28.292437282548985 28.292437282548985 28.292437282548985 28.292437282548985 28.292437282548985 28.292437282548985 28.292437282548985 28.292437282548985 28.292437282548985 28.292437282548985 28.292437282548985 28.292437282548985 28.292437282548985 28.292437282548985 28.292437282548985 28.292437282548985 28.292437282548985 28.292437282548985 28.292437282548985 28.292437282548985 28.3232008789599 28.292437282548985 28.292437282548985 28.292437282548985 28.292437282548985 28.292437282548985 28.292437282548985 28.292437282548985 28.292437282548985 28.292437282548985 28.292437282548985 28.292437282548985 28.292437282548985 28.3232008789599 28.292437282548985 28.292437282548985 28.292437282548985 28.292437282548985 28.292437282548985 28.292437282548985 28.292437282548985 28.292437282548985 28.3232008789599 28.292437282548985 28.292437282548985 28.292437282548985 28.292437282548985 28.292437282548985 28.292437282548985 28.292437282548985 28.292437282548985 28.292437282548985 28.292437282548985 28.292437282548985 28.292437282548985 28.292437282548985 28.292437282548985 28.292437282548985 28.292437282548985 28.292437282548985 28.292437282548985 28.292437282548985 28.292437282548985 28.292437282548985 28.292437282548985 28.292437282548985 28.292437282548985 28.292437282548985 28.292437282548985 28.292437282548985 28.292437282548985 28.292437282548985 28.292437282548985 28.292437282548985 28.292437282548985 28.292437282548985 28.292437282548985 28.292437282548985 28.3232008789599 28.292437282548985 28.292437282548985 28.292437282548985 28.292437282548985 28.292437282548985 28.292437282548985 28.292437282548985 28.292437282548985 28.292437282548985 28.292437282548985 28.292437282548985 28.292437282548985 28.292437282548985 28.292437282548985 28.292437282548985 28.292437282548985 28.292437282548985 28.292437282548985 28.292437282548985 28.292437282548985 28.292437282548985 28.292437282548985 28.292437282548985 28.292437282548985 28.292437282548985 28.292437282548985 28.292437282548985 28.292437282548985 28.292437282548985 28.292437282548985 28.292437282548985 28.292437282548985 28.292437282548985 28.292437282548985 28.292437282548985 28.292437282548985 28.292437282548985 28.292437282548985 28.292437282548985 28.292437282548985 28.292437282548985 28.292437282548985 28.3232008789599 28.292437282548985 28.3232008789599 28.292437282548985 28.292437282548985 28.3232008789599 28.292437282548985 28.353964475370812 28.353964475370812 28.353964475370812 28.384728071781726 28.384728071781726 28.384728071781726 28.384728071781726 28.384728071781726 28.41549166819264 28.384728071781726 28.41549166819264 28.384728071781726 28.41549166819264 28.41549166819264 28.41549166819264 28.446255264603554 28.60007324665812 28.69236403589086 28.815418421534517 29.030763596410914 29.15381798205457 29.338399560520052 29.49221754257462 29.646035524629188 