29.0 29.0 29.030763596410914 29.030763596410914 29.0 29.0 29.0 29.030763596410914 29.0 29.0 29.0 29.030763596410914 29.0 29.0 29.0 29.0 29.0 29.0 29.0 29.0 29.0 29.0 29.0 29.0 29.030763596410914 29.0 29.030763596410914 29.0 29.0 29.0 29.0 29.0 29.0 29.0 29.0 29.0 29.0 29.0 29.0 29.0 29.0 29.0 29.0 29.0 29.0 29.0 29.0 29.0 29.0 29.0 29.0 29.0 29.0 29.0 29.0 29.0 29.0 29.0 29.0 29.030763596410914 29.0 29.0 29.030763596410914 29.0 29.0 29.0 29.0 29.0 29.0 29.0 29.0 29.0 29.0 29.0 29.0 29.0 29.0 29.0 29.0 29.0 29.030763596410914 29.0 29.0 29.0 29.0 29.0 29.0 29.0 29.030763596410914 29.0 29.0 29.0 29.0 29.0 29.0 29.0 29.0 29.0 29.0 29.030763596410914 29.0 29.0 29.0 29.0 29.0 29.0 29.0 29.0 29.0 29.030763596410914 29.0 29.0 29.0 29.0 29.0 29.0 29.0 29.0 29.0 29.030763596410914 29.0 29.0 29.0 29.0 29.0 29.0 29.0 29.0 29.0 29.0 29.030763596410914 29.0 29.0 29.0 29.0 29.0 29.0 29.030763596410914 29.0 29.0 29.0 29.0 29.0 29.030763596410914 29.0 29.0 29.0 29.0 29.0 29.0 29.0 29.0 29.0 29.0 29.0 29.0 29.0 29.030763596410914 29.0 29.0 29.0 29.0 29.0 29.030763596410914 29.0 29.030763596410914 29.0 29.030763596410914 29.030763596410914 29.0 29.030763596410914 29.0 29.0 29.0 29.030763596410914 29.030763596410914 29.030763596410914 29.0 29.0 29.0 29.0 29.0 29.0 29.0 29.0 29.0 29.030763596410914 29.0 29.0 29.0 29.0 29.0 29.0 29.0 29.0 29.0 29.0 29.0 29.0 29.0 29.0 29.0 29.030763596410914 29.0 29.0 29.0 29.0 29.0 29.0 29.0 29.0 29.0 29.0 29.030763596410914 29.030763596410914 29.0 29.0 29.0 29.030763596410914 29.030763596410914 29.0 29.0 29.0 29.0 29.0 29.030763596410914 29.0 29.0 29.0 29.0 29.0 29.0 29.0 29.0 29.0 29.030763596410914 29.030763596410914 29.0 29.0 29.0 29.0 29.0 29.0 29.0 29.0 29.0 29.0 29.0 29.0 29.0 29.0 29.0 29.0 29.0 29.0 29.0 29.0 29.0 29.0 29.0 29.0 29.0 29.0 29.0 29.0 29.0 29.0 29.0 29.0 29.0 29.0 29.0 29.0 29.0 29.0 29.0 29.0 29.0 29.030763596410914 29.0 29.030763596410914 29.0 29.0 29.0 29.0 29.0 29.0 29.030763596410914 29.0 29.0 29.0 29.0 29.030763596410914 29.0 29.0 29.0 29.0 29.030763596410914 29.0 29.0 29.0 29.0 29.0 29.0 29.030763596410914 29.0 29.0 29.0 29.0 29.0 29.0 29.0 29.030763596410914 29.0 29.0 29.0 29.0 29.030763596410914 29.0 29.0 29.0 29.0 29.0 29.0 29.0 29.0 29.0 29.0 29.0 29.030763596410914 29.0 29.0 29.0 29.0 29.0 29.0 29.0 29.0 29.0 29.0 29.0 29.0 29.0 29.030763596410914 29.0 29.0 29.030763596410914 29.0 29.030763596410914 29.030763596410914 29.0 29.030763596410914 29.0 29.030763596410914 29.0 29.0 29.0 29.0 29.0 29.0 29.0 29.0 29.0 29.030763596410914 29.0 29.0 29.030763596410914 29.0 29.0 29.0 29.0 29.0 29.0 29.030763596410914 29.0 29.0 29.0 29.0 29.0 29.0 29.0 29.030763596410914 29.030763596410914 29.0 29.0 29.0 29.0 29.0 29.0 29.0 29.030763596410914 29.0 29.0 29.0 29.0 29.030763596410914 29.030763596410914 29.0 29.030763596410914 29.0 29.0 29.0 29.0 29.0 29.030763596410914 29.0 29.0 29.0 29.0 29.0 29.0 29.0 29.0 29.030763596410914 29.0 29.0 29.0 29.0 29.0 29.030763596410914 29.0 29.0 29.0 29.0 29.0 29.0 29.0 29.0 29.030763596410914 29.0 29.030763596410914 29.0 29.0 29.030763596410914 29.0 29.0 29.0 29.0 29.0 29.0 29.0 29.0 29.0 29.0 29.0 29.0 29.0 29.0 29.0 29.030763596410914 29.0 29.030763596410914 29.030763596410914 29.0 29.0 29.0 29.0 29.030763596410914 29.0 29.0 29.030763596410914 29.030763596410914 29.0 29.030763596410914 29.0 29.0 29.0 29.030763596410914 29.0 29.0 29.0 29.030763596410914 29.0 29.0 29.0 29.0 29.030763596410914 29.0 29.030763596410914 29.0 29.0 29.0 29.0 29.0 29.030763596410914 29.0 29.0 29.0 29.0 29.0 29.030763596410914 29.0 29.0 29.0 29.0 29.030763596410914 29.0 29.0 29.0 29.0 29.0 29.0 29.0 29.030763596410914 29.0 29.0 29.0 29.0 29.030763596410914 29.0 29.0 29.0 29.0 29.0 29.0 29.030763596410914 29.0 29.0 29.0 29.030763596410914 29.0 29.0 29.030763596410914 29.0 29.0 29.0 29.0 29.0 29.030763596410914 29.0 29.0 29.0 29.0 29.0 29.030763596410914 29.0 29.0 29.0 29.030763596410914 29.030763596410914 29.0 29.030763596410914 29.030763596410914 29.0 29.0 29.0 29.0 29.0 29.0 29.0 29.030763596410914 29.030763596410914 29.030763596410914 29.0 29.030763596410914 29.0 29.0 29.0 29.0 29.030763596410914 29.0 29.0 29.0 29.0 29.030763596410914 29.030763596410914 29.030763596410914 29.030763596410914 29.0 29.0 29.030763596410914 29.030763596410914 29.030763596410914 29.0 29.030763596410914 29.030763596410914 29.030763596410914 29.030763596410914 29.0 29.030763596410914 29.030763596410914 29.030763596410914 29.030763596410914 29.030763596410914 29.030763596410914 29.0 29.0 29.030763596410914 29.0 29.030763596410914 29.09229078923274 29.184581578465483 29.30763596410914 29.39992675334188 29.522981138985532 29.646035524629188 29.73832631386193 29.861380699505585 29.953671488738326 30.107489470792896 30.199780260025637 30.261307452847465 30.29207104925838 30.353598242080206 30.445889031312948 30.47665262772386 30.5689434169566 30.66123420618934 30.753524995422083 30.845815784654825 30.938106573887566 31.030397363120308 31.12268815235305 31.21497894158579 31.307269730818533 31.399560520051274 31.461087712873102 31.55337850210584 31.64566929133858 31.737960080571323 31.830250869804065 31.922541659036806 32.04559604468046 32.19941402673503 32.32246841237868 32.44552279802234 32.59934078007691 32.814685954953305 32.99926753341879 33.214612708295185 33.368430690349754 33.522248672404324 33.73759384728072 33.95293902215711 34.16828419703351 34.41439296832082 34.629738143197216 34.87584691448453 35.15271928218275 35.46035524629189 35.706464017579194 36.01409998168833 36.32173594579747 36.62937190990661 36.87548068119392 37.24464383812489 37.61380699505585 37.9522065555759 38.321369712506865 38.69053286943783 38.99816883354697 39.367331990477936 39.7364951474089 40.07489470792895 40.444057864859914 40.75169382896905 41.090093389489105 41.39772935359824 41.73612891411829 42.04376487822743 42.35140084233657 42.62827321003479 42.93590917414393 43.21278154184215 43.5511811023622 43.85881706647134 44.19721662699139 44.56637978392236 44.90477934444241 45.27394250137337 45.58157846548251 45.85845083318073 46.2276139901117 46.504486357809924 46.81212232191906 47.08899468961728 47.39663065372642 47.70426661783556 47.98113898553378 48.319538546053835 48.62717451016297 48.96557407068302 49.27321003479216 49.61160959531221 49.888481963010435 50.22688152353049 50.596044680461446 50.96520783739241 51.30360739791247 51.73429774766526 52.13422450100714 52.53415125434902 52.96484160410181 53.364768357443694 53.88774949642922 54.31843984618202 54.872184581578466 55.45669291338582 55.79509247390588 56.25654642006958 56.81029115546603 57.39479948727339 57.97930781908075 58.37923457242263 59.086797289873644 59.48672404321553 59.85588720014648 60.3173411463102 60.655740706830244 61.086431056583045 61.48635780992492 61.79399377403406 62.31697491301959 62.65537447353964 62.80919245559421 63.11682841970335 63.30140999816883 63.670573155099795 63.916681926387106 64.19355429408533 64.47042666178355 64.71653543307087 64.93188060794725 65.17798937923456 65.36257095770006 65.57791613257645 65.79326130745284 65.9163156930965 66.07013367515107 66.19318806079472 66.28547885002746 66.37776963926021 66.40853323567111 66.47006042849296 66.50082402490386 66.50082402490386 66.50082402490386 66.53158762131477 66.50082402490386 66.50082402490386 66.50082402490386 66.50082402490386 66.50082402490386 66.50082402490386 66.50082402490386 66.50082402490386 66.50082402490386 66.50082402490386 66.50082402490386 66.50082402490386 66.50082402490386 66.50082402490386 66.50082402490386 66.50082402490386 66.50082402490386 66.50082402490386 66.50082402490386 66.50082402490386 66.47006042849296 66.50082402490386 66.47006042849296 66.47006042849296 66.50082402490386 66.50082402490386 66.50082402490386 66.50082402490386 66.47006042849296 66.50082402490386 66.50082402490386 66.50082402490386 66.50082402490386 66.50082402490386 66.47006042849296 66.50082402490386 66.50082402490386 66.47006042849296 66.47006042849296 66.47006042849296 66.47006042849296 66.47006042849296 66.47006042849296 66.47006042849296 66.47006042849296 66.47006042849296 66.47006042849296 66.47006042849296 66.47006042849296 66.47006042849296 66.47006042849296 66.47006042849296 66.47006042849296 66.47006042849296 66.47006042849296 66.47006042849296 66.47006042849296 66.47006042849296 66.47006042849296 66.47006042849296 66.47006042849296 66.47006042849296 66.47006042849296 66.50082402490386 66.47006042849296 66.47006042849296 66.50082402490386 66.47006042849296 66.47006042849296 66.47006042849296 66.47006042849296 66.47006042849296 66.47006042849296 66.47006042849296 66.47006042849296 66.47006042849296 66.47006042849296 66.47006042849296 66.47006042849296 66.47006042849296 66.47006042849296 66.47006042849296 66.50082402490386 66.47006042849296 66.47006042849296 66.47006042849296 66.47006042849296 66.47006042849296 66.47006042849296 66.50082402490386 66.47006042849296 66.47006042849296 66.47006042849296 66.47006042849296 66.47006042849296 66.47006042849296 66.47006042849296 66.47006042849296 66.47006042849296 66.47006042849296 66.47006042849296 66.47006042849296 66.43929683208202 66.43929683208202 66.40853323567111 66.3470060428493 66.3470060428493 66.28547885002746 66.28547885002746 66.25471525361655 66.25471525361655 66.25471525361655 66.25471525361655 66.25471525361655 66.22395165720565 66.22395165720565 66.25471525361655 66.22395165720565 66.22395165720565 66.22395165720565 66.22395165720565 66.22395165720565 66.25471525361655 66.25471525361655 66.25471525361655 66.22395165720565 66.22395165720565 66.19318806079472 66.19318806079472 66.19318806079472 66.19318806079472 66.19318806079472 66.19318806079472 66.19318806079472 66.19318806079472 66.19318806079472 66.19318806079472 66.19318806079472 66.19318806079472 66.19318806079472 66.19318806079472 66.19318806079472 66.19318806079472 66.19318806079472 66.19318806079472 66.19318806079472 66.19318806079472 66.19318806079472 66.19318806079472 66.19318806079472 66.19318806079472 66.19318806079472 66.1624244643838 66.1316608679729 66.10089727156199 66.07013367515107 66.03937007874015 66.03937007874015 66.00860648232924 66.00860648232924 66.00860648232924 65.97784288591834 65.97784288591834 65.97784288591834 65.97784288591834 65.97784288591834 66.00860648232924 65.97784288591834 66.00860648232924 65.97784288591834 66.00860648232924 65.97784288591834 66.00860648232924 66.00860648232924 66.00860648232924 66.00860648232924 66.00860648232924 66.00860648232924 66.00860648232924 65.97784288591834 66.00860648232924 65.97784288591834 65.97784288591834 66.00860648232924 66.00860648232924 66.00860648232924 66.00860648232924 66.00860648232924 66.00860648232924 66.03937007874015 66.03937007874015 66.03937007874015 66.03937007874015 66.03937007874015 66.03937007874015 66.03937007874015 66.03937007874015 66.03937007874015 66.03937007874015 66.03937007874015 66.03937007874015 66.03937007874015 66.00860648232924 66.03937007874015 66.03937007874015 66.03937007874015 66.03937007874015 66.03937007874015 66.03937007874015 66.03937007874015 66.03937007874015 66.03937007874015 66.03937007874015 66.03937007874015 66.00860648232924 66.03937007874015 66.03937007874015 66.03937007874015 66.00860648232924 66.03937007874015 66.03937007874015 66.00860648232924 66.03937007874015 66.03937007874015 66.03937007874015 66.03937007874015 66.03937007874015 66.03937007874015 66.03937007874015 66.00860648232924 66.03937007874015 66.03937007874015 66.03937007874015 66.03937007874015 66.00860648232924 66.03937007874015 66.00860648232924 66.03937007874015 66.03937007874015 66.03937007874015 66.03937007874015 66.03937007874015 66.03937007874015 66.03937007874015 66.03937007874015 66.00860648232924 66.03937007874015 66.03937007874015 66.00860648232924 66.00860648232924 66.00860648232924 66.00860648232924 66.00860648232924 66.00860648232924 66.00860648232924 65.94707928950741 65.9163156930965 65.9163156930965 65.85478850027468 65.85478850027468 65.82402490386376 65.82402490386376 65.82402490386376 65.82402490386376 65.82402490386376 65.82402490386376 65.82402490386376 65.82402490386376 65.82402490386376 65.82402490386376 65.82402490386376 65.82402490386376 65.82402490386376 65.82402490386376 65.82402490386376 65.82402490386376 65.82402490386376 65.82402490386376 65.82402490386376 65.82402490386376 65.82402490386376 65.82402490386376 65.82402490386376 65.82402490386376 65.82402490386376 65.79326130745284 65.79326130745284 65.79326130745284 65.76249771104193 65.76249771104193 65.76249771104193 65.73173411463102 65.73173411463102 65.73173411463102 65.73173411463102 65.73173411463102 65.7009705182201 65.7009705182201 65.7009705182201 65.7009705182201 65.7009705182201 65.7009705182201 65.7009705182201 65.7009705182201 65.67020692180918 65.7009705182201 65.63944332539828 65.63944332539828 65.63944332539828 65.63944332539828 65.60867972898737 65.63944332539828 65.60867972898737 65.63944332539828 65.63944332539828 65.60867972898737 65.60867972898737 65.60867972898737 65.60867972898737 65.57791613257645 65.57791613257645 65.54715253616553 65.54715253616553 65.54715253616553 65.54715253616553 65.54715253616553 65.51638893975462 65.51638893975462 65.51638893975462 65.48562534334371 65.45486174693279 65.45486174693279 65.45486174693279 65.42409815052187 65.42409815052187 65.42409815052187 65.42409815052187 65.42409815052187 65.42409815052187 65.42409815052187 65.42409815052187 65.42409815052187 65.42409815052187 65.42409815052187 65.42409815052187 65.42409815052187 65.42409815052187 65.42409815052187 65.42409815052187 65.42409815052187 65.42409815052187 65.39333455411096 65.39333455411096 65.39333455411096 65.39333455411096 65.39333455411096 65.42409815052187 65.39333455411096 65.39333455411096 65.42409815052187 65.39333455411096 65.39333455411096 65.39333455411096 65.39333455411096 65.30104376487822 65.2395165720564 65.14722578282365 65.02417139718 64.93188060794725 64.80882622230361 64.65500824024903 64.59348104742722 64.47042666178355 64.37813587255081 64.19355429408533 64.00897271561985 63.88591832997619 63.70133675151071 63.516755173045226 63.36293719099066 63.14759201611426 62.99377403405969 62.65537447353964 62.47079289507416 62.28621131660868 62.13239333455411 61.855520966855885 61.64017579197949 61.33253982787035 60.96337667093938 60.594213514008416 60.34810474272111 60.1019959714338 59.579014832448266 59.332906061160955 58.93297930781908 58.59457974729903 58.28694378318989 57.88701702984801 57.48709027650613 57.210217908807905 56.748763962644205 56.348837209302324 56.0719648416041 55.641274491851306 55.36440212415309 54.933711774400294 54.5030214246475 54.19538546053836 53.79545870719648 53.364768357443694 52.99560520051273 52.62644204358176 52.257278886650795 51.85735213330892 51.54971616919978 51.211316608679724 50.65757187328328 50.2576451199414 49.980772752243176 49.55008240249039 49.30397363120308 48.873283281450284 48.473356528108404 48.104193371177445 47.73503021424648 47.42739425013734 46.965940303973625 46.350668375755355 46.07379600805713 45.79692364035891 45.396996887017025 45.089360922907886 44.6586705731551 44.381798205456874 43.828053470060425 43.45889031312946 43.18201794543124 42.84361838491119 42.59750961362388 42.412928035158394 41.9822376854056 41.73612891411829 41.42849295000916 41.12085698590002 40.936275407434536 40.56711225050357 40.32100347921626 40.10565830433986 39.82878593664164 39.61344076176525 39.30580479765611 38.99816883354697 38.65976927302692 38.321369712506865 37.9522065555759 37.767624977110415 37.42922541659037 37.21388024171397 36.72166269913935 36.41402673503021 36.198681560153815 35.9218091924556 35.67570042116829 35.52188243911371 35.27577366782641 35.12195568577184 34.87584691448453 34.629738143197216 34.475920161142646 34.26057498626625 34.01446621497894 33.95293902215711 33.860648232924376 33.76835744369163 33.67606665445889 33.58377586522615 33.49148507599341 33.30690349752793 33.214612708295185 33.15308551547336 33.0300311298297 32.93774034059696 32.814685954953305 32.660867972898735 32.568577183665994 32.47628639443325 32.414759201611425 32.3532320087896 32.29170481596777 32.260941219556855 32.19941402673503 32.1378868339132 32.107123237502286 32.014832448269544 31.984068851858634 31.95330525544772 31.922541659036806 31.922541659036806 31.922541659036806 31.891778062625892 31.86101446621498 31.830250869804065 31.830250869804065 31.768723676982237 31.737960080571323 31.676432887749495 31.614905694927668 31.55337850210584 31.491851309284012 31.399560520051274 31.338033327229446 31.307269730818533 31.245742537996705 31.21497894158579 31.153451748763963 31.12268815235305 31.091924555942136 31.06116095953122 31.030397363120308 30.999633766709394 30.938106573887566 30.907342977476652 30.845815784654825 30.753524995422083 30.66123420618934 30.5689434169566 30.507416224134772 30.415125434902034 30.353598242080206 30.322834645669293 30.23054385643655 30.13825306720381 30.107489470792896 30.045962277971068 29.98443508514924 29.953671488738326 29.922907892327412 29.8921442959165 29.861380699505585 29.83061710309467 29.799853506683757 29.769089910272843 29.769089910272843 29.769089910272843 29.769089910272843 29.769089910272843 29.73832631386193 29.73832631386193 29.73832631386193 29.73832631386193 29.73832631386193 29.707562717451015 29.707562717451015 29.707562717451015 29.6767991210401 29.6767991210401 29.6767991210401 29.6767991210401 29.646035524629188 29.646035524629188 29.646035524629188 29.646035524629188 29.646035524629188 29.646035524629188 29.646035524629188 29.646035524629188 29.615271928218274 29.615271928218274 29.615271928218274 29.615271928218274 29.58450833180736 29.58450833180736 29.58450833180736 29.553744735396446 29.58450833180736 29.553744735396446 29.553744735396446 29.553744735396446 29.553744735396446 29.553744735396446 29.553744735396446 29.522981138985532 29.522981138985532 29.522981138985532 29.49221754257462 29.49221754257462 29.461453946163708 29.461453946163708 29.461453946163708 29.461453946163708 29.461453946163708 29.461453946163708 29.461453946163708 29.461453946163708 29.430690349752794 29.430690349752794 29.430690349752794 29.39992675334188 29.39992675334188 29.369163156930966 29.369163156930966 29.338399560520052 29.30763596410914 29.276872367698225 29.276872367698225 29.24610877128731 29.215345174876397 29.184581578465483 29.184581578465483 29.15381798205457 29.15381798205457 29.123054385643655 29.123054385643655 29.09229078923274 29.09229078923274 29.09229078923274 29.09229078923274 29.061527192821828 29.061527192821828 29.061527192821828 29.030763596410914 29.030763596410914 29.030763596410914 29.030763596410914 29.030763596410914 29.030763596410914 29.030763596410914 29.030763596410914 29.030763596410914 29.030763596410914 29.030763596410914 29.030763596410914 29.030763596410914 29.0 29.030763596410914 29.0 29.0 29.0 29.0 28.969236403589086 29.0 28.969236403589086 28.969236403589086 28.969236403589086 28.969236403589086 28.969236403589086 28.969236403589086 28.969236403589086 28.938472807178172 28.969236403589086 28.938472807178172 28.938472807178172 28.938472807178172 28.938472807178172 28.938472807178172 28.938472807178172 28.938472807178172 28.938472807178172 28.938472807178172 28.938472807178172 28.938472807178172 28.938472807178172 28.969236403589086 28.938472807178172 28.938472807178172 28.938472807178172 28.938472807178172 28.969236403589086 28.938472807178172 28.938472807178172 28.938472807178172 28.938472807178172 28.938472807178172 28.938472807178172 28.938472807178172 28.938472807178172 28.938472807178172 28.938472807178172 28.938472807178172 28.938472807178172 28.938472807178172 28.938472807178172 28.938472807178172 28.938472807178172 28.938472807178172 28.938472807178172 28.938472807178172 28.938472807178172 28.938472807178172 28.938472807178172 28.938472807178172 28.938472807178172 28.938472807178172 28.938472807178172 28.938472807178172 28.938472807178172 28.938472807178172 28.938472807178172 28.938472807178172 28.938472807178172 28.938472807178172 28.938472807178172 28.938472807178172 28.938472807178172 28.938472807178172 28.938472807178172 28.938472807178172 28.938472807178172 28.938472807178172 28.938472807178172 28.938472807178172 28.938472807178172 28.938472807178172 28.938472807178172 28.938472807178172 28.938472807178172 28.938472807178172 28.938472807178172 28.938472807178172 28.938472807178172 28.938472807178172 28.938472807178172 28.969236403589086 28.938472807178172 28.938472807178172 28.938472807178172 28.938472807178172 28.938472807178172 28.938472807178172 28.938472807178172 28.938472807178172 28.938472807178172 28.938472807178172 28.938472807178172 28.938472807178172 28.938472807178172 28.938472807178172 28.938472807178172 28.938472807178172 28.938472807178172 28.938472807178172 28.938472807178172 28.938472807178172 28.938472807178172 28.938472807178172 28.938472807178172 28.938472807178172 28.938472807178172 28.938472807178172 28.938472807178172 28.938472807178172 28.938472807178172 28.938472807178172 28.938472807178172 28.938472807178172 28.938472807178172 28.938472807178172 28.938472807178172 28.938472807178172 28.938472807178172 28.938472807178172 28.938472807178172 28.938472807178172 28.938472807178172 28.938472807178172 28.938472807178172 28.938472807178172 28.938472807178172 28.938472807178172 28.938472807178172 28.938472807178172 28.938472807178172 28.938472807178172 28.938472807178172 28.938472807178172 28.938472807178172 28.938472807178172 28.938472807178172 28.938472807178172 28.938472807178172 28.938472807178172 28.938472807178172 28.938472807178172 28.938472807178172 28.938472807178172 28.938472807178172 28.938472807178172 28.938472807178172 28.938472807178172 28.938472807178172 28.938472807178172 28.938472807178172 28.938472807178172 28.938472807178172 28.938472807178172 28.938472807178172 28.938472807178172 28.938472807178172 28.938472807178172 28.938472807178172 28.938472807178172 28.938472807178172 28.938472807178172 28.938472807178172 28.938472807178172 28.938472807178172 28.938472807178172 28.938472807178172 28.938472807178172 28.938472807178172 28.938472807178172 28.938472807178172 28.938472807178172 28.938472807178172 28.938472807178172 28.938472807178172 28.938472807178172 28.938472807178172 28.938472807178172 28.938472807178172 28.938472807178172 28.938472807178172 28.938472807178172 28.938472807178172 28.938472807178172 28.938472807178172 28.938472807178172 28.938472807178172 28.938472807178172 28.938472807178172 28.938472807178172 28.938472807178172 28.938472807178172 28.938472807178172 28.938472807178172 28.938472807178172 28.938472807178172 28.938472807178172 28.938472807178172 28.938472807178172 28.938472807178172 28.938472807178172 28.938472807178172 28.90770921076726 28.938472807178172 28.938472807178172 28.90770921076726 28.938472807178172 28.938472807178172 28.938472807178172 28.90770921076726 28.90770921076726 28.938472807178172 28.938472807178172 28.938472807178172 28.938472807178172 28.938472807178172 28.938472807178172 28.90770921076726 28.938472807178172 28.938472807178172 28.938472807178172 28.90770921076726 28.90770921076726 28.90770921076726 28.90770921076726 28.90770921076726 28.90770921076726 28.90770921076726 28.90770921076726 28.90770921076726 28.90770921076726 28.90770921076726 28.90770921076726 28.90770921076726 28.90770921076726 28.90770921076726 28.876945614356345 28.876945614356345 28.876945614356345 28.876945614356345 28.876945614356345 28.84618201794543 28.84618201794543 28.84618201794543 28.876945614356345 28.84618201794543 28.84618201794543 28.84618201794543 28.84618201794543 28.84618201794543 28.84618201794543 28.84618201794543 28.84618201794543 28.84618201794543 28.84618201794543 28.84618201794543 28.84618201794543 28.84618201794543 28.84618201794543 28.84618201794543 28.84618201794543 28.84618201794543 28.84618201794543 28.84618201794543 28.84618201794543 28.84618201794543 28.84618201794543 28.84618201794543 28.84618201794543 28.84618201794543 28.84618201794543 28.84618201794543 28.84618201794543 28.84618201794543 28.84618201794543 28.84618201794543 28.84618201794543 28.84618201794543 28.84618201794543 28.84618201794543 28.84618201794543 28.84618201794543 28.84618201794543 28.84618201794543 28.84618201794543 28.84618201794543 28.84618201794543 28.84618201794543 28.84618201794543 28.84618201794543 28.84618201794543 28.84618201794543 28.84618201794543 28.84618201794543 28.84618201794543 28.84618201794543 28.84618201794543 28.84618201794543 28.84618201794543 28.84618201794543 28.84618201794543 28.84618201794543 28.84618201794543 28.84618201794543 28.84618201794543 28.84618201794543 28.84618201794543 28.815418421534517 28.84618201794543 28.815418421534517 28.84618201794543 28.84618201794543 28.84618201794543 28.84618201794543 28.84618201794543 28.84618201794543 28.84618201794543 28.84618201794543 28.84618201794543 28.84618201794543 28.84618201794543 28.815418421534517 28.84618201794543 28.84618201794543 28.84618201794543 28.84618201794543 28.84618201794543 28.84618201794543 28.84618201794543 28.84618201794543 28.84618201794543 28.84618201794543 28.84618201794543 28.84618201794543 28.84618201794543 28.84618201794543 28.84618201794543 28.84618201794543 28.84618201794543 28.84618201794543 28.84618201794543 28.84618201794543 28.84618201794543 28.84618201794543 28.84618201794543 28.84618201794543 28.815418421534517 28.84618201794543 28.84618201794543 28.84618201794543 28.84618201794543 28.84618201794543 28.84618201794543 28.84618201794543 28.84618201794543 28.84618201794543 28.84618201794543 28.84618201794543 28.84618201794543 28.815418421534517 28.84618201794543 28.84618201794543 28.84618201794543 28.84618201794543 28.84618201794543 28.84618201794543 28.84618201794543 28.84618201794543 28.84618201794543 28.84618201794543 28.815418421534517 28.84618201794543 28.84618201794543 28.815418421534517 28.84618201794543 28.84618201794543 28.84618201794543 28.84618201794543 28.84618201794543 28.815418421534517 28.84618201794543 28.84618201794543 28.84618201794543 28.84618201794543 28.815418421534517 28.84618201794543 28.84618201794543 28.84618201794543 28.84618201794543 28.84618201794543 28.84618201794543 28.84618201794543 28.84618201794543 28.84618201794543 28.815418421534517 28.815418421534517 28.84618201794543 28.84618201794543 28.84618201794543 28.815418421534517 28.84618201794543 28.84618201794543 28.84618201794543 28.84618201794543 28.84618201794543 28.84618201794543 28.84618201794543 28.815418421534517 28.84618201794543 28.84618201794543 28.84618201794543 28.815418421534517 28.84618201794543 28.84618201794543 28.84618201794543 28.815418421534517 28.84618201794543 28.84618201794543 28.84618201794543 28.815418421534517 28.84618201794543 28.815418421534517 28.84618201794543 28.84618201794543 28.84618201794543 28.84618201794543 28.84618201794543 28.84618201794543 28.84618201794543 28.84618201794543 28.84618201794543 28.84618201794543 28.84618201794543 28.84618201794543 28.84618201794543 28.84618201794543 28.84618201794543 28.84618201794543 28.84618201794543 28.815418421534517 28.84618201794543 28.84618201794543 28.84618201794543 28.84618201794543 28.84618201794543 28.84618201794543 28.84618201794543 28.84618201794543 28.84618201794543 28.84618201794543 28.84618201794543 28.84618201794543 28.84618201794543 28.84618201794543 28.84618201794543 28.84618201794543 28.84618201794543 28.815418421534517 28.84618201794543 28.84618201794543 28.815418421534517 28.84618201794543 28.84618201794543 28.84618201794543 28.84618201794543 28.815418421534517 28.84618201794543 28.84618201794543 28.84618201794543 28.84618201794543 28.84618201794543 28.815418421534517 28.84618201794543 28.84618201794543 28.84618201794543 28.84618201794543 28.84618201794543 28.84618201794543 28.815418421534517 28.84618201794543 28.84618201794543 28.84618201794543 28.84618201794543 28.84618201794543 28.84618201794543 28.84618201794543 28.84618201794543 28.84618201794543 28.84618201794543 28.84618201794543 28.84618201794543 28.84618201794543 28.815418421534517 28.84618201794543 28.84618201794543 28.815418421534517 28.84618201794543 28.84618201794543 28.84618201794543 28.84618201794543 28.84618201794543 28.84618201794543 28.84618201794543 28.815418421534517 28.815418421534517 28.84618201794543 28.84618201794543 28.815418421534517 28.84618201794543 28.84618201794543 28.815418421534517 28.815418421534517 28.84618201794543 28.84618201794543 28.84618201794543 28.815418421534517 28.815418421534517 28.84618201794543 28.84618201794543 28.84618201794543 28.84618201794543 28.84618201794543 28.84618201794543 28.815418421534517 28.84618201794543 28.815418421534517 28.84618201794543 28.815418421534517 28.84618201794543 28.84618201794543 28.84618201794543 28.84618201794543 28.84618201794543 28.84618201794543 28.84618201794543 28.84618201794543 28.84618201794543 28.84618201794543 28.84618201794543 28.84618201794543 28.815418421534517 28.84618201794543 28.84618201794543 28.84618201794543 28.84618201794543 28.84618201794543 28.84618201794543 28.815418421534517 28.815418421534517 28.815418421534517 28.815418421534517 28.84618201794543 28.84618201794543 28.84618201794543 28.84618201794543 28.84618201794543 28.84618201794543 28.84618201794543 28.84618201794543 28.815418421534517 28.84618201794543 28.84618201794543 28.815418421534517 28.815418421534517 28.815418421534517 28.815418421534517 28.84618201794543 28.815418421534517 28.84618201794543 28.815418421534517 28.815418421534517 28.84618201794543 28.84618201794543 28.84618201794543 28.815418421534517 28.84618201794543 28.815418421534517 28.815418421534517 28.84618201794543 28.84618201794543 28.84618201794543 28.84618201794543 28.815418421534517 28.84618201794543 28.815418421534517 28.84618201794543 28.84618201794543 28.84618201794543 28.815418421534517 28.84618201794543 28.84618201794543 28.815418421534517 28.84618201794543 28.84618201794543 28.815418421534517 28.84618201794543 28.84618201794543 28.84618201794543 28.84618201794543 28.84618201794543 28.84618201794543 28.815418421534517 28.84618201794543 28.815418421534517 28.815418421534517 28.84618201794543 28.84618201794543 28.815418421534517 28.84618201794543 28.815418421534517 28.815418421534517 28.84618201794543 28.815418421534517 28.84618201794543 28.84618201794543 28.84618201794543 28.84618201794543 28.84618201794543 28.815418421534517 28.815418421534517 28.84618201794543 28.84618201794543 28.84618201794543 28.84618201794543 28.815418421534517 28.84618201794543 28.84618201794543 28.815418421534517 28.84618201794543 28.815418421534517 28.84618201794543 28.84618201794543 28.815418421534517 28.815418421534517 28.815418421534517 28.84618201794543 28.84618201794543 28.84618201794543 28.84618201794543 28.815418421534517 28.815418421534517 28.84618201794543 28.815418421534517 28.815418421534517 28.84618201794543 28.84618201794543 28.84618201794543 28.815418421534517 28.815418421534517 28.84618201794543 28.84618201794543 28.815418421534517 28.84618201794543 28.815418421534517 28.84618201794543 28.84618201794543 28.84618201794543 28.84618201794543 28.84618201794543 28.84618201794543 28.815418421534517 28.84618201794543 28.815418421534517 28.84618201794543 28.815418421534517 28.815418421534517 28.815418421534517 28.815418421534517 28.84618201794543 28.84618201794543 28.815418421534517 28.84618201794543 28.84618201794543 28.84618201794543 28.815418421534517 28.84618201794543 28.84618201794543 28.815418421534517 28.84618201794543 28.84618201794543 28.815418421534517 28.84618201794543 28.84618201794543 28.84618201794543 28.815418421534517 28.84618201794543 28.84618201794543 28.84618201794543 28.84618201794543 28.84618201794543 28.815418421534517 28.815418421534517 28.815418421534517 28.815418421534517 28.815418421534517 28.815418421534517 28.815418421534517 28.815418421534517 28.815418421534517 28.815418421534517 28.784654825123603 28.815418421534517 28.784654825123603 28.784654825123603 28.784654825123603 28.784654825123603 28.784654825123603 28.784654825123603 28.815418421534517 28.815418421534517 28.815418421534517 28.815418421534517 28.815418421534517 28.815418421534517 28.815418421534517 28.84618201794543 28.84618201794543 28.84618201794543 28.84618201794543 28.84618201794543 28.84618201794543 28.84618201794543 28.84618201794543 28.84618201794543 28.84618201794543 28.84618201794543 28.84618201794543 28.876945614356345 28.938472807178172 28.969236403589086 28.969236403589086 29.0 29.0 29.030763596410914 29.061527192821828 29.123054385643655 29.184581578465483 29.24610877128731 29.276872367698225 29.338399560520052 29.39992675334188 29.49221754257462 29.522981138985532 29.615271928218274 29.6767991210401 29.73832631386193 29.861380699505585 29.8921442959165 29.922907892327412 29.922907892327412 29.953671488738326 29.953671488738326 29.98443508514924 30.015198681560154 30.045962277971068 30.045962277971068 30.07672587438198 30.107489470792896 30.13825306720381 30.23054385643655 30.261307452847465 30.322834645669293 30.353598242080206 30.38436183849112 30.47665262772386 30.507416224134772 30.5689434169566 30.630470609778428 30.691997802600255 30.753524995422083 30.87657938106574 30.938106573887566 31.030397363120308 31.153451748763963 31.245742537996705 31.338033327229446 31.338033327229446 31.461087712873102 31.522614905694926 31.614905694927668 31.737960080571323 31.891778062625892 31.984068851858634 32.168650430324114 32.29170481596777 32.414759201611425 32.568577183665994 32.660867972898735 32.78392235854239 32.87621314777513 32.99926753341879 33.15308551547336 33.27613990111701 33.42995788317158 33.67606665445889 33.79912104010255 33.95293902215711 34.19904779344442 34.32210217908808 34.50668375755356 34.5989745467863 34.87584691448453 35.06042849295001 35.21424647500458 35.39882805347006 35.583409631935545 35.706464017579194 35.9218091924556 36.07562717451016 36.29097234938656 36.53708112067387 36.72166269913935 37.060062259659404 37.21388024171397 37.42922541659037 37.70609778428859 37.89067936275407 38.167551730452296 38.567478483794176 38.75206006225966 39.0596960263688 39.30580479765611 39.5211499725325 39.76725874381981 40.10565830433986 40.444057864859914 40.75169382896905 40.997802600256364 41.336202160776416 41.64383812488555 42.013001281816514 42.22834645669291 42.47445522798022 42.812854788500275 43.15125434902033 43.366599523896724 43.79728987364952 43.981871452114994 44.25874381981322 44.41256180186779 44.59714338033327 44.84325215162058 45.181651712140635 45.45852407983885 45.61234206189343 45.76616004394799 45.98150521882439 46.13532320087896 46.31990477934444 46.658304339864486 46.87364951474089 47.05823109320637 47.304339864493684 47.48892144295917 47.73503021424648 48.011902581944696 48.19648416041018 48.473356528108404 48.780992492217536 49.027101263504846 49.365500824024906 49.61160959531221 50.10382713788683 50.31917231276323 50.56528108405054 50.903680644570585 51.27284380150155 51.51895257278886 51.98040651895257 52.22651529023988 52.503387657938106 52.718732832814496 53.026368796923634 53.303241164621866 53.580113532320084 53.79545870719648 54.072331074894706 54.31843984618202 54.56454861746933 54.81065738875664 54.99523896722212 55.24134773850943 55.425929316974916 55.67203808826222 55.91814685954953 56.10272843801501 56.41036440212415 56.748763962644205 56.964109137520595 57.27174510162973 57.54861746932796 58.010071415491666 58.37923457242263 58.62534334370994 58.99450650064091 59.24061527192821 59.48672404321553 59.91741439296832 60.16352316425563 60.50192272477568 60.74803149606299 60.994140267350296 61.20948544222669 61.45559421351401 61.609412195568574 61.855520966855885 62.04010254532137 62.22468412378685 62.44002929866325 62.50155649148507 62.5630836843069 62.5630836843069 62.59384728071782 62.59384728071782 62.65537447353964 62.68613806995056 62.68613806995056 62.716901666361466 62.716901666361466 62.716901666361466 62.74766526277239 62.77842885918329 62.80919245559421 62.901483244826956 62.96301043764878 63.024537630470604 63.08606482329243 63.11682841970335 63.14759201611426 63.14759201611426 63.14759201611426 63.20911920893609 63.27064640175792 63.30140999816883 63.33217359457974 63.39370078740157 63.39370078740157 63.39370078740157 63.424464383812484 63.424464383812484 63.39370078740157 63.424464383812484 63.39370078740157 63.39370078740157 63.424464383812484 63.424464383812484 63.39370078740157 63.39370078740157 63.39370078740157 63.39370078740157 63.39370078740157 63.39370078740157 63.39370078740157 63.39370078740157 63.39370078740157 63.39370078740157 63.39370078740157 63.39370078740157 63.39370078740157 63.39370078740157 63.39370078740157 63.39370078740157 63.39370078740157 63.39370078740157 63.39370078740157 63.39370078740157 63.39370078740157 63.424464383812484 63.39370078740157 63.424464383812484 63.39370078740157 63.424464383812484 63.424464383812484 63.39370078740157 63.39370078740157 63.39370078740157 63.39370078740157 63.39370078740157 63.39370078740157 63.36293719099066 63.33217359457974 63.33217359457974 63.33217359457974 63.33217359457974 63.33217359457974 63.30140999816883 63.33217359457974 63.30140999816883 63.30140999816883 63.30140999816883 63.30140999816883 63.30140999816883 63.30140999816883 63.30140999816883 63.30140999816883 63.30140999816883 63.30140999816883 63.30140999816883 63.30140999816883 63.30140999816883 63.30140999816883 63.27064640175792 63.27064640175792 63.27064640175792 63.27064640175792 63.239882805347 63.239882805347 63.239882805347 63.239882805347 63.27064640175792 63.239882805347 63.27064640175792 63.239882805347 63.27064640175792 63.239882805347 63.20911920893609 63.20911920893609 63.17835561252517 63.17835561252517 63.14759201611426 63.11682841970335 63.11682841970335 63.08606482329243 63.08606482329243 63.08606482329243 63.08606482329243 63.055301226881525 63.055301226881525 63.055301226881525 63.055301226881525 63.055301226881525 63.055301226881525 63.055301226881525 63.055301226881525 63.055301226881525 63.08606482329243 63.055301226881525 63.08606482329243 63.08606482329243 63.08606482329243 63.08606482329243 63.08606482329243 63.055301226881525 63.055301226881525 63.055301226881525 63.055301226881525 63.055301226881525 63.055301226881525 63.055301226881525 63.024537630470604 63.024537630470604 63.024537630470604 63.024537630470604 63.024537630470604 63.024537630470604 62.99377403405969 62.99377403405969 62.99377403405969 62.96301043764878 62.96301043764878 62.96301043764878 62.96301043764878 62.96301043764878 62.96301043764878 62.93224684123786 62.93224684123786 62.96301043764878 62.93224684123786 62.93224684123786 62.93224684123786 62.93224684123786 62.93224684123786 62.93224684123786 62.901483244826956 62.83995605200513 62.80919245559421 62.77842885918329 62.68613806995056 62.65537447353964 62.59384728071782 62.5630836843069 62.5630836843069 62.53232008789599 62.53232008789599 62.53232008789599 62.53232008789599 62.53232008789599 62.53232008789599 62.50155649148507 62.53232008789599 62.53232008789599 62.53232008789599 62.53232008789599 62.53232008789599 62.53232008789599 62.53232008789599 62.53232008789599 62.53232008789599 62.53232008789599 62.53232008789599 62.53232008789599 62.53232008789599 62.53232008789599 62.53232008789599 62.53232008789599 62.53232008789599 62.53232008789599 62.50155649148507 62.50155649148507 62.50155649148507 62.47079289507416 62.47079289507416 62.44002929866325 62.44002929866325 62.409265702252334 62.409265702252334 62.37850210584142 62.347738509430506 62.28621131660868 62.255447720197765 62.22468412378685 62.19392052737594 62.16315693096502 62.13239333455411 62.13239333455411 62.101629738143195 62.101629738143195 62.101629738143195 62.07086614173228 62.04010254532137 62.04010254532137 62.04010254532137 62.04010254532137 62.04010254532137 62.04010254532137 62.04010254532137 62.04010254532137 62.009338948910454 61.97857535249954 61.97857535249954 61.97857535249954 61.97857535249954 61.97857535249954 61.97857535249954 61.97857535249954 61.97857535249954 61.97857535249954 61.97857535249954 61.947811756088626 61.91704815967771 61.91704815967771 61.91704815967771 61.91704815967771 61.91704815967771 61.91704815967771 61.91704815967771 61.91704815967771 61.91704815967771 61.91704815967771 61.91704815967771 61.91704815967771 61.91704815967771 61.91704815967771 61.91704815967771 61.91704815967771 61.91704815967771 61.8862845632668 61.855520966855885 61.82475737044497 61.82475737044497 61.79399377403406 61.76323017762314 61.73246658121223 61.701702984801315 61.701702984801315 61.701702984801315 61.701702984801315 61.701702984801315 61.701702984801315 61.701702984801315 61.701702984801315 61.64017579197949 61.64017579197949 61.609412195568574 61.57864859915766 61.57864859915766 61.57864859915766 61.57864859915766 61.57864859915766 61.57864859915766 61.547885002746746 61.547885002746746 61.51712140633583 61.48635780992492 61.48635780992492 61.48635780992492 61.45559421351401 61.48635780992492 61.45559421351401 61.48635780992492 61.48635780992492 61.48635780992492 61.45559421351401 61.48635780992492 61.48635780992492 61.51712140633583 61.51712140633583 61.48635780992492 61.48635780992492 61.51712140633583 61.51712140633583 61.51712140633583 61.51712140633583 61.51712140633583 61.51712140633583 61.51712140633583 61.51712140633583 61.51712140633583 61.51712140633583 61.48635780992492 61.51712140633583 61.48635780992492 61.45559421351401 61.45559421351401 61.45559421351401 61.45559421351401 61.42483061710309 61.42483061710309 61.42483061710309 61.42483061710309 61.39406702069218 61.39406702069218 61.36330342428126 61.33253982787035 61.27101263504852 61.27101263504852 61.20948544222669 61.14795824940487 61.086431056583045 60.932613074528476 60.778795092473906 60.686504303241165 60.3173411463102 60.19428676066654 60.040468778611974 59.85588720014648 59.67130562168101 59.48672404321553 59.27137886833913 59.117560886284565 58.84068851858633 58.65610694012086 58.37923457242263 58.19465299395715 57.94854422266984 57.70243545138253 57.48709027650613 57.117927119575164 56.841054751876946 56.656473173411456 56.37960080571324 56.195019227247755 56.01043764878227 55.61051089544039 55.36440212415309 55.05676616004395 54.7183665995239 54.5030214246475 54.226149056949275 53.79545870719648 53.64164072514191 53.364768357443694 53.118659586156376 52.78026002563632 52.411096868705364 52.103460904596226 51.826588536898 51.457425379967034 51.242080205090645 50.903680644570585 50.534517487639626 50.22688152353049 49.888481963010435 49.673136788134045 49.334737227613985 49.027101263504846 48.81175608862846 48.50412012451932 48.28877494964292 48.104193371177445 47.765793810657385 47.550448635780995 47.24281267167186 46.93517670756272 46.68906793627541 46.41219556857718 46.196850393700785 45.91997802600257 45.5508148690716 45.45852407983885 45.21241530855154 44.84325215162058 44.72019776597693 44.4433253982787 44.28950741622413 43.88958066288225 43.581944698773114 43.39736312030763 43.0897271561985 42.905145577733016 42.62827321003479 42.38216443874748 42.197582860282 41.9822376854056 41.73612891411829 41.58231093206372 41.243911371543675 41.090093389489105 40.90551181102362 40.65940303973631 40.47482146127083 40.1979490935726 39.890313129463465 39.70573155099798 39.428859183299764 39.18275041201245 38.875114447903314 38.65976927302692 38.321369712506865 38.013733748397726 37.767624977110415 37.58304339864493 37.36769822376854 37.152353048892145 36.81395348837209 36.66013550631752 36.53708112067387 36.352499542208385 36.106390770921074 35.952572788866505 35.706464017579194 35.491118842702804 35.30653726423732 35.183482878593665 35.06042849295001 34.84508331807361 34.629738143197216 34.475920161142646 34.32210217908808 34.19904779344442 34.10675700421168 34.01446621497894 33.95293902215711 33.829884636513455 33.73759384728072 33.64530305804798 33.55301226881524 33.49148507599341 33.42995788317158 33.368430690349754 33.33766709393884 33.27613990111701 33.2453763047061 33.214612708295185 33.18384911188427 33.15308551547336 33.12232191906244 33.060794726240616 33.0300311298297 32.93774034059696 32.87621314777513 32.814685954953305 32.69163156930965 32.63010437648782 32.53781358725508 32.507049990844166 32.47628639443325 32.414759201611425 32.38399560520051 32.3532320087896 32.29170481596777 32.260941219556855 32.23017762314594 32.19941402673503 32.1378868339132 32.07635964109137 32.014832448269544 31.95330525544772 31.86101446621498 31.768723676982237 31.64566929133858 31.55337850210584 31.522614905694926 31.491851309284012 31.522614905694926 31.522614905694926 31.491851309284012 31.491851309284012 31.430324116462188 31.399560520051274 31.36879692364036 31.307269730818533 31.245742537996705 31.153451748763963 31.06116095953122 30.999633766709394 30.938106573887566 30.87657938106574 30.845815784654825 30.784288591832997 30.753524995422083 30.691997802600255 30.630470609778428 30.599707013367514 30.5689434169566 30.507416224134772 30.445889031312948 30.38436183849112 30.29207104925838 30.199780260025637 30.107489470792896 30.07672587438198 30.07672587438198 30.07672587438198 30.07672587438198 30.07672587438198 30.07672587438198 30.07672587438198 30.045962277971068 30.015198681560154 29.98443508514924 29.98443508514924 29.953671488738326 29.953671488738326 29.953671488738326 29.953671488738326 29.953671488738326 29.922907892327412 29.922907892327412 29.922907892327412 29.922907892327412 29.8921442959165 29.8921442959165 29.8921442959165 29.8921442959165 29.8921442959165 29.861380699505585 29.861380699505585 29.861380699505585 29.83061710309467 29.83061710309467 29.83061710309467 29.799853506683757 29.799853506683757 29.769089910272843 29.769089910272843 29.73832631386193 29.73832631386193 29.707562717451015 29.6767991210401 29.646035524629188 29.646035524629188 29.615271928218274 29.615271928218274 29.615271928218274 29.58450833180736 29.58450833180736 29.58450833180736 29.58450833180736 29.58450833180736 29.553744735396446 29.553744735396446 29.553744735396446 29.553744735396446 29.522981138985532 29.522981138985532 29.522981138985532 29.522981138985532 29.522981138985532 29.49221754257462 29.49221754257462 29.49221754257462 29.49221754257462 29.49221754257462 29.49221754257462 29.49221754257462 29.49221754257462 29.461453946163708 29.461453946163708 29.461453946163708 29.430690349752794 29.430690349752794 29.39992675334188 29.39992675334188 29.39992675334188 29.39992675334188 29.39992675334188 29.39992675334188 29.39992675334188 29.39992675334188 29.369163156930966 29.369163156930966 29.369163156930966 29.369163156930966 29.369163156930966 29.369163156930966 29.369163156930966 29.338399560520052 29.338399560520052 29.338399560520052 29.30763596410914 29.30763596410914 29.30763596410914 29.30763596410914 29.30763596410914 29.30763596410914 29.30763596410914 29.30763596410914 29.30763596410914 29.30763596410914 29.30763596410914 29.30763596410914 29.30763596410914 29.276872367698225 29.276872367698225 29.30763596410914 29.276872367698225 29.276872367698225 29.276872367698225 29.276872367698225 29.30763596410914 29.276872367698225 29.276872367698225 29.276872367698225 29.276872367698225 29.276872367698225 29.276872367698225 29.276872367698225 29.276872367698225 29.276872367698225 29.276872367698225 29.276872367698225 29.276872367698225 29.276872367698225 29.276872367698225 29.276872367698225 29.276872367698225 29.276872367698225 29.276872367698225 29.276872367698225 29.276872367698225 29.276872367698225 29.276872367698225 29.276872367698225 29.276872367698225 29.276872367698225 29.276872367698225 29.276872367698225 29.276872367698225 29.276872367698225 29.276872367698225 29.276872367698225 29.276872367698225 29.276872367698225 29.276872367698225 29.276872367698225 29.276872367698225 29.276872367698225 29.276872367698225 29.276872367698225 29.276872367698225 29.276872367698225 29.276872367698225 29.276872367698225 29.276872367698225 29.276872367698225 29.276872367698225 29.276872367698225 29.276872367698225 29.276872367698225 29.276872367698225 29.276872367698225 29.276872367698225 29.276872367698225 29.276872367698225 29.276872367698225 29.276872367698225 29.276872367698225 29.276872367698225 29.276872367698225 29.276872367698225 29.276872367698225 29.276872367698225 29.276872367698225 29.276872367698225 29.276872367698225 29.276872367698225 29.276872367698225 29.276872367698225 29.276872367698225 29.276872367698225 29.276872367698225 29.276872367698225 29.276872367698225 29.276872367698225 29.276872367698225 29.276872367698225 29.276872367698225 29.276872367698225 29.276872367698225 29.276872367698225 29.276872367698225 29.276872367698225 29.276872367698225 29.276872367698225 29.276872367698225 29.276872367698225 29.276872367698225 29.276872367698225 29.276872367698225 29.276872367698225 29.276872367698225 29.276872367698225 29.276872367698225 29.276872367698225 29.276872367698225 29.276872367698225 29.276872367698225 29.276872367698225 29.276872367698225 29.276872367698225 29.276872367698225 29.276872367698225 29.276872367698225 29.276872367698225 29.276872367698225 29.276872367698225 29.276872367698225 29.276872367698225 29.276872367698225 29.276872367698225 29.276872367698225 29.276872367698225 29.276872367698225 29.276872367698225 29.276872367698225 29.276872367698225 29.276872367698225 29.276872367698225 29.276872367698225 29.276872367698225 29.276872367698225 29.276872367698225 29.276872367698225 29.276872367698225 29.276872367698225 29.276872367698225 29.276872367698225 29.276872367698225 29.276872367698225 29.276872367698225 29.276872367698225 29.276872367698225 29.276872367698225 29.276872367698225 29.276872367698225 29.276872367698225 29.276872367698225 29.276872367698225 29.276872367698225 29.276872367698225 29.276872367698225 29.24610877128731 29.24610877128731 29.24610877128731 29.24610877128731 29.24610877128731 29.215345174876397 29.24610877128731 29.215345174876397 29.215345174876397 29.215345174876397 29.215345174876397 29.215345174876397 29.215345174876397 29.215345174876397 29.215345174876397 29.215345174876397 29.215345174876397 29.215345174876397 29.215345174876397 29.215345174876397 29.215345174876397 29.215345174876397 29.215345174876397 29.215345174876397 29.215345174876397 29.215345174876397 29.215345174876397 29.215345174876397 29.215345174876397 29.184581578465483 29.215345174876397 29.184581578465483 29.215345174876397 29.215345174876397 29.215345174876397 29.215345174876397 29.215345174876397 29.215345174876397 29.215345174876397 29.215345174876397 29.215345174876397 29.215345174876397 29.215345174876397 29.215345174876397 29.215345174876397 29.215345174876397 29.215345174876397 29.184581578465483 29.184581578465483 29.184581578465483 29.215345174876397 29.215345174876397 29.215345174876397 29.215345174876397 29.215345174876397 29.215345174876397 29.215345174876397 29.215345174876397 29.215345174876397 29.215345174876397 29.215345174876397 29.215345174876397 29.215345174876397 29.184581578465483 29.215345174876397 29.215345174876397 29.215345174876397 29.184581578465483 29.215345174876397 29.215345174876397 29.215345174876397 29.215345174876397 29.215345174876397 29.215345174876397 29.215345174876397 29.215345174876397 29.215345174876397 29.184581578465483 29.215345174876397 29.215345174876397 29.184581578465483 29.215345174876397 29.184581578465483 29.184581578465483 29.215345174876397 29.215345174876397 29.215345174876397 29.184581578465483 29.215345174876397 29.215345174876397 29.215345174876397 29.215345174876397 29.184581578465483 29.184581578465483 29.184581578465483 29.184581578465483 29.184581578465483 29.184581578465483 29.184581578465483 29.184581578465483 29.184581578465483 29.184581578465483 29.184581578465483 29.184581578465483 29.184581578465483 29.184581578465483 29.184581578465483 29.184581578465483 29.184581578465483 29.184581578465483 29.184581578465483 29.184581578465483 29.184581578465483 29.184581578465483 29.184581578465483 29.184581578465483 29.184581578465483 29.184581578465483 29.184581578465483 29.184581578465483 29.184581578465483 29.184581578465483 29.184581578465483 29.184581578465483 29.184581578465483 29.184581578465483 29.184581578465483 29.184581578465483 29.184581578465483 29.184581578465483 29.184581578465483 29.184581578465483 29.184581578465483 29.184581578465483 29.184581578465483 29.184581578465483 29.184581578465483 29.184581578465483 29.184581578465483 29.184581578465483 29.184581578465483 29.184581578465483 29.184581578465483 29.184581578465483 29.184581578465483 29.184581578465483 29.184581578465483 29.184581578465483 29.184581578465483 29.184581578465483 29.184581578465483 29.184581578465483 29.184581578465483 29.184581578465483 29.184581578465483 29.184581578465483 29.184581578465483 29.184581578465483 29.184581578465483 29.184581578465483 29.184581578465483 29.184581578465483 29.184581578465483 29.184581578465483 29.184581578465483 29.184581578465483 29.184581578465483 29.184581578465483 29.184581578465483 29.184581578465483 29.184581578465483 29.184581578465483 29.184581578465483 29.184581578465483 29.184581578465483 29.184581578465483 29.184581578465483 29.184581578465483 29.184581578465483 29.184581578465483 29.184581578465483 29.184581578465483 29.184581578465483 29.184581578465483 29.184581578465483 29.184581578465483 29.184581578465483 29.184581578465483 29.184581578465483 29.184581578465483 29.184581578465483 29.184581578465483 29.184581578465483 29.184581578465483 29.184581578465483 29.184581578465483 29.184581578465483 29.184581578465483 29.184581578465483 29.184581578465483 29.184581578465483 29.184581578465483 29.184581578465483 29.184581578465483 29.184581578465483 29.184581578465483 29.184581578465483 29.184581578465483 29.184581578465483 29.184581578465483 29.184581578465483 29.184581578465483 29.184581578465483 29.184581578465483 29.184581578465483 29.184581578465483 29.184581578465483 29.184581578465483 29.184581578465483 29.184581578465483 29.184581578465483 29.184581578465483 29.184581578465483 29.184581578465483 29.184581578465483 29.184581578465483 29.184581578465483 29.184581578465483 29.184581578465483 29.184581578465483 29.184581578465483 29.184581578465483 29.184581578465483 29.184581578465483 29.184581578465483 29.184581578465483 29.184581578465483 29.184581578465483 29.184581578465483 29.184581578465483 29.184581578465483 29.184581578465483 29.184581578465483 29.184581578465483 29.184581578465483 29.184581578465483 29.184581578465483 29.184581578465483 29.184581578465483 29.184581578465483 29.184581578465483 29.184581578465483 29.184581578465483 29.184581578465483 29.15381798205457 29.184581578465483 29.184581578465483 29.15381798205457 29.184581578465483 29.184581578465483 29.15381798205457 29.15381798205457 29.15381798205457 29.184581578465483 29.15381798205457 29.15381798205457 29.15381798205457 29.15381798205457 29.15381798205457 29.15381798205457 29.15381798205457 29.15381798205457 29.15381798205457 29.15381798205457 29.15381798205457 29.15381798205457 29.15381798205457 29.15381798205457 29.15381798205457 29.15381798205457 29.15381798205457 29.15381798205457 29.15381798205457 29.15381798205457 29.15381798205457 29.15381798205457 29.15381798205457 29.15381798205457 29.15381798205457 29.15381798205457 29.15381798205457 29.15381798205457 29.15381798205457 29.15381798205457 29.15381798205457 29.15381798205457 29.15381798205457 29.15381798205457 29.15381798205457 29.15381798205457 29.15381798205457 29.15381798205457 29.15381798205457 29.15381798205457 29.15381798205457 29.15381798205457 29.15381798205457 29.15381798205457 29.15381798205457 29.15381798205457 29.15381798205457 29.15381798205457 29.15381798205457 29.15381798205457 29.123054385643655 29.123054385643655 29.15381798205457 29.15381798205457 29.15381798205457 29.123054385643655 29.15381798205457 29.15381798205457 29.123054385643655 29.123054385643655 29.15381798205457 29.123054385643655 29.123054385643655 29.123054385643655 29.123054385643655 29.123054385643655 29.123054385643655 29.123054385643655 29.123054385643655 29.123054385643655 29.123054385643655 29.123054385643655 29.123054385643655 29.123054385643655 29.123054385643655 29.15381798205457 29.123054385643655 29.123054385643655 29.123054385643655 29.123054385643655 29.15381798205457 29.15381798205457 29.123054385643655 29.123054385643655 29.123054385643655 29.123054385643655 29.123054385643655 29.123054385643655 29.123054385643655 29.123054385643655 29.123054385643655 29.123054385643655 29.123054385643655 29.123054385643655 29.123054385643655 29.123054385643655 29.123054385643655 29.123054385643655 29.123054385643655 29.123054385643655 29.123054385643655 29.123054385643655 29.123054385643655 29.123054385643655 29.123054385643655 29.123054385643655 29.123054385643655 29.123054385643655 29.123054385643655 29.123054385643655 29.123054385643655 29.123054385643655 29.123054385643655 29.123054385643655 29.123054385643655 29.123054385643655 29.123054385643655 29.123054385643655 29.123054385643655 29.123054385643655 29.123054385643655 29.123054385643655 29.123054385643655 29.123054385643655 29.123054385643655 29.123054385643655 29.123054385643655 29.123054385643655 29.123054385643655 29.123054385643655 29.123054385643655 29.123054385643655 29.123054385643655 29.123054385643655 29.123054385643655 29.123054385643655 29.123054385643655 29.123054385643655 29.123054385643655 29.123054385643655 29.123054385643655 29.15381798205457 29.123054385643655 29.123054385643655 29.123054385643655 29.123054385643655 29.123054385643655 29.123054385643655 29.123054385643655 29.123054385643655 29.123054385643655 29.123054385643655 29.123054385643655 29.123054385643655 29.123054385643655 29.123054385643655 29.123054385643655 29.123054385643655 29.123054385643655 29.123054385643655 29.123054385643655 29.123054385643655 29.123054385643655 29.123054385643655 29.123054385643655 29.123054385643655 29.123054385643655 29.123054385643655 29.123054385643655 29.123054385643655 29.123054385643655 29.123054385643655 29.123054385643655 29.123054385643655 29.123054385643655 29.123054385643655 29.123054385643655 29.123054385643655 29.123054385643655 29.123054385643655 29.123054385643655 29.123054385643655 29.123054385643655 29.123054385643655 29.123054385643655 29.123054385643655 29.123054385643655 29.123054385643655 29.123054385643655 29.123054385643655 29.123054385643655 29.123054385643655 29.123054385643655 29.123054385643655 29.123054385643655 29.123054385643655 29.123054385643655 29.123054385643655 29.123054385643655 29.123054385643655 29.123054385643655 29.123054385643655 29.123054385643655 29.123054385643655 29.123054385643655 29.123054385643655 29.123054385643655 29.123054385643655 29.123054385643655 29.123054385643655 29.123054385643655 29.123054385643655 29.123054385643655 29.123054385643655 29.123054385643655 29.123054385643655 29.123054385643655 29.123054385643655 29.15381798205457 29.123054385643655 29.123054385643655 29.123054385643655 29.123054385643655 29.123054385643655 29.123054385643655 29.123054385643655 29.123054385643655 29.123054385643655 29.123054385643655 29.123054385643655 29.123054385643655 29.123054385643655 29.123054385643655 29.123054385643655 29.123054385643655 29.123054385643655 29.123054385643655 29.123054385643655 29.123054385643655 29.123054385643655 29.123054385643655 29.15381798205457 29.123054385643655 29.123054385643655 29.123054385643655 29.15381798205457 29.123054385643655 29.15381798205457 29.15381798205457 29.15381798205457 29.123054385643655 29.15381798205457 29.15381798205457 29.15381798205457 29.123054385643655 29.15381798205457 29.15381798205457 29.15381798205457 29.15381798205457 29.15381798205457 29.15381798205457 29.15381798205457 29.123054385643655 29.15381798205457 29.15381798205457 29.15381798205457 29.15381798205457 29.15381798205457 29.15381798205457 29.15381798205457 29.15381798205457 29.15381798205457 29.15381798205457 29.15381798205457 29.15381798205457 29.15381798205457 29.15381798205457 29.15381798205457 29.15381798205457 29.15381798205457 29.15381798205457 29.15381798205457 29.15381798205457 29.15381798205457 29.15381798205457 29.15381798205457 29.184581578465483 29.215345174876397 29.24610877128731 29.276872367698225 29.30763596410914 29.369163156930966 29.430690349752794 29.49221754257462 29.553744735396446 29.615271928218274 29.6767991210401 29.799853506683757 29.922907892327412 30.015198681560154 30.13825306720381 30.261307452847465 30.322834645669293 30.415125434902034 30.47665262772386 30.538179820545686 30.599707013367514 30.66123420618934 30.753524995422083 30.845815784654825 30.938106573887566 30.999633766709394 31.06116095953122 31.153451748763963 31.27650613440762 31.399560520051274 31.522614905694926 31.614905694927668 31.676432887749495 31.768723676982237 31.86101446621498 31.95330525544772 32.1378868339132 32.19941402673503 32.260941219556855 32.29170481596777 32.3532320087896 32.38399560520051 32.44552279802234 32.660867972898735 32.87621314777513 33.060794726240616 33.33766709393884 33.58377586522615 33.76835744369163 34.04522981138985 34.229811389855335 34.50668375755356 34.783556125251785 34.99890130012818 35.27577366782641 35.706464017579194 35.82951840322285 36.106390770921074 36.29097234938656 36.598608313495696 36.87548068119392 37.21388024171397 37.459989013001284 37.70609778428859 37.921442959164985 38.167551730452296 38.475187694561434 38.78282365867057 39.121223219190625 39.33656839406702 39.674967954587075 39.921076725874386 40.25947628639443 40.6286394433254 40.87474821461271 41.243911371543675 41.58231093206372 41.82841970335103 42.197582860282 42.47445522798022 42.99743636696576 43.274308734663975 43.5511811023622 43.95110785570408 44.41256180186779 44.56637978392236 45.089360922907886 45.396996887017025 45.79692364035891 46.104559604468044 46.41219556857718 47.02746749679545 47.45815784654825 47.765793810657385 48.22724775682109 48.6887017029848 49.05786485991577 49.55008240249039 49.85771836659953 50.31917231276323 50.74986266251602 51.02673503021424 51.488188976377955 51.73429774766526 52.19575169382897 52.59567844717085 53.057132393334555 53.364768357443694 53.79545870719648 54.072331074894706 54.379967039003844 54.65683940670207 54.9644753708112 55.179820545687605 55.51822010620765 55.82585607031679 56.195019227247755 56.37960080571324 56.718000366233284 56.994872733931516 57.240981505218826 57.57938106573887 57.79472624061527 58.1023622047244 58.34847097601172 58.71763413294268 59.17908807910639 59.425196850393704 59.732832814502835 59.94817798937923 60.16352316425563 60.47115912836477 60.778795092473906 61.11719465299395 61.39406702069218 61.64017579197949 61.947811756088626 62.255447720197765 62.50155649148507 62.80919245559421 63.055301226881525 63.424464383812484 63.824391137154365 64.16279069767441 64.65500824024903 65.02417139718 65.27028016846731 65.51638893975462 65.73173411463102 66.03937007874015 66.31624244643838 66.5931148141366 66.80845998901299 66.93151437465664 66.99304156747849 67.02380516388939 67.05456876030031 67.05456876030031 67.05456876030031 67.05456876030031 67.05456876030031 67.05456876030031 67.05456876030031 67.05456876030031 67.02380516388939 67.02380516388939 67.02380516388939 67.02380516388939 67.02380516388939 66.99304156747849 66.99304156747849 66.99304156747849 66.99304156747849 66.96227797106756 66.96227797106756 66.96227797106756 66.93151437465664 66.90075077824574 66.83922358542392 66.83922358542392 66.80845998901299 66.80845998901299 66.80845998901299 66.80845998901299 66.80845998901299 66.80845998901299 66.77769639260208 66.77769639260208 66.74693279619117 66.74693279619117 66.74693279619117 66.74693279619117 66.74693279619117 66.74693279619117 66.74693279619117 66.74693279619117 66.74693279619117 66.74693279619117 66.74693279619117 66.74693279619117 66.74693279619117 66.74693279619117 66.74693279619117 66.74693279619117 66.74693279619117 66.74693279619117 66.74693279619117 66.74693279619117 66.74693279619117 66.74693279619117 66.71616919978025 66.71616919978025 66.71616919978025 66.68540560336935 66.68540560336935 66.65464200695843 66.62387841054752 66.5931148141366 66.5931148141366 66.5931148141366 66.56235121772569 66.56235121772569 66.53158762131477 66.50082402490386 66.47006042849296 66.43929683208202 66.40853323567111 66.37776963926021 66.37776963926021 66.37776963926021 66.37776963926021 66.3470060428493 66.37776963926021 66.3470060428493 66.37776963926021 66.3470060428493 66.37776963926021 66.37776963926021 66.3470060428493 66.3470060428493 66.3470060428493 66.3470060428493 66.3470060428493 66.31624244643838 66.28547885002746 66.25471525361655 66.22395165720565 66.19318806079472 66.1624244643838 66.10089727156199 66.03937007874015 66.00860648232924 65.94707928950741 65.88555209668559 65.88555209668559 65.85478850027468 65.82402490386376 65.82402490386376 65.82402490386376 65.82402490386376 65.82402490386376 65.82402490386376 65.82402490386376 65.82402490386376 65.82402490386376 65.82402490386376 65.82402490386376 65.82402490386376 65.82402490386376 65.82402490386376 65.82402490386376 65.82402490386376 65.82402490386376 65.82402490386376 65.82402490386376 65.82402490386376 65.79326130745284 65.73173411463102 65.7009705182201 65.63944332539828 65.57791613257645 65.51638893975462 65.45486174693279 65.39333455411096 65.36257095770006 65.30104376487822 65.27028016846731 65.27028016846731 65.2395165720564 65.2395165720564 65.2395165720564 65.2395165720564 65.2395165720564 65.2395165720564 65.2395165720564 65.2395165720564 65.2395165720564 65.2395165720564 65.2395165720564 65.2395165720564 65.2395165720564 65.2395165720564 65.2395165720564 65.2395165720564 65.2395165720564 65.2395165720564 65.2395165720564 65.2395165720564 65.2395165720564 65.2395165720564 65.20875297564548 65.20875297564548 65.17798937923456 65.14722578282365 65.11646218641275 65.11646218641275 65.08569859000184 65.08569859000184 65.0549349935909 65.08569859000184 65.08569859000184 65.0549349935909 65.0549349935909 65.0549349935909 65.0549349935909 65.02417139718 64.99340780076909 64.96264420435817 64.93188060794725 64.90111701153634 64.87035341512544 64.83958981871451 64.83958981871451 64.80882622230361 64.80882622230361 64.80882622230361 64.80882622230361 64.80882622230361 64.80882622230361 64.80882622230361 64.80882622230361 64.80882622230361 64.80882622230361 64.77806262589269 64.77806262589269 64.77806262589269 64.77806262589269 64.77806262589269 64.77806262589269 64.77806262589269 64.77806262589269 64.77806262589269 64.77806262589269 64.71653543307087 64.68577183665994 64.65500824024903 64.59348104742722 64.53195385460538 64.50119025819447 64.43966306537264 64.40889946896172 64.37813587255081 64.34737227613991 64.34737227613991 64.34737227613991 64.34737227613991 64.31660867972897 64.34737227613991 64.31660867972897 64.31660867972897 64.31660867972897 64.31660867972897 64.31660867972897 64.31660867972897 64.34737227613991 64.34737227613991 64.31660867972897 64.31660867972897 64.31660867972897 64.31660867972897 64.31660867972897 64.31660867972897 64.31660867972897 64.31660867972897 64.31660867972897 64.31660867972897 64.31660867972897 64.31660867972897 64.31660867972897 64.25508148690716 64.25508148690716 64.25508148690716 64.22431789049625 64.19355429408533 64.19355429408533 64.19355429408533 64.16279069767441 64.1320271012635 64.1320271012635 64.1012635048526 64.07049990844168 64.07049990844168 64.03973631203075 64.03973631203075 64.00897271561985 63.978209119208934 63.978209119208934 63.94744552279802 63.94744552279802 63.94744552279802 63.916681926387106 63.88591832997619 63.88591832997619 63.88591832997619 63.88591832997619 63.88591832997619 63.88591832997619 63.88591832997619 63.85515473356528 63.85515473356528 63.85515473356528 63.85515473356528 63.85515473356528 63.85515473356528 63.85515473356528 63.85515473356528 63.85515473356528 63.85515473356528 63.85515473356528 63.824391137154365 63.79362754074345 63.76286394433254 63.73210034792162 63.70133675151071 63.670573155099795 63.670573155099795 63.63980955868888 63.60904596227797 63.578282365867054 63.54751876945614 63.516755173045226 63.48599157663431 63.4552279802234 63.4552279802234 63.424464383812484 63.424464383812484 63.424464383812484 63.39370078740157 63.39370078740157 63.36293719099066 63.33217359457974 63.30140999816883 63.30140999816883 63.27064640175792 63.239882805347 63.239882805347 63.239882805347 63.17835561252517 63.14759201611426 63.11682841970335 63.08606482329243 63.055301226881525 62.99377403405969 62.96301043764878 62.93224684123786 62.901483244826956 62.870719648416035 62.83995605200513 62.80919245559421 62.80919245559421 62.74766526277239 62.74766526277239 62.74766526277239 62.716901666361466 62.68613806995056 62.65537447353964 62.62461087712873 62.59384728071782 62.5630836843069 62.5630836843069 62.50155649148507 62.409265702252334 62.347738509430506 62.31697491301959 62.255447720197765 62.19392052737594 62.16315693096502 62.101629738143195 62.04010254532137 61.97857535249954 61.8862845632668 61.76323017762314 61.64017579197949 61.51712140633583 61.27101263504852 61.14795824940487 61.055667460172124 60.901849478117555 60.74803149606299 60.56344991759751 60.34810474272111 60.22505035707745 60.00970518220106 59.85588720014648 59.64054202527009 59.39443325398278 59.24061527192821 59.086797289873644 58.93297930781908 58.90221571140816 58.68687053653177 58.47152536165537 58.25618018677898 58.071598608313494 57.917780626258924 57.70243545138253 57.39479948727339 57.210217908807905 57.056399926753336 56.718000366233284 56.53341878776781 56.31807361289141 55.97967405237136 55.641274491851306 55.30287493133125 55.05676616004395 54.65683940670207 54.2876762497711 53.980040285661964 53.54934993590917 53.27247756821095 52.84178721845816 52.411096868705364 52.16498809741805 51.67277055484343 51.42666178355613 51.211316608679724 50.87291704815968 50.65757187328328 50.34993590917414 49.91924555942135 49.673136788134045 49.334737227613985 49.027101263504846 48.873283281450284 48.565647317341146 47.82732100347921 47.5812122321919 47.36586705731551 47.08899468961728 46.81212232191906 46.53524995422084 46.28914118293353 45.950741622413474 45.735396447537084 45.45852407983885 45.15088811572972 44.935542940853324 44.6586705731551 44.381798205456874 44.135689434169564 43.981871452114994 43.828053470060425 43.612708295184035 43.366599523896724 43.21278154184215 43.028199963376665 42.8743819813221 42.68980040285662 42.566746017212964 42.35140084233657 42.13605566746017 41.92071049258377 41.73612891411829 41.490020142830986 41.27467496795458 41.090093389489105 40.81322102179088 40.65940303973631 40.444057864859914 40.22871268998352 40.07489470792895 39.85954953305256 39.674967954587075 39.367331990477936 39.21351400842337 39.028932429957884 38.78282365867057 38.50595129097235 38.35213330891778 38.013733748397726 37.89067936275407 37.67533418787768 37.521516205823104 37.33693462735763 37.152353048892145 37.02929866324849 36.96777147042666 36.84471708478301 36.78318989196118 36.69089910272844 36.598608313495696 36.506317524262954 36.3832631386193 36.22944515656473 36.13715436733199 36.01409998168833 35.9218091924556 35.79875480681194 35.64493682475737 35.55264603552463 35.429591649880976 35.27577366782641 35.09119208936092 34.90661051089544 34.75279252884087 34.56821095037539 34.44515656473173 34.29133858267716 34.137520600622594 34.04522981138985 33.922175425746204 33.76835744369163 33.67606665445889 33.55301226881524 33.42995788317158 33.33766709393884 33.27613990111701 33.214612708295185 33.15308551547336 33.0300311298297 32.968503937007874 32.906976744186046 32.84544955136422 32.78392235854239 32.69163156930965 32.568577183665994 32.507049990844166 32.414759201611425 32.38399560520051 32.29170481596777 32.19941402673503 32.168650430324114 32.07635964109137 32.014832448269544 31.95330525544772 31.891778062625892 31.830250869804065 31.768723676982237 31.768723676982237 31.768723676982237 31.768723676982237 31.768723676982237 31.737960080571323 31.737960080571323 31.70719648416041 31.70719648416041 31.676432887749495 31.64566929133858 31.64566929133858 31.584142098516754 31.522614905694926 31.491851309284012 31.430324116462188 31.36879692364036 31.27650613440762 31.245742537996705 31.245742537996705 31.21497894158579 31.21497894158579 31.21497894158579 31.184215345174877 31.184215345174877 31.153451748763963 31.12268815235305 31.091924555942136 31.06116095953122 30.999633766709394 30.96887017029848 30.907342977476652 30.87657938106574 30.845815784654825 30.784288591832997 30.753524995422083 30.691997802600255 30.630470609778428 30.538179820545686 30.507416224134772 30.38436183849112 30.322834645669293 30.199780260025637 30.07672587438198 30.015198681560154 29.861380699505585 29.83061710309467 29.83061710309467 29.83061710309467 29.83061710309467 29.83061710309467 29.799853506683757 29.799853506683757 29.769089910272843 29.707562717451015 29.707562717451015 29.6767991210401 29.6767991210401 29.6767991210401 29.6767991210401 29.646035524629188 29.646035524629188 29.646035524629188 29.615271928218274 29.615271928218274 29.615271928218274 29.58450833180736 29.58450833180736 29.58450833180736 29.553744735396446 29.553744735396446 29.553744735396446 29.553744735396446 29.522981138985532 29.522981138985532 29.522981138985532 29.522981138985532 29.522981138985532 29.522981138985532 29.49221754257462 29.49221754257462 29.49221754257462 29.461453946163708 29.461453946163708 29.461453946163708 29.430690349752794 29.430690349752794 29.430690349752794 29.39992675334188 29.369163156930966 29.369163156930966 29.338399560520052 29.338399560520052 29.338399560520052 29.30763596410914 29.30763596410914 29.30763596410914 29.276872367698225 29.276872367698225 29.276872367698225 29.276872367698225 29.276872367698225 29.276872367698225 29.24610877128731 29.24610877128731 29.24610877128731 29.24610877128731 29.215345174876397 29.24610877128731 29.215345174876397 29.215345174876397 29.184581578465483 29.184581578465483 29.215345174876397 29.184581578465483 29.184581578465483 29.184581578465483 29.184581578465483 29.184581578465483 29.15381798205457 29.15381798205457 29.184581578465483 29.15381798205457 29.15381798205457 29.184581578465483 29.184581578465483 29.15381798205457 29.15381798205457 29.15381798205457 29.15381798205457 29.15381798205457 29.15381798205457 29.15381798205457 29.15381798205457 29.15381798205457 29.15381798205457 29.15381798205457 29.15381798205457 29.15381798205457 29.15381798205457 29.123054385643655 29.123054385643655 29.123054385643655 29.123054385643655 29.09229078923274 29.09229078923274 29.09229078923274 29.09229078923274 29.09229078923274 29.061527192821828 29.061527192821828 29.061527192821828 29.030763596410914 29.030763596410914 29.030763596410914 29.030763596410914 29.030763596410914 29.030763596410914 29.030763596410914 29.030763596410914 29.0 29.0 29.0 29.0 29.0 29.0 29.0 29.0 29.0 29.0 29.0 29.0 29.0 29.0 28.969236403589086 28.969236403589086 28.969236403589086 28.969236403589086 28.969236403589086 28.969236403589086 28.969236403589086 28.969236403589086 28.969236403589086 28.969236403589086 28.969236403589086 28.969236403589086 28.969236403589086 28.969236403589086 28.969236403589086 28.969236403589086 28.969236403589086 28.969236403589086 28.969236403589086 28.969236403589086 28.969236403589086 28.969236403589086 28.969236403589086 28.969236403589086 28.969236403589086 28.969236403589086 28.969236403589086 28.969236403589086 28.969236403589086 28.969236403589086 28.969236403589086 28.969236403589086 28.969236403589086 28.969236403589086 28.969236403589086 28.969236403589086 28.969236403589086 28.969236403589086 28.969236403589086 28.969236403589086 28.969236403589086 28.969236403589086 28.969236403589086 28.938472807178172 28.938472807178172 28.938472807178172 28.938472807178172 28.938472807178172 28.938472807178172 28.938472807178172 28.938472807178172 28.938472807178172 28.938472807178172 28.938472807178172 28.938472807178172 28.938472807178172 28.938472807178172 28.938472807178172 28.938472807178172 28.938472807178172 28.938472807178172 28.938472807178172 28.938472807178172 28.938472807178172 28.938472807178172 28.938472807178172 28.938472807178172 28.938472807178172 28.938472807178172 28.938472807178172 28.938472807178172 28.938472807178172 28.938472807178172 28.938472807178172 28.938472807178172 28.938472807178172 28.938472807178172 28.938472807178172 28.938472807178172 28.938472807178172 28.938472807178172 28.938472807178172 28.938472807178172 28.938472807178172 28.938472807178172 28.938472807178172 28.938472807178172 28.938472807178172 28.938472807178172 28.938472807178172 28.938472807178172 28.938472807178172 28.938472807178172 28.938472807178172 28.938472807178172 28.938472807178172 28.938472807178172 28.938472807178172 28.938472807178172 28.938472807178172 28.938472807178172 28.938472807178172 28.938472807178172 28.938472807178172 28.938472807178172 28.938472807178172 28.938472807178172 28.938472807178172 28.938472807178172 28.938472807178172 28.938472807178172 28.938472807178172 28.938472807178172 28.938472807178172 28.938472807178172 28.938472807178172 28.938472807178172 28.938472807178172 28.938472807178172 28.938472807178172 28.938472807178172 28.938472807178172 28.938472807178172 28.938472807178172 28.938472807178172 28.938472807178172 28.938472807178172 28.938472807178172 28.938472807178172 28.938472807178172 28.938472807178172 28.938472807178172 28.938472807178172 28.938472807178172 28.938472807178172 28.938472807178172 28.90770921076726 28.938472807178172 28.938472807178172 28.938472807178172 28.938472807178172 28.938472807178172 28.938472807178172 28.938472807178172 28.938472807178172 28.938472807178172 28.938472807178172 28.938472807178172 28.938472807178172 28.938472807178172 28.938472807178172 28.938472807178172 28.938472807178172 28.938472807178172 28.938472807178172 28.938472807178172 28.938472807178172 28.938472807178172 28.938472807178172 28.938472807178172 28.938472807178172 28.938472807178172 28.938472807178172 28.938472807178172 28.938472807178172 28.938472807178172 28.938472807178172 28.938472807178172 28.938472807178172 28.938472807178172 28.938472807178172 28.938472807178172 28.938472807178172 28.938472807178172 28.938472807178172 28.938472807178172 28.938472807178172 28.938472807178172 28.938472807178172 28.938472807178172 28.938472807178172 28.938472807178172 28.938472807178172 28.938472807178172 28.90770921076726 28.938472807178172 28.90770921076726 28.90770921076726 28.90770921076726 28.90770921076726 28.90770921076726 28.90770921076726 28.90770921076726 28.90770921076726 28.90770921076726 28.90770921076726 28.90770921076726 28.90770921076726 28.90770921076726 28.90770921076726 28.90770921076726 28.90770921076726 28.90770921076726 28.90770921076726 28.90770921076726 28.90770921076726 28.90770921076726 28.90770921076726 28.90770921076726 28.90770921076726 28.90770921076726 28.90770921076726 28.876945614356345 28.90770921076726 28.90770921076726 28.876945614356345 28.90770921076726 28.90770921076726 28.90770921076726 28.90770921076726 28.876945614356345 28.90770921076726 28.876945614356345 28.90770921076726 28.90770921076726 28.876945614356345 28.876945614356345 28.90770921076726 28.90770921076726 28.876945614356345 28.90770921076726 28.90770921076726 28.876945614356345 28.876945614356345 28.876945614356345 28.90770921076726 28.90770921076726 28.876945614356345 28.90770921076726 28.876945614356345 28.876945614356345 28.876945614356345 28.90770921076726 28.876945614356345 28.876945614356345 28.876945614356345 28.876945614356345 28.90770921076726 28.876945614356345 28.876945614356345 28.876945614356345 28.876945614356345 28.876945614356345 28.90770921076726 28.90770921076726 28.876945614356345 28.876945614356345 28.90770921076726 28.876945614356345 28.876945614356345 28.876945614356345 28.876945614356345 28.876945614356345 28.876945614356345 28.876945614356345 28.876945614356345 28.876945614356345 28.876945614356345 28.876945614356345 28.876945614356345 28.876945614356345 28.876945614356345 28.876945614356345 28.90770921076726 28.876945614356345 28.876945614356345 28.876945614356345 28.876945614356345 28.876945614356345 28.876945614356345 28.876945614356345 28.876945614356345 28.876945614356345 28.876945614356345 28.876945614356345 28.876945614356345 28.876945614356345 28.876945614356345 28.876945614356345 28.876945614356345 28.876945614356345 28.876945614356345 28.876945614356345 28.876945614356345 28.90770921076726 28.876945614356345 28.876945614356345 28.876945614356345 28.876945614356345 28.90770921076726 28.876945614356345 28.876945614356345 28.876945614356345 28.876945614356345 28.876945614356345 28.90770921076726 28.876945614356345 28.876945614356345 28.876945614356345 28.876945614356345 28.876945614356345 28.90770921076726 28.876945614356345 28.876945614356345 28.876945614356345 28.876945614356345 28.876945614356345 28.876945614356345 28.876945614356345 28.876945614356345 28.876945614356345 28.876945614356345 28.90770921076726 28.876945614356345 28.876945614356345 28.876945614356345 28.876945614356345 28.876945614356345 28.876945614356345 28.876945614356345 28.876945614356345 28.876945614356345 28.876945614356345 28.876945614356345 28.876945614356345 28.876945614356345 28.876945614356345 28.876945614356345 28.876945614356345 28.876945614356345 28.876945614356345 28.876945614356345 28.876945614356345 28.876945614356345 28.876945614356345 28.876945614356345 28.876945614356345 28.876945614356345 28.876945614356345 28.876945614356345 28.876945614356345 28.876945614356345 28.876945614356345 28.876945614356345 28.876945614356345 28.876945614356345 28.876945614356345 28.876945614356345 28.876945614356345 28.876945614356345 28.876945614356345 28.876945614356345 28.876945614356345 28.876945614356345 28.876945614356345 28.876945614356345 28.876945614356345 28.876945614356345 28.876945614356345 28.876945614356345 28.876945614356345 28.876945614356345 28.876945614356345 28.876945614356345 28.876945614356345 28.876945614356345 28.90770921076726 28.876945614356345 28.876945614356345 28.876945614356345 28.876945614356345 28.876945614356345 28.876945614356345 28.876945614356345 28.876945614356345 28.876945614356345 28.876945614356345 28.876945614356345 28.876945614356345 28.876945614356345 28.876945614356345 28.876945614356345 28.876945614356345 28.876945614356345 28.876945614356345 28.876945614356345 28.876945614356345 28.876945614356345 28.876945614356345 28.876945614356345 28.876945614356345 28.876945614356345 28.876945614356345 28.876945614356345 28.876945614356345 28.876945614356345 28.876945614356345 28.876945614356345 28.876945614356345 28.876945614356345 28.876945614356345 28.876945614356345 28.876945614356345 28.876945614356345 28.876945614356345 28.876945614356345 28.876945614356345 28.876945614356345 28.876945614356345 28.876945614356345 28.876945614356345 28.876945614356345 28.876945614356345 28.876945614356345 28.876945614356345 28.876945614356345 28.90770921076726 28.876945614356345 28.876945614356345 28.876945614356345 28.876945614356345 28.876945614356345 28.876945614356345 28.876945614356345 28.876945614356345 28.876945614356345 28.876945614356345 28.876945614356345 28.876945614356345 28.876945614356345 28.876945614356345 28.876945614356345 28.90770921076726 28.876945614356345 28.876945614356345 28.876945614356345 28.90770921076726 28.876945614356345 28.90770921076726 28.876945614356345 28.90770921076726 28.876945614356345 28.876945614356345 28.876945614356345 28.876945614356345 28.876945614356345 28.876945614356345 28.876945614356345 28.876945614356345 28.876945614356345 28.876945614356345 28.876945614356345 28.876945614356345 28.876945614356345 28.876945614356345 28.876945614356345 28.876945614356345 28.876945614356345 28.876945614356345 28.90770921076726 28.876945614356345 28.876945614356345 28.90770921076726 28.876945614356345 28.876945614356345 28.876945614356345 28.90770921076726 28.876945614356345 28.876945614356345 28.876945614356345 28.90770921076726 28.876945614356345 28.876945614356345 28.876945614356345 28.876945614356345 28.876945614356345 28.876945614356345 28.876945614356345 28.876945614356345 28.876945614356345 28.876945614356345 28.876945614356345 28.876945614356345 28.876945614356345 28.876945614356345 28.876945614356345 28.876945614356345 28.876945614356345 28.876945614356345 28.876945614356345 28.876945614356345 28.876945614356345 28.876945614356345 28.876945614356345 28.876945614356345 28.876945614356345 28.876945614356345 28.876945614356345 28.876945614356345 28.876945614356345 28.876945614356345 28.876945614356345 28.876945614356345 28.876945614356345 28.876945614356345 28.876945614356345 28.876945614356345 28.876945614356345 28.876945614356345 28.876945614356345 28.876945614356345 28.876945614356345 28.876945614356345 28.876945614356345 28.876945614356345 28.876945614356345 28.876945614356345 28.876945614356345 28.876945614356345 28.876945614356345 28.876945614356345 28.876945614356345 28.876945614356345 28.90770921076726 28.876945614356345 28.876945614356345 28.876945614356345 28.876945614356345 28.876945614356345 28.876945614356345 28.876945614356345 28.876945614356345 28.876945614356345 28.876945614356345 28.876945614356345 28.876945614356345 28.876945614356345 28.876945614356345 28.876945614356345 28.876945614356345 28.876945614356345 28.876945614356345 28.876945614356345 28.876945614356345 28.876945614356345 28.876945614356345 28.876945614356345 28.876945614356345 28.876945614356345 28.876945614356345 28.876945614356345 28.876945614356345 28.876945614356345 28.876945614356345 28.876945614356345 28.876945614356345 28.876945614356345 28.876945614356345 28.876945614356345 28.876945614356345 28.876945614356345 28.876945614356345 28.876945614356345 28.876945614356345 28.876945614356345 28.876945614356345 28.876945614356345 28.876945614356345 28.876945614356345 28.876945614356345 28.876945614356345 28.876945614356345 28.876945614356345 28.876945614356345 28.876945614356345 28.876945614356345 28.876945614356345 28.876945614356345 28.876945614356345 28.876945614356345 28.90770921076726 28.876945614356345 28.876945614356345 28.876945614356345 28.876945614356345 28.876945614356345 28.876945614356345 28.876945614356345 28.876945614356345 28.876945614356345 28.876945614356345 28.876945614356345 28.876945614356345 28.90770921076726 28.876945614356345 28.876945614356345 28.876945614356345 28.876945614356345 28.876945614356345 28.876945614356345 28.90770921076726 28.876945614356345 28.876945614356345 28.876945614356345 28.876945614356345 28.876945614356345 28.90770921076726 28.876945614356345 28.90770921076726 28.876945614356345 28.876945614356345 28.876945614356345 28.876945614356345 28.876945614356345 28.876945614356345 28.876945614356345 28.876945614356345 28.876945614356345 28.876945614356345 28.876945614356345 28.876945614356345 28.876945614356345 28.876945614356345 28.876945614356345 28.876945614356345 28.876945614356345 28.876945614356345 28.876945614356345 28.876945614356345 28.876945614356345 28.876945614356345 28.876945614356345 28.876945614356345 28.90770921076726 28.90770921076726 28.90770921076726 28.876945614356345 28.876945614356345 28.876945614356345 28.90770921076726 28.876945614356345 28.876945614356345 28.876945614356345 28.90770921076726 28.876945614356345 28.876945614356345 28.876945614356345 28.90770921076726 28.90770921076726 28.876945614356345 28.90770921076726 28.90770921076726 28.90770921076726 28.90770921076726 28.90770921076726 28.90770921076726 28.90770921076726 28.90770921076726 28.90770921076726 28.90770921076726 28.90770921076726 28.90770921076726 28.90770921076726 28.90770921076726 28.90770921076726 28.90770921076726 28.90770921076726 28.90770921076726 28.90770921076726 28.90770921076726 28.90770921076726 28.90770921076726 28.90770921076726 28.938472807178172 29.0 29.061527192821828 29.15381798205457 29.215345174876397 29.338399560520052 29.461453946163708 29.58450833180736 29.73832631386193 29.922907892327412 30.045962277971068 30.13825306720381 30.199780260025637 30.29207104925838 30.38436183849112 30.47665262772386 30.599707013367514 30.66123420618934 30.753524995422083 30.87657938106574 30.907342977476652 30.999633766709394 31.06116095953122 31.12268815235305 31.21497894158579 31.27650613440762 31.36879692364036 31.461087712873102 31.522614905694926 31.614905694927668 31.64566929133858 31.737960080571323 31.768723676982237 31.830250869804065 31.891778062625892 31.922541659036806 32.014832448269544 32.23017762314594 32.414759201611425 32.507049990844166 32.78392235854239 32.99926753341879 33.2453763047061 33.614539461637065 33.79912104010255 34.10675700421168 34.35286577549899 34.66050173960813 34.87584691448453 35.21424647500458 35.61417322834646 35.98333638527742 36.22944515656473 36.598608313495696 36.96777147042666 37.306171030946714 37.521516205823104 37.73686138069951 38.013733748397726 38.35213330891778 38.567478483794176 39.028932429957884 39.24427760483428 39.582677165354326 39.79802234023072 40.044131111518034 40.35176707562717 40.78245742537997 40.997802600256364 41.3054385643655 41.58231093206372 41.88994689617286 42.13605566746017 42.412928035158394 42.905145577733016 43.274308734663975 43.5511811023622 43.92034425929317 44.25874381981322 44.59714338033327 45.02783373008606 45.27394250137337 45.67386925471526 45.98150521882439 46.350668375755355 46.87364951474089 47.1197582860282 47.519685039370074 47.7965574070683 48.011902581944696 48.411829335286576 48.75022889580663 49.21168284197033 49.61160959531221 49.85771836659953 50.19611792711957 50.4729902948178 50.78062625892693 51.11902581944699 51.33437099432338 51.61124336202161 51.88811572971983 52.16498809741805 52.411096868705364 52.903314411279986 53.14942318256729 53.45705914667643 53.79545870719648 54.16462186412745 54.53378502105841 54.81065738875664 55.30287493133125 55.67203808826222 55.97967405237136 56.28731001648049 56.656473173411456 57.056399926753336 57.456326680095216 57.70243545138253 58.010071415491666 58.25618018677898 58.47152536165537 58.68687053653177 58.84068851858633 59.117560886284565 59.39443325398278 59.60977842885918 59.85588720014648 60.132759567844715 60.3173411463102 60.62497711041934 60.84032228529573 61.240249038637614 61.51712140633583 61.73246658121223 61.947811756088626 62.28621131660868 62.44002929866325 62.62461087712873 62.83995605200513 63.024537630470604 63.20911920893609 63.30140999816883 63.4552279802234 63.578282365867054 63.76286394433254 64.00897271561985 64.16279069767441 64.37813587255081 64.59348104742722 64.74729902948178 64.96264420435817 65.08569859000184 65.17798937923456 65.36257095770006 65.42409815052187 65.63944332539828 65.76249771104193 65.88555209668559 65.97784288591834 66.03937007874015 66.1624244643838 66.25471525361655 66.37776963926021 66.50082402490386 66.62387841054752 66.71616919978025 66.80845998901299 66.83922358542392 66.93151437465664 66.93151437465664 66.96227797106756 66.99304156747849 67.02380516388939 67.02380516388939 67.02380516388939 67.05456876030031 67.05456876030031 67.02380516388939 67.05456876030031 67.05456876030031 67.05456876030031 67.05456876030031 67.05456876030031 67.02380516388939 67.05456876030031 67.05456876030031 67.02380516388939 67.02380516388939 67.02380516388939 67.02380516388939 67.02380516388939 67.02380516388939 67.02380516388939 67.02380516388939 67.02380516388939 67.02380516388939 66.99304156747849 66.99304156747849 66.96227797106756 66.96227797106756 66.93151437465664 66.93151437465664 66.93151437465664 66.90075077824574 66.86998718183483 66.86998718183483 66.83922358542392 66.83922358542392 66.83922358542392 66.83922358542392 66.80845998901299 66.83922358542392 66.83922358542392 66.80845998901299 66.80845998901299 66.80845998901299 66.80845998901299 66.77769639260208 66.77769639260208 66.71616919978025 66.68540560336935 66.62387841054752 66.56235121772569 66.53158762131477 66.53158762131477 66.53158762131477 66.53158762131477 66.53158762131477 66.53158762131477 66.53158762131477 66.50082402490386 66.50082402490386 66.47006042849296 66.43929683208202 66.40853323567111 66.37776963926021 66.3470060428493 66.28547885002746 66.22395165720565 66.1624244643838 66.1316608679729 66.07013367515107 66.03937007874015 65.97784288591834 65.94707928950741 65.9163156930965 65.85478850027468 65.85478850027468 65.85478850027468 65.82402490386376 65.82402490386376 65.79326130745284 65.76249771104193 65.7009705182201 65.67020692180918 65.63944332539828 65.60867972898737 65.60867972898737 65.60867972898737 65.60867972898737 65.57791613257645 65.54715253616553 65.48562534334371 65.48562534334371 65.39333455411096 65.39333455411096 65.33180736128914 65.30104376487822 65.27028016846731 65.20875297564548 65.17798937923456 65.14722578282365 65.11646218641275 65.11646218641275 65.08569859000184 65.08569859000184 65.0549349935909 65.0549349935909 65.0549349935909 65.0549349935909 65.0549349935909 65.0549349935909 65.0549349935909 65.0549349935909 65.0549349935909 65.0549349935909 65.0549349935909 65.0549349935909 65.0549349935909 65.0549349935909 64.99340780076909 64.96264420435817 64.93188060794725 64.87035341512544 64.80882622230361 64.74729902948178 64.68577183665994 64.65500824024903 64.59348104742722 64.5627174510163 64.53195385460538 64.50119025819447 64.47042666178355 64.43966306537264 64.43966306537264 64.43966306537264 64.40889946896172 64.40889946896172 64.43966306537264 64.43966306537264 64.43966306537264 64.43966306537264 64.43966306537264 64.43966306537264 64.43966306537264 64.47042666178355 64.47042666178355 64.47042666178355 64.50119025819447 64.53195385460538 64.53195385460538 64.53195385460538 64.5627174510163 64.53195385460538 64.53195385460538 64.5627174510163 64.5627174510163 64.53195385460538 64.5627174510163 64.5627174510163 64.5627174510163 64.5627174510163 64.5627174510163 64.5627174510163 64.53195385460538 64.5627174510163 64.5627174510163 64.5627174510163 64.5627174510163 64.53195385460538 64.53195385460538 64.5627174510163 64.5627174510163 64.5627174510163 64.53195385460538 64.5627174510163 64.5627174510163 64.53195385460538 64.5627174510163 64.5627174510163 64.5627174510163 64.5627174510163 64.5627174510163 64.5627174510163 64.5627174510163 64.5627174510163 64.5627174510163 64.5627174510163 64.5627174510163 64.59348104742722 64.59348104742722 64.59348104742722 64.62424464383813 64.62424464383813 64.62424464383813 64.62424464383813 64.65500824024903 64.65500824024903 64.65500824024903 64.68577183665994 64.65500824024903 64.65500824024903 64.65500824024903 64.65500824024903 64.65500824024903 64.68577183665994 64.65500824024903 64.68577183665994 64.68577183665994 64.65500824024903 64.65500824024903 64.65500824024903 64.68577183665994 64.68577183665994 64.68577183665994 64.65500824024903 64.65500824024903 64.68577183665994 64.68577183665994 64.68577183665994 64.65500824024903 64.68577183665994 64.65500824024903 64.65500824024903 64.68577183665994 64.68577183665994 64.65500824024903 64.65500824024903 64.65500824024903 64.65500824024903 64.65500824024903 64.65500824024903 64.65500824024903 64.65500824024903 64.65500824024903 64.65500824024903 64.65500824024903 64.65500824024903 64.65500824024903 64.65500824024903 64.65500824024903 64.65500824024903 64.65500824024903 64.65500824024903 64.65500824024903 64.65500824024903 64.65500824024903 64.65500824024903 64.65500824024903 64.65500824024903 64.65500824024903 64.65500824024903 64.65500824024903 64.65500824024903 64.62424464383813 64.62424464383813 64.62424464383813 64.62424464383813 64.62424464383813 64.65500824024903 64.62424464383813 64.65500824024903 64.62424464383813 64.62424464383813 64.62424464383813 64.62424464383813 64.62424464383813 64.62424464383813 64.62424464383813 64.62424464383813 64.59348104742722 64.59348104742722 64.5627174510163 64.5627174510163 64.53195385460538 64.50119025819447 64.50119025819447 64.47042666178355 64.47042666178355 64.43966306537264 64.43966306537264 64.40889946896172 64.40889946896172 64.40889946896172 64.40889946896172 64.40889946896172 64.40889946896172 64.40889946896172 64.40889946896172 64.40889946896172 64.40889946896172 64.40889946896172 64.40889946896172 64.37813587255081 64.37813587255081 64.37813587255081 64.37813587255081 64.34737227613991 64.34737227613991 64.34737227613991 64.31660867972897 64.31660867972897 64.28584508331807 64.25508148690716 64.16279069767441 64.1320271012635 64.07049990844168 64.00897271561985 63.94744552279802 63.88591832997619 63.824391137154365 63.73210034792162 63.670573155099795 63.60904596227797 63.48599157663431 63.36293719099066 63.30140999816883 63.14759201611426 63.024537630470604 62.901483244826956 62.901483244826956 62.74766526277239 62.53232008789599 62.16315693096502 62.07086614173228 61.82475737044497 61.64017579197949 61.39406702069218 61.14795824940487 60.932613074528476 60.655740706830244 60.40963193554294 60.22505035707745 59.886650796557404 59.67130562168101 59.39443325398278 59.117560886284565 58.90221571140816 58.59457974729903 58.40999816883354 58.1023622047244 57.763962644204355 57.54861746932796 57.240981505218826 56.90258194469877 56.68723676982238 56.37960080571324 56.16425563083684 55.73356528108405 55.51822010620765 55.27211133492034 54.9644753708112 54.5030214246475 54.379967039003844 53.980040285661964 53.73393151437466 53.48782274308734 53.303241164621866 52.99560520051273 52.718732832814496 52.44186046511628 52.22651529023988 51.91887932613075 51.73429774766526 51.3651345907343 51.08826222303607 50.87291704815968 50.50375389122871 50.19611792711957 49.980772752243176 49.51931880607947 49.30397363120308 49.08862845632668 48.75022889580663 48.565647317341146 48.19648416041018 47.95037538912287 47.765793810657385 47.550448635780995 47.36586705731551 47.18128547885003 47.02746749679545 46.78135872550815 46.596777147042665 46.38143197216627 46.2276139901117 46.043032411646216 45.82768723676982 45.67386925471526 45.45852407983885 45.27394250137337 44.99707013367515 44.68943416956601 44.41256180186779 43.92034425929317 43.64347189159494 43.24354513825307 42.966672770554844 42.68980040285662 42.32063724592565 42.04376487822743 41.64383812488555 41.27467496795458 41.02856619666728 40.690166636147225 40.35176707562717 40.10565830433986 39.76725874381981 39.49038637612159 39.18275041201245 38.81358725508149 38.50595129097235 38.167551730452296 37.9522065555759 37.798388573521336 37.4907526094122 37.36769822376854 37.12158945248123 36.81395348837209 36.62937190990661 36.3832631386193 36.1679179637429 35.9218091924556 35.67570042116829 35.55264603552463 35.21424647500458 34.937374107306354 34.72202893242996 34.44515656473173 34.19904779344442 34.04522981138985 33.860648232924376 33.73759384728072 33.614539461637065 33.460721479582496 33.33766709393884 33.214612708295185 33.12232191906244 33.060794726240616 33.0300311298297 32.99926753341879 32.93774034059696 32.906976744186046 32.84544955136422 32.78392235854239 32.72239516572056 32.63010437648782 32.507049990844166 32.414759201611425 32.29170481596777 32.168650430324114 32.107123237502286 32.07635964109137 32.04559604468046 32.04559604468046 32.04559604468046 32.04559604468046 31.984068851858634 31.95330525544772 31.891778062625892 31.830250869804065 31.768723676982237 31.70719648416041 31.614905694927668 31.522614905694926 31.430324116462188 31.36879692364036 31.307269730818533 31.27650613440762 31.184215345174877 31.12268815235305 31.06116095953122 30.999633766709394 30.907342977476652 30.845815784654825 30.784288591832997 30.66123420618934 30.599707013367514 30.47665262772386 30.353598242080206 30.29207104925838 30.169016663614723 30.107489470792896 30.015198681560154 29.922907892327412 29.8921442959165 29.8921442959165 29.8921442959165 29.8921442959165 29.861380699505585 29.861380699505585 29.83061710309467 29.83061710309467 29.83061710309467 29.799853506683757 29.83061710309467 29.799853506683757 29.769089910272843 29.769089910272843 29.769089910272843 29.73832631386193 29.73832631386193 29.73832631386193 29.73832631386193 29.707562717451015 29.707562717451015 29.6767991210401 29.6767991210401 29.6767991210401 29.6767991210401 29.6767991210401 29.6767991210401 29.6767991210401 29.6767991210401 29.6767991210401 29.6767991210401 29.646035524629188 29.646035524629188 29.646035524629188 29.646035524629188 29.646035524629188 29.646035524629188 29.615271928218274 29.615271928218274 29.615271928218274 29.615271928218274 29.615271928218274 29.615271928218274 29.615271928218274 29.615271928218274 29.58450833180736 29.58450833180736 29.58450833180736 29.58450833180736 29.58450833180736 29.553744735396446 29.553744735396446 29.553744735396446 29.553744735396446 29.553744735396446 29.553744735396446 29.553744735396446 29.553744735396446 29.522981138985532 29.522981138985532 29.522981138985532 29.522981138985532 29.522981138985532 29.522981138985532 29.522981138985532 29.49221754257462 29.522981138985532 29.49221754257462 29.49221754257462 29.49221754257462 29.461453946163708 29.461453946163708 29.461453946163708 29.461453946163708 29.461453946163708 29.461453946163708 29.430690349752794 29.430690349752794 29.430690349752794 29.430690349752794 29.430690349752794 29.39992675334188 29.39992675334188 29.39992675334188 29.39992675334188 29.369163156930966 29.369163156930966 29.369163156930966 29.369163156930966 29.338399560520052 29.338399560520052 29.30763596410914 29.30763596410914 29.276872367698225 29.276872367698225 29.24610877128731 29.24610877128731 29.24610877128731 29.24610877128731 29.24610877128731 29.215345174876397 29.215345174876397 29.215345174876397 29.215345174876397 29.184581578465483 29.184581578465483 29.184581578465483 29.215345174876397 29.184581578465483 29.184581578465483 29.184581578465483 29.184581578465483 29.184581578465483 29.184581578465483 29.184581578465483 29.184581578465483 29.184581578465483 29.184581578465483 29.184581578465483 29.184581578465483 29.184581578465483 29.184581578465483 29.184581578465483 29.184581578465483 29.15381798205457 29.15381798205457 29.15381798205457 29.15381798205457 29.15381798205457 29.15381798205457 29.15381798205457 29.15381798205457 29.15381798205457 29.15381798205457 29.15381798205457 29.15381798205457 29.15381798205457 29.15381798205457 29.15381798205457 29.15381798205457 29.15381798205457 29.123054385643655 29.15381798205457 29.15381798205457 29.123054385643655 29.15381798205457 29.15381798205457 29.123054385643655 29.15381798205457 29.123054385643655 29.15381798205457 29.123054385643655 29.15381798205457 29.123054385643655 29.123054385643655 29.123054385643655 29.123054385643655 29.123054385643655 29.123054385643655 29.123054385643655 29.123054385643655 29.123054385643655 29.123054385643655 29.09229078923274 29.09229078923274 29.09229078923274 29.09229078923274 29.123054385643655 29.09229078923274 29.09229078923274 29.09229078923274 29.09229078923274 29.09229078923274 29.09229078923274 29.09229078923274 29.061527192821828 29.061527192821828 29.061527192821828 29.061527192821828 29.061527192821828 29.061527192821828 29.061527192821828 29.061527192821828 29.061527192821828 29.061527192821828 29.061527192821828 29.061527192821828 29.061527192821828 29.061527192821828 29.061527192821828 29.061527192821828 29.061527192821828 29.061527192821828 29.061527192821828 29.061527192821828 29.061527192821828 29.061527192821828 29.061527192821828 29.061527192821828 29.061527192821828 29.061527192821828 29.061527192821828 29.061527192821828 29.061527192821828 29.061527192821828 29.061527192821828 29.061527192821828 29.061527192821828 29.061527192821828 29.061527192821828 29.061527192821828 29.061527192821828 29.061527192821828 29.061527192821828 29.061527192821828 29.061527192821828 29.061527192821828 29.061527192821828 29.061527192821828 29.061527192821828 29.061527192821828 29.061527192821828 29.061527192821828 29.061527192821828 29.061527192821828 29.061527192821828 29.061527192821828 29.061527192821828 29.061527192821828 29.061527192821828 29.061527192821828 29.061527192821828 29.061527192821828 29.061527192821828 29.061527192821828 29.061527192821828 29.061527192821828 29.061527192821828 29.061527192821828 29.061527192821828 29.061527192821828 29.061527192821828 29.061527192821828 29.061527192821828 29.061527192821828 29.061527192821828 29.061527192821828 29.061527192821828 29.061527192821828 29.061527192821828 29.061527192821828 29.061527192821828 29.061527192821828 29.061527192821828 29.061527192821828 29.061527192821828 29.061527192821828 29.061527192821828 29.061527192821828 29.061527192821828 29.061527192821828 29.061527192821828 29.061527192821828 29.061527192821828 29.061527192821828 29.061527192821828 29.061527192821828 29.061527192821828 29.061527192821828 29.061527192821828 29.061527192821828 29.061527192821828 29.061527192821828 29.061527192821828 29.061527192821828 29.061527192821828 29.061527192821828 29.061527192821828 29.061527192821828 29.061527192821828 29.061527192821828 29.061527192821828 29.061527192821828 29.061527192821828 29.061527192821828 29.061527192821828 29.061527192821828 29.061527192821828 29.061527192821828 29.061527192821828 29.061527192821828 29.061527192821828 29.061527192821828 29.061527192821828 29.061527192821828 29.061527192821828 29.061527192821828 29.061527192821828 29.061527192821828 29.061527192821828 29.061527192821828 29.061527192821828 29.061527192821828 29.061527192821828 29.061527192821828 29.061527192821828 29.061527192821828 29.061527192821828 29.061527192821828 29.061527192821828 29.061527192821828 29.061527192821828 29.061527192821828 29.061527192821828 29.030763596410914 29.061527192821828 29.061527192821828 29.061527192821828 29.061527192821828 29.061527192821828 29.061527192821828 29.061527192821828 29.061527192821828 29.061527192821828 29.061527192821828 29.061527192821828 29.061527192821828 29.061527192821828 29.061527192821828 29.061527192821828 29.061527192821828 29.061527192821828 29.061527192821828 29.061527192821828 29.061527192821828 29.061527192821828 29.061527192821828 29.061527192821828 29.061527192821828 29.061527192821828 29.061527192821828 29.061527192821828 29.061527192821828 29.061527192821828 29.061527192821828 29.061527192821828 29.061527192821828 29.061527192821828 29.061527192821828 29.061527192821828 29.061527192821828 29.061527192821828 29.061527192821828 29.061527192821828 29.061527192821828 29.061527192821828 29.061527192821828 29.061527192821828 29.061527192821828 29.061527192821828 29.061527192821828 29.061527192821828 29.061527192821828 29.061527192821828 29.061527192821828 29.030763596410914 29.030763596410914 29.061527192821828 29.061527192821828 29.030763596410914 29.061527192821828 29.030763596410914 29.030763596410914 29.030763596410914 29.030763596410914 29.030763596410914 29.030763596410914 29.030763596410914 29.030763596410914 29.030763596410914 29.0 29.030763596410914 29.030763596410914 29.0 29.0 29.0 29.0 29.0 29.0 29.0 29.0 29.0 29.0 29.0 29.0 29.0 29.0 29.0 29.0 29.0 29.0 29.0 29.0 29.0 29.0 29.0 29.0 29.0 29.0 29.0 29.0 29.0 29.0 29.0 29.0 29.0 29.0 29.0 29.0 29.0 29.0 29.0 29.0 29.0 29.0 29.0 29.0 29.0 29.0 29.0 29.0 29.0 29.0 29.0 29.0 29.0 29.0 29.0 29.0 29.0 29.0 29.0 29.0 29.0 29.0 29.0 29.0 28.969236403589086 29.0 29.0 29.0 29.0 29.0 29.0 29.0 29.0 29.0 29.0 29.0 29.0 29.0 29.0 29.0 29.0 29.0 29.0 28.969236403589086 29.0 29.0 29.0 29.0 29.0 29.0 28.969236403589086 29.0 29.0 29.0 29.0 29.0 29.0 29.0 29.0 29.0 29.0 29.0 29.0 29.0 28.969236403589086 29.0 29.0 29.0 29.0 29.0 29.0 29.0 29.0 29.0 29.0 29.0 29.0 29.0 29.0 29.0 29.0 29.0 29.0 29.0 29.0 29.0 29.0 29.0 29.0 29.0 29.0 29.0 29.0 29.0 28.969236403589086 29.0 29.0 29.0 29.0 29.0 29.0 29.0 29.0 29.0 29.0 29.0 29.0 29.0 29.0 29.0 29.0 29.0 29.0 29.0 29.0 29.0 28.969236403589086 28.969236403589086 29.0 29.0 28.969236403589086 29.0 28.969236403589086 29.0 29.0 29.0 28.969236403589086 29.0 29.0 29.0 29.0 29.0 28.969236403589086 29.0 29.0 29.0 29.0 29.0 29.0 29.0 28.969236403589086 28.969236403589086 28.969236403589086 29.0 29.0 29.0 29.0 29.0 29.0 29.0 29.0 29.0 29.0 29.0 28.969236403589086 28.969236403589086 29.0 29.0 29.0 28.969236403589086 29.0 29.0 28.969236403589086 28.969236403589086 29.0 28.969236403589086 28.969236403589086 29.0 29.0 28.969236403589086 28.969236403589086 28.969236403589086 28.969236403589086 29.0 28.969236403589086 29.0 29.0 28.969236403589086 29.0 28.969236403589086 28.969236403589086 29.0 29.0 29.0 29.0 28.969236403589086 29.0 28.969236403589086 28.969236403589086 28.969236403589086 29.0 28.969236403589086 29.0 29.0 28.969236403589086 29.0 29.0 28.969236403589086 28.969236403589086 28.969236403589086 28.969236403589086 29.0 28.969236403589086 29.0 29.0 29.0 28.969236403589086 28.969236403589086 28.969236403589086 28.969236403589086 28.969236403589086 29.0 28.969236403589086 29.0 28.969236403589086 29.0 28.969236403589086 28.969236403589086 29.0 28.969236403589086 28.969236403589086 28.969236403589086 29.0 29.0 28.969236403589086 28.969236403589086 28.969236403589086 28.969236403589086 28.969236403589086 28.969236403589086 29.0 29.0 29.0 28.969236403589086 28.969236403589086 28.969236403589086 28.969236403589086 28.969236403589086 28.969236403589086 28.969236403589086 28.969236403589086 28.969236403589086 28.969236403589086 29.0 29.0 29.0 28.969236403589086 29.0 29.0 28.969236403589086 28.969236403589086 29.0 29.0 29.0 29.0 29.0 29.0 28.969236403589086 28.969236403589086 28.969236403589086 28.969236403589086 28.969236403589086 28.969236403589086 28.969236403589086 28.969236403589086 28.969236403589086 29.0 28.969236403589086 28.969236403589086 28.969236403589086 29.0 29.0 28.969236403589086 29.0 28.969236403589086 28.969236403589086 28.969236403589086 28.969236403589086 29.0 28.969236403589086 28.969236403589086 28.969236403589086 28.969236403589086 28.969236403589086 28.969236403589086 28.969236403589086 28.969236403589086 28.969236403589086 29.0 28.969236403589086 28.969236403589086 28.969236403589086 29.0 28.969236403589086 29.0 29.0 28.969236403589086 28.969236403589086 29.0 28.969236403589086 28.969236403589086 28.969236403589086 29.0 29.0 28.969236403589086 29.0 29.0 28.969236403589086 29.0 29.0 29.0 29.0 28.969236403589086 28.969236403589086 29.0 29.0 28.969236403589086 28.969236403589086 29.0 28.969236403589086 28.969236403589086 29.0 29.0 28.969236403589086 29.0 29.0 29.0 28.969236403589086 29.0 29.0 29.0 28.969236403589086 28.969236403589086 28.969236403589086 28.969236403589086 28.969236403589086 28.969236403589086 28.969236403589086 28.969236403589086 29.0 28.969236403589086 28.969236403589086 28.969236403589086 28.969236403589086 28.969236403589086 28.969236403589086 29.0 28.969236403589086 29.0 28.969236403589086 28.969236403589086 28.969236403589086 28.969236403589086 28.969236403589086 28.969236403589086 28.969236403589086 28.969236403589086 28.969236403589086 29.0 28.969236403589086 29.0 28.969236403589086 28.969236403589086 29.0 28.969236403589086 28.969236403589086 29.0 29.0 28.969236403589086 28.969236403589086 29.0 28.969236403589086 28.969236403589086 28.969236403589086 28.969236403589086 28.969236403589086 28.969236403589086 28.969236403589086 28.969236403589086 28.969236403589086 28.969236403589086 28.969236403589086 28.969236403589086 28.969236403589086 29.0 29.0 28.969236403589086 29.0 28.969236403589086 28.969236403589086 28.969236403589086 28.969236403589086 29.0 28.969236403589086 29.0 29.0 29.0 29.0 29.0 29.0 29.0 29.030763596410914 29.030763596410914 29.030763596410914 29.061527192821828 29.061527192821828 29.09229078923274 29.123054385643655 29.15381798205457 29.215345174876397 29.24610877128731 29.338399560520052 29.39992675334188 29.39992675334188 29.430690349752794 29.430690349752794 29.49221754257462 29.49221754257462 29.522981138985532 29.58450833180736 29.646035524629188 29.6767991210401 29.769089910272843 29.799853506683757 29.922907892327412 29.953671488738326 30.015198681560154 30.045962277971068 30.169016663614723 30.23054385643655 30.29207104925838 30.415125434902034 30.47665262772386 30.5689434169566 30.630470609778428 30.72276139901117 30.845815784654825 30.938106573887566 31.06116095953122 31.184215345174877 31.307269730818533 31.399560520051274 31.399560520051274 31.491851309284012 31.584142098516754 31.676432887749495 31.79948727339315 31.922541659036806 32.107123237502286 32.23017762314594 32.3532320087896 32.660867972898735 32.84544955136422 33.09155832265153 33.39919428676067 33.614539461637065 33.95293902215711 34.29133858267716 34.56821095037539 34.96813770371727 35.36806445705915 35.64493682475737 36.044863578099246 36.444790331441126 36.78318989196118 37.18311664530306 37.459989013001284 37.89067936275407 38.167551730452296 38.65976927302692 38.93664164072514 39.24427760483428 39.674967954587075 39.921076725874386 40.136421900750776 40.597875846914484 40.96703900384545 41.21314777513276 41.58231093206372 41.82841970335103 42.197582860282 42.566746017212964 42.84361838491119 43.24354513825307 43.5511811023622 43.92034425929317 44.28950741622413 44.6586705731551 44.90477934444241 45.27394250137337 45.58157846548251 45.98150521882439 46.28914118293353 46.658304339864486 47.15052188243911 47.45815784654825 47.85808459989013 48.25801135323201 48.565647317341146 49.027101263504846 49.365500824024906 49.85771836659953 50.31917231276323 50.62680827687237 51.02673503021424 51.51895257278886 51.73429774766526 52.16498809741805 52.288042483061716 52.68796923640359 52.99560520051273 53.33400476103277 53.64164072514191 53.980040285661964 54.16462186412745 54.41073063541476 54.626075810291155 54.933711774400294 55.36440212415309 55.61051089544039 55.88738326313862 56.195019227247755 56.41036440212415 56.62570957700055 56.90258194469877 57.179454312397 57.456326680095216 57.67167185497162 57.94854422266984 58.13312580113532 58.37923457242263 58.65610694012086 58.809924922175426 59.025270097051816 59.24061527192821 59.363669657571876 59.54825123603735 59.76359641091375 59.978941585790146 60.1019959714338 60.25581395348837 60.47115912836477 60.686504303241165 60.932613074528476 61.14795824940487 61.33253982787035 61.609412195568574 61.91704815967771 62.13239333455411 62.44002929866325 62.74766526277239 62.96301043764878 63.27064640175792 63.48599157663431 63.79362754074345 64.1012635048526 64.31660867972897 64.59348104742722 64.87035341512544 65.08569859000184 65.36257095770006 65.54715253616553 65.88555209668559 66.03937007874015 66.19318806079472 66.47006042849296 66.65464200695843 66.77769639260208 66.99304156747849 67.14685954953305 67.42373191723127 67.73136788134042 67.94671305621681 68.25434902032595 68.50045779161326 68.65427577366782 68.8388573521333 68.96191173777697 69.08496612342061 69.20802050906427 69.300311298297 69.39260208752975 69.45412928035158 69.4848928767625 69.4848928767625 69.4848928767625 69.51565647317341 69.4848928767625 69.4848928767625 69.54642006958431 69.60794726240616 69.63871085881706 69.63871085881706 69.63871085881706 69.63871085881706 69.63871085881706 69.63871085881706 69.63871085881706 69.63871085881706 69.63871085881706 69.63871085881706 69.63871085881706 69.63871085881706 69.63871085881706 69.63871085881706 69.63871085881706 69.63871085881706 69.63871085881706 69.63871085881706 69.63871085881706 69.63871085881706 69.66947445522797 69.63871085881706 69.63871085881706 69.63871085881706 69.66947445522797 69.63871085881706 69.66947445522797 69.63871085881706 69.66947445522797 69.66947445522797 69.63871085881706 69.63871085881706 69.66947445522797 69.63871085881706 69.63871085881706 69.63871085881706 69.63871085881706 69.63871085881706 69.63871085881706 69.63871085881706 69.63871085881706 69.63871085881706 69.63871085881706 69.63871085881706 69.63871085881706 69.63871085881706 69.63871085881706 69.63871085881706 69.63871085881706 69.63871085881706 69.63871085881706 69.63871085881706 69.60794726240616 69.60794726240616 69.60794726240616 69.60794726240616 69.60794726240616 69.60794726240616 69.60794726240616 69.60794726240616 69.60794726240616 69.57718366599524 69.57718366599524 69.60794726240616 69.60794726240616 69.57718366599524 69.57718366599524 69.57718366599524 69.54642006958431 69.54642006958431 69.51565647317341 69.51565647317341 69.51565647317341 69.51565647317341 69.4848928767625 69.4848928767625 69.45412928035158 69.45412928035158 69.42336568394066 69.42336568394066 69.42336568394066 69.42336568394066 69.42336568394066 69.39260208752975 69.42336568394066 69.39260208752975 69.39260208752975 69.36183849111885 69.39260208752975 69.36183849111885 69.36183849111885 69.36183849111885 69.36183849111885 69.36183849111885 69.33107489470792 69.300311298297 69.2695477018861 69.2695477018861 69.23878410547519 69.20802050906427 69.17725691265336 69.14649331624244 69.11572971983153 69.08496612342061 69.05420252700969 69.02343893059879 68.99267533418788 68.96191173777697 68.93114814136604 68.93114814136604 68.90038454495513 68.86962094854422 68.8388573521333 68.8080937557224 68.77733015931148 68.71580296648965 68.71580296648965 68.68503937007873 68.65427577366782 68.68503937007873 68.65427577366782 68.68503937007873 68.68503937007873 68.68503937007873 68.68503937007873 68.65427577366782 68.68503937007873 68.68503937007873 68.68503937007873 68.68503937007873 68.68503937007873 68.65427577366782 68.62351217725691 68.592748580846 68.62351217725691 68.592748580846 68.56198498443507 68.56198498443507 68.53122138802416 68.50045779161326 68.50045779161326 68.46969419520234 68.46969419520234 68.46969419520234 68.43893059879143 68.40816700238051 68.3774034059696 68.3466398095587 68.3466398095587 68.31587621314777 68.31587621314777 68.31587621314777 68.31587621314777 68.31587621314777 68.31587621314777 68.31587621314777 68.31587621314777 68.31587621314777 68.31587621314777 68.31587621314777 68.28511261673685 68.28511261673685 68.22358542391504 68.22358542391504 68.19282182750412 68.19282182750412 68.1620582310932 68.1620582310932 68.1620582310932 68.1620582310932 68.13129463468229 68.10053103827138 68.06976744186046 68.06976744186046 68.06976744186046 68.06976744186046 68.03900384544954 68.03900384544954 67.97747665262773 67.91594945980589 67.88518586339498 67.82365867057315 67.82365867057315 67.79289507416223 67.79289507416223 67.79289507416223 67.79289507416223 67.79289507416223 67.79289507416223 67.73136788134042 67.73136788134042 67.7006042849295 67.7006042849295 67.66984068851858 67.63907709210767 67.60831349569676 67.57754989928584 67.54678630287492 67.51602270646401 67.48525911005311 67.45449551364219 67.45449551364219 67.42373191723127 67.42373191723127 67.42373191723127 67.42373191723127 67.42373191723127 67.42373191723127 67.39296832082036 67.36220472440945 67.36220472440945 67.36220472440945 67.33144112799853 67.33144112799853 67.33144112799853 67.36220472440945 67.33144112799853 67.33144112799853 67.33144112799853 67.33144112799853 67.36220472440945 67.33144112799853 67.33144112799853 67.33144112799853 67.33144112799853 67.33144112799853 67.33144112799853 67.33144112799853 67.30067753158761 67.2391503387658 67.20838674235489 67.14685954953305 67.11609595312214 67.08533235671122 67.05456876030031 67.05456876030031 67.05456876030031 67.05456876030031 67.02380516388939 67.02380516388939 66.99304156747849 66.99304156747849 66.96227797106756 66.96227797106756 66.96227797106756 66.96227797106756 66.99304156747849 66.99304156747849 66.96227797106756 66.99304156747849 66.99304156747849 66.99304156747849 66.99304156747849 66.96227797106756 66.99304156747849 66.96227797106756 66.96227797106756 66.96227797106756 66.90075077824574 66.86998718183483 66.77769639260208 66.71616919978025 66.68540560336935 66.65464200695843 66.62387841054752 66.62387841054752 66.62387841054752 66.62387841054752 66.62387841054752 66.62387841054752 66.56235121772569 66.53158762131477 66.47006042849296 66.47006042849296 66.47006042849296 66.47006042849296 66.47006042849296 66.47006042849296 66.47006042849296 66.47006042849296 66.47006042849296 66.47006042849296 66.47006042849296 66.47006042849296 66.47006042849296 66.43929683208202 66.40853323567111 66.37776963926021 66.3470060428493 66.3470060428493 66.31624244643838 66.31624244643838 66.28547885002746 66.28547885002746 66.25471525361655 66.28547885002746 66.25471525361655 66.25471525361655 66.25471525361655 66.25471525361655 66.25471525361655 66.25471525361655 66.22395165720565 