29.0 29.0 29.0 29.0 29.0 29.0 29.0 29.0 29.030763596410914 29.0 29.0 29.0 29.030763596410914 29.030763596410914 29.0 29.030763596410914 29.0 29.0 29.030763596410914 29.0 29.0 29.0 29.0 29.0 29.030763596410914 29.030763596410914 29.030763596410914 29.0 29.0 29.0 29.0 29.0 29.0 29.0 29.030763596410914 29.030763596410914 29.030763596410914 29.0 29.030763596410914 29.0 29.030763596410914 29.030763596410914 29.030763596410914 29.0 29.0 29.030763596410914 29.030763596410914 29.030763596410914 29.0 29.0 29.030763596410914 29.0 29.0 29.030763596410914 29.0 29.0 29.0 29.030763596410914 29.030763596410914 29.030763596410914 29.030763596410914 29.030763596410914 29.030763596410914 29.0 29.0 29.030763596410914 29.030763596410914 29.0 29.0 29.0 29.030763596410914 29.0 29.0 29.0 29.0 29.030763596410914 29.030763596410914 29.030763596410914 29.030763596410914 29.030763596410914 29.030763596410914 29.0 29.0 29.030763596410914 29.0 29.0 29.030763596410914 29.0 29.0 29.0 29.0 29.030763596410914 29.0 29.0 29.0 29.0 29.030763596410914 29.030763596410914 29.0 29.030763596410914 29.0 29.030763596410914 29.030763596410914 29.0 29.0 29.030763596410914 29.0 29.0 29.030763596410914 29.0 29.0 29.030763596410914 29.0 29.030763596410914 29.030763596410914 29.030763596410914 29.0 29.030763596410914 29.030763596410914 29.0 29.0 29.0 29.0 29.030763596410914 29.030763596410914 29.0 29.030763596410914 29.0 29.0 29.0 29.0 29.030763596410914 29.030763596410914 29.030763596410914 29.0 29.0 29.0 29.030763596410914 29.030763596410914 29.030763596410914 29.0 29.0 29.0 29.030763596410914 29.030763596410914 29.0 29.030763596410914 29.030763596410914 29.030763596410914 29.0 29.030763596410914 29.0 29.030763596410914 29.0 29.030763596410914 29.030763596410914 29.0 29.0 29.030763596410914 29.030763596410914 29.0 29.030763596410914 29.030763596410914 29.0 29.0 29.030763596410914 29.0 29.0 29.0 29.030763596410914 29.030763596410914 29.030763596410914 29.0 29.0 29.030763596410914 29.0 29.030763596410914 29.030763596410914 29.0 29.030763596410914 29.030763596410914 29.0 29.0 29.0 29.030763596410914 29.0 29.0 29.030763596410914 29.030763596410914 29.030763596410914 29.0 29.0 29.030763596410914 29.030763596410914 29.0 29.0 29.0 29.030763596410914 29.030763596410914 29.030763596410914 29.030763596410914 29.0 29.0 29.030763596410914 29.0 29.030763596410914 29.0 29.0 29.0 29.030763596410914 29.0 29.0 29.0 29.0 29.0 29.030763596410914 29.0 29.0 29.0 29.0 29.0 29.030763596410914 29.0 29.0 29.0 29.0 29.030763596410914 29.0 29.030763596410914 29.030763596410914 29.0 29.0 29.0 29.0 29.0 29.0 29.0 29.0 29.030763596410914 29.030763596410914 29.0 29.030763596410914 29.0 29.0 29.0 29.030763596410914 29.030763596410914 29.0 29.0 29.0 29.030763596410914 29.030763596410914 29.030763596410914 29.030763596410914 29.030763596410914 29.030763596410914 29.030763596410914 29.0 29.0 29.0 29.0 29.0 29.030763596410914 29.0 29.0 29.030763596410914 29.0 29.0 29.030763596410914 29.030763596410914 29.030763596410914 29.0 29.030763596410914 29.030763596410914 29.0 29.0 29.0 29.0 29.0 29.030763596410914 29.030763596410914 29.0 29.0 29.030763596410914 29.030763596410914 29.0 29.0 29.0 29.0 29.0 29.0 29.0 29.030763596410914 29.030763596410914 29.0 29.0 29.0 29.0 29.030763596410914 29.0 29.0 29.0 29.0 29.030763596410914 29.030763596410914 29.0 29.0 29.030763596410914 29.030763596410914 29.0 29.0 29.030763596410914 29.0 29.030763596410914 29.030763596410914 29.030763596410914 29.0 29.0 29.030763596410914 29.030763596410914 29.0 29.0 29.0 29.0 29.030763596410914 29.0 29.0 29.0 29.030763596410914 29.030763596410914 29.0 29.030763596410914 29.030763596410914 29.030763596410914 29.0 29.030763596410914 29.0 29.0 29.030763596410914 29.030763596410914 29.0 29.0 29.030763596410914 29.0 29.030763596410914 29.0 29.030763596410914 29.0 29.030763596410914 29.0 29.030763596410914 29.0 29.030763596410914 29.0 29.0 29.0 29.030763596410914 29.030763596410914 29.0 29.0 29.0 29.0 29.030763596410914 29.0 29.0 29.0 29.030763596410914 29.030763596410914 29.0 29.030763596410914 29.0 29.0 29.0 29.0 29.030763596410914 29.0 29.0 29.030763596410914 29.0 29.0 29.0 29.0 29.030763596410914 29.0 29.0 29.030763596410914 29.0 29.0 29.0 29.030763596410914 29.030763596410914 29.030763596410914 29.030763596410914 29.0 29.0 29.0 29.0 29.030763596410914 29.030763596410914 29.0 29.030763596410914 29.0 29.030763596410914 29.030763596410914 29.0 29.0 29.0 29.030763596410914 29.030763596410914 29.0 29.0 29.0 29.0 29.0 29.0 29.0 29.0 29.030763596410914 29.030763596410914 29.0 29.0 29.0 29.030763596410914 29.0 29.0 29.0 29.0 29.030763596410914 29.030763596410914 29.0 29.0 29.0 29.0 29.0 29.030763596410914 29.0 29.0 29.0 29.030763596410914 29.0 29.0 29.030763596410914 29.0 29.030763596410914 29.0 29.0 29.0 29.0 29.0 29.030763596410914 29.0 29.0 29.030763596410914 29.030763596410914 29.030763596410914 29.0 29.0 29.0 29.030763596410914 29.0 29.0 29.0 29.0 29.030763596410914 29.0 29.0 29.030763596410914 29.0 29.0 29.030763596410914 29.030763596410914 29.030763596410914 29.0 29.0 29.030763596410914 29.030763596410914 29.0 29.0 29.030763596410914 29.030763596410914 29.0 29.0 29.0 29.0 29.0 29.0 29.0 29.0 29.0 29.0 29.030763596410914 29.0 29.0 29.0 29.0 29.030763596410914 29.0 29.0 29.0 29.030763596410914 29.0 29.030763596410914 29.0 29.0 29.0 29.030763596410914 29.0 29.0 29.0 29.030763596410914 29.0 29.0 29.030763596410914 29.030763596410914 29.030763596410914 29.0 29.0 29.0 29.030763596410914 29.0 29.0 29.0 29.0 29.0 29.0 29.0 29.0 29.0 29.0 29.0 29.030763596410914 29.0 29.0 29.0 29.0 29.030763596410914 29.030763596410914 29.0 29.030763596410914 29.0 29.030763596410914 29.030763596410914 29.0 29.0 29.0 29.0 29.0 29.0 29.0 29.0 29.0 29.0 29.0 29.0 29.0 29.030763596410914 29.061527192821828 29.09229078923274 29.123054385643655 29.215345174876397 29.338399560520052 29.430690349752794 29.553744735396446 29.646035524629188 29.73832631386193 29.8921442959165 30.107489470792896 30.13825306720381 30.261307452847465 30.322834645669293 30.445889031312948 30.538179820545686 30.630470609778428 30.72276139901117 30.845815784654825 30.938106573887566 31.06116095953122 31.184215345174877 31.307269730818533 31.430324116462188 31.522614905694926 31.64566929133858 31.768723676982237 31.830250869804065 31.922541659036806 32.014832448269544 32.07635964109137 32.107123237502286 32.1378868339132 32.1378868339132 32.260941219556855 32.44552279802234 32.69163156930965 32.968503937007874 33.2453763047061 33.55301226881524 33.922175425746204 34.229811389855335 34.50668375755356 34.783556125251785 34.99890130012818 35.30653726423732 35.61417322834646 35.9218091924556 36.22944515656473 36.53708112067387 36.84471708478301 37.12158945248123 37.398461820179456 37.70609778428859 38.013733748397726 38.321369712506865 38.629005676616 38.93664164072514 39.24427760483428 39.55191356894342 39.82878593664164 40.10565830433986 40.38253067203809 40.65940303973631 40.936275407434536 41.21314777513276 41.490020142830986 41.7668925105292 42.013001281816514 42.197582860282 42.47445522798022 42.659036806445705 42.905145577733016 43.12049075260941 43.33583592748581 43.5511811023622 43.73576268082768 43.92034425929317 44.135689434169564 44.28950741622413 44.474088994689616 44.6586705731551 44.84325215162058 45.02783373008606 45.21241530855154 45.396996887017025 45.58157846548251 45.79692364035891 46.0122688152353 46.2276139901117 46.504486357809924 46.78135872550815 47.05823109320637 47.36586705731551 47.64273942501373 47.95037538912287 48.28877494964292 48.62717451016297 48.93481047427211 49.27321003479216 49.61160959531221 49.95000915583226 50.288408716352315 50.56528108405054 50.87291704815968 51.149789415857896 51.3651345907343 51.64200695843252 51.91887932613075 52.19575169382897 52.38033327229445 52.62644204358176 52.903314411279986 53.14942318256729 53.364768357443694 53.580113532320084 53.826222303607395 54.0415674784838 54.2876762497711 54.5030214246475 54.74913019593481 54.9644753708112 55.179820545687605 55.36440212415309 55.57974729902948 55.79509247390588 55.97967405237136 56.195019227247755 56.37960080571324 56.59494598058963 56.748763962644205 56.93334554110969 57.117927119575164 57.302508698040654 57.456326680095216 57.67167185497162 57.8562534334371 58.04083501190259 58.25618018677898 58.47152536165537 58.7483977293536 58.93297930781908 59.17908807910639 59.51748763962644 59.60977842885918 59.85588720014648 60.040468778611974 60.378868339132026 60.53268632118659 60.80955868888482 61.055667460172124 61.30177623145944 61.42483061710309 61.73246658121223 61.8862845632668 62.101629738143195 62.31697491301959 62.44002929866325 62.62461087712873 62.77842885918329 62.870719648416035 62.99377403405969 63.08606482329243 63.17835561252517 63.27064640175792 63.36293719099066 63.424464383812484 63.516755173045226 63.578282365867054 63.60904596227797 63.63980955868888 63.70133675151071 63.79362754074345 63.85515473356528 63.916681926387106 63.978209119208934 64.03973631203075 64.1012635048526 64.1320271012635 64.16279069767441 64.19355429408533 64.19355429408533 64.19355429408533 64.19355429408533 64.19355429408533 64.19355429408533 64.19355429408533 64.19355429408533 64.19355429408533 64.22431789049625 64.19355429408533 64.19355429408533 64.19355429408533 64.19355429408533 64.19355429408533 64.19355429408533 64.22431789049625 64.19355429408533 64.19355429408533 64.19355429408533 64.19355429408533 64.19355429408533 64.19355429408533 64.19355429408533 64.19355429408533 64.19355429408533 64.19355429408533 64.19355429408533 64.19355429408533 64.19355429408533 64.19355429408533 64.19355429408533 64.19355429408533 64.19355429408533 64.19355429408533 64.19355429408533 64.19355429408533 64.19355429408533 64.22431789049625 64.19355429408533 64.19355429408533 64.19355429408533 64.19355429408533 64.19355429408533 64.19355429408533 64.19355429408533 64.19355429408533 64.19355429408533 64.19355429408533 64.19355429408533 64.19355429408533 64.19355429408533 64.19355429408533 64.19355429408533 64.19355429408533 64.19355429408533 64.19355429408533 64.19355429408533 64.19355429408533 64.19355429408533 64.19355429408533 64.19355429408533 64.22431789049625 64.19355429408533 64.19355429408533 64.19355429408533 64.19355429408533 64.19355429408533 64.19355429408533 64.19355429408533 64.22431789049625 64.19355429408533 64.19355429408533 64.19355429408533 64.19355429408533 64.19355429408533 64.19355429408533 64.19355429408533 64.16279069767441 64.16279069767441 64.16279069767441 64.16279069767441 64.16279069767441 64.16279069767441 64.16279069767441 64.16279069767441 64.16279069767441 64.16279069767441 64.16279069767441 64.16279069767441 64.16279069767441 64.16279069767441 64.16279069767441 64.16279069767441 64.16279069767441 64.16279069767441 64.16279069767441 64.16279069767441 64.16279069767441 64.16279069767441 64.16279069767441 64.16279069767441 64.16279069767441 64.16279069767441 64.16279069767441 64.16279069767441 64.19355429408533 64.16279069767441 64.16279069767441 64.16279069767441 64.16279069767441 64.16279069767441 64.16279069767441 64.16279069767441 64.16279069767441 64.16279069767441 64.16279069767441 64.16279069767441 64.16279069767441 64.16279069767441 64.16279069767441 64.16279069767441 64.16279069767441 64.16279069767441 64.16279069767441 64.16279069767441 64.16279069767441 64.16279069767441 64.16279069767441 64.16279069767441 64.16279069767441 64.16279069767441 64.16279069767441 64.16279069767441 64.16279069767441 64.16279069767441 64.16279069767441 64.16279069767441 64.16279069767441 64.16279069767441 64.16279069767441 64.16279069767441 64.1320271012635 64.16279069767441 64.1320271012635 64.1320271012635 64.1320271012635 64.1320271012635 64.1320271012635 64.1320271012635 64.1012635048526 64.07049990844168 64.03973631203075 64.00897271561985 63.94744552279802 63.94744552279802 63.916681926387106 63.916681926387106 63.916681926387106 63.916681926387106 63.916681926387106 63.916681926387106 63.916681926387106 63.916681926387106 63.916681926387106 63.916681926387106 63.916681926387106 63.916681926387106 63.916681926387106 63.88591832997619 63.88591832997619 63.88591832997619 63.88591832997619 63.88591832997619 63.88591832997619 63.88591832997619 63.88591832997619 63.88591832997619 63.88591832997619 63.85515473356528 63.85515473356528 63.85515473356528 63.85515473356528 63.824391137154365 63.824391137154365 63.824391137154365 63.79362754074345 63.79362754074345 63.76286394433254 63.73210034792162 63.70133675151071 63.63980955868888 63.63980955868888 63.60904596227797 63.60904596227797 63.578282365867054 63.54751876945614 63.578282365867054 63.578282365867054 63.54751876945614 63.54751876945614 63.54751876945614 63.54751876945614 63.54751876945614 63.54751876945614 63.54751876945614 63.54751876945614 63.54751876945614 63.54751876945614 63.516755173045226 63.48599157663431 63.4552279802234 63.4552279802234 63.4552279802234 63.4552279802234 63.4552279802234 63.4552279802234 63.4552279802234 63.4552279802234 63.4552279802234 63.424464383812484 63.424464383812484 63.39370078740157 63.36293719099066 63.36293719099066 63.33217359457974 63.30140999816883 63.27064640175792 63.239882805347 63.20911920893609 63.20911920893609 63.20911920893609 63.20911920893609 63.20911920893609 63.20911920893609 63.20911920893609 63.20911920893609 63.17835561252517 63.14759201611426 63.14759201611426 63.11682841970335 63.08606482329243 63.055301226881525 63.055301226881525 62.99377403405969 62.99377403405969 62.96301043764878 62.96301043764878 62.96301043764878 62.93224684123786 62.96301043764878 62.96301043764878 62.96301043764878 62.96301043764878 62.96301043764878 62.96301043764878 62.96301043764878 62.96301043764878 62.96301043764878 62.96301043764878 62.96301043764878 62.96301043764878 62.96301043764878 62.96301043764878 62.96301043764878 62.93224684123786 62.870719648416035 62.77842885918329 62.74766526277239 62.68613806995056 62.65537447353964 62.62461087712873 62.65537447353964 62.62461087712873 62.62461087712873 62.62461087712873 62.5630836843069 62.5630836843069 62.50155649148507 62.47079289507416 62.44002929866325 62.409265702252334 62.44002929866325 62.409265702252334 62.409265702252334 62.409265702252334 62.44002929866325 62.44002929866325 62.44002929866325 62.409265702252334 62.409265702252334 62.409265702252334 62.409265702252334 62.409265702252334 62.409265702252334 62.347738509430506 62.31697491301959 62.22468412378685 62.19392052737594 62.101629738143195 62.07086614173228 62.04010254532137 62.04010254532137 62.009338948910454 62.009338948910454 62.009338948910454 62.009338948910454 61.97857535249954 62.009338948910454 62.009338948910454 61.97857535249954 61.97857535249954 61.97857535249954 61.947811756088626 61.947811756088626 61.947811756088626 61.91704815967771 61.8862845632668 61.91704815967771 61.8862845632668 61.8862845632668 61.855520966855885 61.855520966855885 61.8862845632668 61.855520966855885 61.855520966855885 61.8862845632668 61.8862845632668 61.8862845632668 61.8862845632668 61.855520966855885 61.855520966855885 61.855520966855885 61.855520966855885 61.855520966855885 61.855520966855885 61.855520966855885 61.8862845632668 61.8862845632668 61.8862845632668 61.855520966855885 61.855520966855885 61.8862845632668 61.855520966855885 61.855520966855885 61.855520966855885 61.8862845632668 61.855520966855885 61.855520966855885 61.82475737044497 61.79399377403406 61.79399377403406 61.76323017762314 61.76323017762314 61.73246658121223 61.76323017762314 61.76323017762314 61.76323017762314 61.76323017762314 61.76323017762314 61.76323017762314 61.76323017762314 61.76323017762314 61.76323017762314 61.76323017762314 61.76323017762314 61.76323017762314 61.76323017762314 61.76323017762314 61.76323017762314 61.76323017762314 61.76323017762314 61.76323017762314 61.76323017762314 61.73246658121223 61.76323017762314 61.73246658121223 61.73246658121223 61.73246658121223 61.73246658121223 61.73246658121223 61.701702984801315 61.73246658121223 61.701702984801315 61.73246658121223 61.73246658121223 61.73246658121223 61.73246658121223 61.73246658121223 61.76323017762314 61.73246658121223 61.76323017762314 61.73246658121223 61.76323017762314 61.73246658121223 61.73246658121223 61.73246658121223 61.73246658121223 61.76323017762314 61.73246658121223 61.73246658121223 61.73246658121223 61.73246658121223 61.73246658121223 61.73246658121223 61.73246658121223 61.73246658121223 61.73246658121223 61.73246658121223 61.73246658121223 61.73246658121223 61.73246658121223 61.73246658121223 61.76323017762314 61.73246658121223 61.73246658121223 61.73246658121223 61.73246658121223 61.73246658121223 61.73246658121223 61.76323017762314 61.76323017762314 61.76323017762314 61.73246658121223 61.73246658121223 61.73246658121223 61.701702984801315 61.6709393883904 61.6709393883904 61.64017579197949 61.57864859915766 61.51712140633583 61.45559421351401 61.39406702069218 61.27101263504852 61.055667460172124 60.901849478117555 60.71726789965207 60.50192272477568 60.25581395348837 59.94817798937923 59.70206921809192 59.14832448269547 58.7483977293536 58.563816150888115 58.13312580113532 57.79472624061527 57.179454312397 56.77952755905512 56.47189159494598 56.0719648416041 55.70280168467313 55.51822010620765 55.087529756454856 54.77989379234572 54.47225782823658 54.13385826771653 53.88774949642922 53.518586339498256 53.18018677897821 52.903314411279986 52.53415125434902 52.257278886650795 51.91887932613075 51.51895257278886 51.242080205090645 50.688335469694195 50.31917231276323 50.01153634865409 49.73466398095587 49.27321003479216 48.9040468778612 48.473356528108404 48.104193371177445 47.765793810657385 47.36586705731551 47.08899468961728 46.78135872550815 46.53524995422084 46.196850393700785 45.88921442959165 45.643105658304336 45.30470609778429 45.05859732649698 44.75096136238784 44.381798205456874 44.135689434169564 43.85881706647134 43.581944698773114 43.366599523896724 43.058963559787585 42.78209119208936 42.32063724592565 41.9822376854056 41.705365317707376 41.27467496795458 40.81322102179088 40.444057864859914 39.982603918696206 39.644204358176154 39.15198681560154 38.721296465848745 38.44442409815052 38.013733748397726 37.64457059146676 37.33693462735763 37.060062259659404 36.84471708478301 36.506317524262954 36.198681560153815 35.98333638527742 35.67570042116829 35.24501007141549 35.06042849295001 34.72202893242996 34.50668375755356 34.35286577549899 34.10675700421168 33.95293902215711 33.73759384728072 33.55301226881524 33.39919428676067 33.2453763047061 33.09155832265153 32.906976744186046 32.72239516572056 32.568577183665994 32.38399560520051 32.23017762314594 32.107123237502286 31.984068851858634 31.86101446621498 31.737960080571323 31.676432887749495 31.584142098516754 31.491851309284012 31.399560520051274 31.338033327229446 31.27650613440762 31.245742537996705 31.184215345174877 31.12268815235305 31.091924555942136 31.030397363120308 30.999633766709394 30.938106573887566 30.907342977476652 30.845815784654825 30.81505218824391 30.753524995422083 30.753524995422083 30.691997802600255 30.630470609778428 30.538179820545686 30.47665262772386 30.415125434902034 30.29207104925838 30.23054385643655 30.199780260025637 30.107489470792896 30.045962277971068 29.953671488738326 29.799853506683757 29.707562717451015 29.615271928218274 29.49221754257462 29.430690349752794 29.24610877128731 29.15381798205457 29.030763596410914 28.90770921076726 28.876945614356345 28.784654825123603 28.784654825123603 28.75389122871269 28.75389122871269 28.723127632301775 28.723127632301775 28.69236403589086 28.69236403589086 28.661600439479948 28.630836843069034 28.60007324665812 28.569309650247206 28.538546053836292 28.50778245742538 28.50778245742538 28.477018861014468 28.446255264603554 28.446255264603554 28.41549166819264 28.41549166819264 28.41549166819264 28.41549166819264 28.384728071781726 28.353964475370812 28.353964475370812 28.3232008789599 28.292437282548985 28.230910089727157 28.230910089727157 28.200146493316243 28.16938289690533 28.138619300494415 28.138619300494415 28.138619300494415 28.1078557040835 28.1078557040835 28.1078557040835 28.1078557040835 28.1078557040835 28.1078557040835 28.1078557040835 28.1078557040835 28.1078557040835 28.077092107672588 28.077092107672588 28.046328511261674 28.046328511261674 28.01556491485076 28.01556491485076 28.01556491485076 27.984801318439846 27.984801318439846 27.984801318439846 27.984801318439846 27.984801318439846 27.984801318439846 27.984801318439846 27.984801318439846 27.984801318439846 27.984801318439846 27.984801318439846 27.984801318439846 27.984801318439846 27.984801318439846 27.984801318439846 27.984801318439846 27.984801318439846 27.984801318439846 27.984801318439846 27.984801318439846 27.984801318439846 27.984801318439846 27.984801318439846 27.984801318439846 27.984801318439846 27.984801318439846 27.984801318439846 27.984801318439846 27.984801318439846 27.984801318439846 27.984801318439846 27.984801318439846 27.984801318439846 27.984801318439846 27.984801318439846 27.984801318439846 27.984801318439846 27.984801318439846 27.984801318439846 27.984801318439846 27.984801318439846 27.984801318439846 27.984801318439846 27.984801318439846 27.984801318439846 27.984801318439846 27.984801318439846 27.984801318439846 27.984801318439846 27.984801318439846 27.984801318439846 27.984801318439846 27.984801318439846 27.984801318439846 27.984801318439846 27.984801318439846 27.984801318439846 27.984801318439846 27.984801318439846 27.984801318439846 27.984801318439846 27.984801318439846 27.984801318439846 27.984801318439846 27.984801318439846 27.984801318439846 27.984801318439846 27.984801318439846 27.984801318439846 27.984801318439846 27.954037722028932 27.984801318439846 27.984801318439846 27.984801318439846 27.984801318439846 27.984801318439846 27.984801318439846 27.954037722028932 27.954037722028932 27.984801318439846 27.984801318439846 27.984801318439846 27.984801318439846 27.954037722028932 27.984801318439846 27.984801318439846 27.954037722028932 27.984801318439846 27.954037722028932 27.954037722028932 27.984801318439846 27.954037722028932 27.954037722028932 27.984801318439846 27.954037722028932 27.984801318439846 27.984801318439846 27.954037722028932 27.984801318439846 27.954037722028932 27.954037722028932 27.984801318439846 27.984801318439846 27.984801318439846 27.984801318439846 27.954037722028932 27.984801318439846 27.984801318439846 27.954037722028932 27.984801318439846 27.954037722028932 27.954037722028932 27.954037722028932 27.954037722028932 27.954037722028932 27.984801318439846 27.954037722028932 27.954037722028932 27.954037722028932 27.984801318439846 27.954037722028932 27.954037722028932 27.954037722028932 27.954037722028932 27.954037722028932 27.954037722028932 27.954037722028932 27.954037722028932 27.954037722028932 27.954037722028932 27.954037722028932 27.954037722028932 27.954037722028932 27.954037722028932 27.954037722028932 27.954037722028932 27.954037722028932 27.954037722028932 27.954037722028932 27.954037722028932 27.954037722028932 27.954037722028932 27.954037722028932 27.954037722028932 27.954037722028932 27.954037722028932 27.954037722028932 27.954037722028932 27.954037722028932 27.954037722028932 27.954037722028932 27.954037722028932 27.954037722028932 27.954037722028932 27.954037722028932 27.954037722028932 27.954037722028932 27.954037722028932 27.92327412561802 27.954037722028932 27.954037722028932 27.954037722028932 27.954037722028932 27.954037722028932 27.954037722028932 27.954037722028932 27.954037722028932 27.954037722028932 27.954037722028932 27.954037722028932 27.954037722028932 27.954037722028932 27.954037722028932 27.954037722028932 27.954037722028932 27.954037722028932 27.954037722028932 27.954037722028932 27.954037722028932 27.954037722028932 27.954037722028932 27.954037722028932 27.954037722028932 27.954037722028932 27.954037722028932 27.954037722028932 27.954037722028932 27.954037722028932 27.954037722028932 27.954037722028932 27.954037722028932 27.954037722028932 27.954037722028932 27.954037722028932 27.954037722028932 27.954037722028932 27.954037722028932 27.954037722028932 27.954037722028932 27.954037722028932 27.954037722028932 27.954037722028932 27.954037722028932 27.954037722028932 27.954037722028932 27.954037722028932 27.954037722028932 27.954037722028932 27.954037722028932 27.92327412561802 27.92327412561802 27.92327412561802 27.92327412561802 27.92327412561802 27.92327412561802 27.92327412561802 27.892510529207104 27.92327412561802 27.92327412561802 27.92327412561802 27.92327412561802 27.92327412561802 27.92327412561802 27.892510529207104 27.92327412561802 27.92327412561802 27.92327412561802 27.92327412561802 27.92327412561802 27.92327412561802 27.92327412561802 27.92327412561802 27.92327412561802 27.92327412561802 27.92327412561802 27.92327412561802 27.92327412561802 27.92327412561802 27.92327412561802 27.92327412561802 27.92327412561802 27.92327412561802 27.954037722028932 27.954037722028932 27.984801318439846 27.984801318439846 28.01556491485076 28.01556491485076 28.077092107672588 28.077092107672588 28.138619300494415 28.200146493316243 28.3232008789599 28.384728071781726 28.446255264603554 28.569309650247206 28.661600439479948 28.75389122871269 28.938472807178172 29.0 29.061527192821828 29.09229078923274 29.15381798205457 29.215345174876397 29.30763596410914 29.369163156930966 29.430690349752794 29.461453946163708 29.58450833180736 29.6767991210401 29.769089910272843 29.8921442959165 30.107489470792896 30.29207104925838 30.599707013367514 30.845815784654825 31.153451748763963 31.522614905694926 31.737960080571323 32.07635964109137 32.568577183665994 32.78392235854239 33.12232191906244 33.33766709393884 33.614539461637065 33.89141182933528 33.983702618568024 34.35286577549899 34.50668375755356 34.72202893242996 34.937374107306354 35.15271928218275 35.46035524629189 35.737227613990115 35.952572788866505 36.29097234938656 36.506317524262954 36.87548068119392 37.398461820179456 37.67533418787768 38.013733748397726 38.413660501739606 38.69053286943783 39.15198681560154 39.45962277971067 40.07489470792895 40.536348654092656 40.87474821461271 41.3054385643655 41.705365317707376 41.85918329976195 42.28987364951474 42.505218824391136 42.78209119208936 43.028199963376665 43.18201794543124 43.48965390954038 43.70499908441677 43.828053470060425 43.981871452114994 44.10492583775865 44.25874381981322 44.41256180186779 44.56637978392236 44.6586705731551 44.75096136238784 44.781724958798755 44.96630653726424 45.12012451931881 45.45852407983885 45.735396447537084 45.91997802600257 46.196850393700785 46.47372276139901 46.658304339864486 46.904413111151804 47.08899468961728 47.36586705731551 47.61197582860282 47.765793810657385 48.011902581944696 48.319538546053835 48.473356528108404 48.62717451016297 48.75022889580663 48.96557407068302 49.1501556491485 49.30397363120308 49.55008240249039 49.70390038454495 49.888481963010435 50.042299945065004 50.16535433070866 50.41146310199597 50.71909906610511 50.87291704815968 51.11902581944699 51.30360739791247 51.54971616919978 51.79582494048709 51.949642922541656 52.19575169382897 52.38033327229445 52.56491485075993 52.78026002563632 52.903314411279986 53.08789598974546 53.27247756821095 53.364768357443694 53.518586339498256 53.64164072514191 53.73393151437466 53.826222303607395 53.94927668925105 54.0415674784838 54.13385826771653 54.19538546053836 54.34920344259293 54.44149423182567 54.53378502105841 54.65683940670207 54.7183665995239 54.841420985167545 54.99523896722212 55.087529756454856 55.24134773850943 55.36440212415309 55.51822010620765 55.641274491851306 55.73356528108405 55.88738326313862 56.01043764878227 56.10272843801501 56.195019227247755 56.31807361289141 56.441127998535066 56.53341878776781 56.59494598058963 56.68723676982238 56.77952755905512 56.841054751876946 56.93334554110969 57.02563633034242 57.08716352316425 57.179454312397 57.27174510162973 57.39479948727339 57.48709027650613 57.57938106573887 57.70243545138253 57.79472624061527 57.917780626258924 58.071598608313494 58.163889397546235 58.317707379600805 58.44076176524446 58.533052554477194 58.68687053653177 58.809924922175426 59.05603369346274 59.24061527192821 59.363669657571876 59.48672404321553 59.64054202527009 59.732832814502835 59.91741439296832 60.040468778611974 60.19428676066654 60.34810474272111 60.47115912836477 60.594213514008416 60.80955868888482 60.87108588170665 60.994140267350296 61.11719465299395 61.240249038637614 61.36330342428126 61.45559421351401 61.609412195568574 61.6709393883904 61.701702984801315 61.79399377403406 61.855520966855885 61.947811756088626 62.07086614173228 62.101629738143195 62.19392052737594 62.31697491301959 62.37850210584142 62.50155649148507 62.59384728071782 62.68613806995056 62.77842885918329 62.83995605200513 62.901483244826956 62.96301043764878 62.99377403405969 63.055301226881525 63.08606482329243 63.14759201611426 63.20911920893609 63.27064640175792 63.36293719099066 63.48599157663431 63.578282365867054 63.670573155099795 63.76286394433254 63.978209119208934 64.07049990844168 64.25508148690716 64.37813587255081 64.47042666178355 64.59348104742722 64.68577183665994 64.74729902948178 64.80882622230361 64.87035341512544 64.87035341512544 64.90111701153634 64.90111701153634 64.90111701153634 64.90111701153634 64.87035341512544 64.87035341512544 64.87035341512544 64.83958981871451 64.83958981871451 64.83958981871451 64.80882622230361 64.77806262589269 64.77806262589269 64.77806262589269 64.77806262589269 64.77806262589269 64.77806262589269 64.77806262589269 64.77806262589269 64.77806262589269 64.77806262589269 64.74729902948178 64.77806262589269 64.74729902948178 64.74729902948178 64.71653543307087 64.71653543307087 64.68577183665994 64.65500824024903 64.65500824024903 64.62424464383813 64.59348104742722 64.5627174510163 64.53195385460538 64.47042666178355 64.40889946896172 64.37813587255081 64.31660867972897 64.28584508331807 64.25508148690716 64.22431789049625 64.22431789049625 64.22431789049625 64.22431789049625 64.19355429408533 64.19355429408533 64.19355429408533 64.22431789049625 64.19355429408533 64.19355429408533 64.22431789049625 64.22431789049625 64.22431789049625 64.22431789049625 64.19355429408533 64.19355429408533 64.16279069767441 64.16279069767441 64.1320271012635 64.16279069767441 64.16279069767441 64.1320271012635 64.16279069767441 64.1320271012635 64.1320271012635 64.16279069767441 64.16279069767441 64.1320271012635 64.1320271012635 64.16279069767441 64.16279069767441 64.1320271012635 64.16279069767441 64.16279069767441 64.16279069767441 64.16279069767441 64.1320271012635 64.1320271012635 64.1320271012635 64.1012635048526 64.1012635048526 64.1012635048526 64.07049990844168 64.07049990844168 64.07049990844168 64.03973631203075 64.03973631203075 64.00897271561985 63.978209119208934 63.978209119208934 63.94744552279802 63.94744552279802 63.94744552279802 63.94744552279802 63.94744552279802 63.94744552279802 63.94744552279802 63.916681926387106 63.916681926387106 63.88591832997619 63.88591832997619 63.88591832997619 63.88591832997619 63.88591832997619 63.88591832997619 63.85515473356528 63.85515473356528 63.85515473356528 63.85515473356528 63.824391137154365 63.824391137154365 63.824391137154365 63.79362754074345 63.76286394433254 63.73210034792162 63.670573155099795 63.60904596227797 63.516755173045226 63.48599157663431 63.39370078740157 63.33217359457974 63.20911920893609 63.11682841970335 63.024537630470604 62.901483244826956 62.80919245559421 62.68613806995056 62.47079289507416 62.255447720197765 62.07086614173228 61.79399377403406 61.547885002746746 61.27101263504852 60.901849478117555 60.594213514008416 60.132759567844715 59.60977842885918 59.2098516755173 58.533052554477194 57.79472624061527 57.056399926753336 56.53341878776781 55.948910455960444 55.05676616004395 53.67240432155283 52.903314411279986 51.76506134407617 50.903680644570585 49.76542757736678 48.873283281450284 48.073429774766524 46.350668375755355 45.089360922907886 44.227980223402305 43.15125434902033 42.35140084233657 41.55154733565281 40.65940303973631 40.16718549716169 39.30580479765611 38.44442409815052 37.798388573521336 36.72166269913935 36.01409998168833 34.56821095037539 34.04522981138985 33.64530305804798 33.12232191906244 32.63010437648782 32.414759201611425 32.07635964109137 31.922541659036806 31.64566929133858 31.399560520051274 31.21497894158579 31.030397363120308 30.845815784654825 30.538179820545686 30.29207104925838 30.045962277971068 29.769089910272843 29.553744735396446 29.338399560520052 29.030763596410914 28.815418421534517 28.60007324665812 28.41549166819264 28.384728071781726 28.3232008789599 28.3232008789599 28.292437282548985 28.26167368613807 28.26167368613807 28.230910089727157 28.200146493316243 28.16938289690533 28.138619300494415 28.1078557040835 28.1078557040835 28.077092107672588 28.046328511261674 28.01556491485076 28.01556491485076 28.01556491485076 27.984801318439846 27.954037722028932 27.92327412561802 27.86174693279619 27.800219739974363 27.70792895074162 27.70792895074162 27.70792895074162 27.76945614356345 27.800219739974363 27.800219739974363 27.800219739974363 27.830983336385277 27.830983336385277 27.830983336385277 27.86174693279619 27.86174693279619 27.830983336385277 27.830983336385277 27.830983336385277 27.830983336385277 27.830983336385277 27.830983336385277 27.830983336385277 27.830983336385277 27.830983336385277 27.830983336385277 27.830983336385277 27.830983336385277 27.830983336385277 27.830983336385277 27.830983336385277 27.830983336385277 27.830983336385277 27.800219739974363 27.800219739974363 27.830983336385277 27.800219739974363 27.830983336385277 27.830983336385277 27.830983336385277 27.830983336385277 27.830983336385277 27.800219739974363 27.830983336385277 27.830983336385277 27.830983336385277 27.830983336385277 27.830983336385277 27.800219739974363 27.800219739974363 27.800219739974363 27.830983336385277 27.830983336385277 27.830983336385277 27.800219739974363 27.830983336385277 27.830983336385277 27.800219739974363 27.800219739974363 27.800219739974363 27.800219739974363 27.800219739974363 27.830983336385277 27.800219739974363 27.830983336385277 27.800219739974363 27.800219739974363 27.830983336385277 27.800219739974363 27.830983336385277 27.800219739974363 27.800219739974363 27.800219739974363 27.800219739974363 27.830983336385277 27.830983336385277 27.800219739974363 27.800219739974363 27.830983336385277 27.800219739974363 27.800219739974363 27.800219739974363 27.800219739974363 27.800219739974363 27.800219739974363 27.800219739974363 27.800219739974363 27.800219739974363 27.800219739974363 27.800219739974363 27.800219739974363 27.800219739974363 27.800219739974363 27.800219739974363 27.800219739974363 27.800219739974363 27.800219739974363 27.800219739974363 27.800219739974363 27.830983336385277 27.800219739974363 27.800219739974363 27.800219739974363 27.800219739974363 27.800219739974363 27.800219739974363 27.800219739974363 27.800219739974363 27.830983336385277 27.800219739974363 27.800219739974363 27.800219739974363 27.800219739974363 27.800219739974363 27.800219739974363 27.800219739974363 27.800219739974363 27.800219739974363 27.800219739974363 27.800219739974363 27.800219739974363 27.800219739974363 27.800219739974363 27.800219739974363 27.800219739974363 27.800219739974363 27.800219739974363 27.800219739974363 27.800219739974363 27.800219739974363 27.800219739974363 27.800219739974363 27.800219739974363 27.800219739974363 27.800219739974363 27.800219739974363 27.800219739974363 27.800219739974363 27.800219739974363 
