25.0 25.0 25.0 24.978026002563634 24.978026002563634 24.978026002563634 25.0 25.0 25.0 25.0 25.0 25.0 25.0 25.0 25.0 24.978026002563634 25.0 25.0 24.978026002563634 25.0 25.0 25.0 25.0 25.0 25.0 24.978026002563634 24.978026002563634 25.0 25.0 24.978026002563634 25.0 24.978026002563634 25.0 25.0 24.978026002563634 25.0 24.978026002563634 25.0 25.0 25.0 25.0 25.0 25.0 25.0 25.0 25.0 25.0 25.0 25.0 25.0 25.0 25.0 25.0 25.0 25.0 25.0 25.0 25.0 25.0 25.0 24.978026002563634 25.0 25.0 25.0 25.0 25.0 25.0 25.0 24.978026002563634 25.0 25.0 25.0 25.0 25.0 25.0 25.0 25.0 25.0 25.0 24.978026002563634 25.0 25.0 25.0 25.0 25.0 25.0 25.0 25.0 25.0 25.0 25.0 25.0 24.978026002563634 25.0 25.0 25.0 25.0 25.0 25.0 25.0 25.0 25.0 25.0 25.0 25.0 25.0 25.0 25.0 25.0 25.0 25.0 25.0 25.0 25.0 25.0 25.0 25.0 25.0 25.0 25.0 25.0 25.0 25.0 25.0 25.0 25.0 25.0 25.0 25.0 25.0 25.0 25.0 25.0 25.0 25.0 25.0 25.0 25.0 25.0 25.0 25.0 25.0 25.0 25.0 25.0 25.0 25.0 25.0 25.0 25.0 25.0 25.0 25.0 25.0 25.0 25.0 25.0 25.0 25.0 25.0 25.0 25.0 25.0 25.0 25.0 25.0 25.0 25.0 25.0 25.0 25.0 25.0 25.0 25.0 25.0 25.0 25.0 25.0 25.0 25.0 25.0 25.0 25.0 25.0 25.0 25.0 25.0 25.0 25.0 25.0 25.0 25.0 25.0 25.0 25.0 25.0 25.0 25.0 25.0 25.0 25.0 25.0 25.0 25.0 25.0 25.0 25.0 25.0 25.0 25.0 25.0 25.0 25.0 25.0 25.0 25.0 25.0 25.0 25.0 25.0 25.0 25.0 25.0 25.0 25.0 25.0 25.0 25.0 25.0 25.0 25.0 25.0 25.0 25.0 25.0 25.0 25.0 25.0 25.0 25.0 25.0 25.0 25.0 25.0 25.0 25.0 25.0 25.0 25.0 25.0 25.0 25.0 25.0 25.0 25.0 25.0 25.0 25.0 25.0 25.021973997436366 25.0 25.0 25.0 25.0 25.0 25.0 25.0 25.0 25.0 25.0 25.0 25.0 25.0 25.0 25.0 25.0 25.0 25.0 25.0 25.0 25.0 25.0 25.0 25.0 25.0 25.0 25.0 25.0 25.0 25.0 25.0 25.0 25.0 25.0 25.0 25.0 25.0 25.0 25.0 25.0 25.0 25.0 25.0 25.0 25.0 25.0 25.0 25.0 25.0 25.0 25.0 25.0 25.0 25.0 25.0 25.0 25.0 25.0 25.0 25.0 25.0 25.0 25.0 25.0 25.0 25.0 25.0 25.0 25.0 25.0 25.0 25.0 25.0 25.0 25.0 25.0 25.0 25.0 25.0 25.0 25.0 25.0 25.0 25.0 25.0 25.0 25.0 25.0 25.0 25.0 25.0 25.0 25.0 25.0 25.0 25.0 25.0 25.0 25.0 25.0 25.0 25.0 25.0 25.0 25.0 25.0 25.0 25.0 25.0 25.0 25.0 25.0 25.0 25.0 25.0 25.0 25.0 25.0 25.0 25.0 25.0 25.0 25.0 24.978026002563634 25.0 25.0 25.0 25.0 25.0 25.0 25.0 25.0 25.0 25.0 25.0 25.0 25.0 25.0 25.0 25.0 25.0 25.0 25.0 25.0 25.0 25.0 25.0 25.0 25.0 25.0 25.0 25.0 25.0 25.0 25.0 25.0 25.0 25.0 25.0 25.0 25.0 25.0 25.0 25.0 25.0 25.0 25.0 25.0 25.0 25.0 25.0 25.0 25.0 25.0 25.0 25.0 25.0 25.0 25.0 25.021973997436366 25.0 25.0 25.0 25.0 25.0 25.0 25.0 25.0 25.021973997436366 25.0 25.0 25.0 25.0 25.0 25.0 25.0 25.0 25.0 25.021973997436366 25.0 25.0 25.0 25.0 25.021973997436366 25.0 25.021973997436366 25.0 25.0 25.0 25.0 25.0 25.0 25.0 25.0 25.0 25.0 25.0 25.0 25.0 25.0 25.0 25.0 25.0 25.0 25.0 25.0 25.0 25.0 25.021973997436366 25.0 25.0 25.0 25.0 25.0 25.0 25.0 25.0 25.0 25.0 25.0 25.0 25.0 25.0 25.0 25.0 25.0 25.0 25.0 25.0 25.0 25.0 25.021973997436366 25.0 25.0 25.0 25.0 25.0 25.0 25.0 25.0 25.0 25.0 25.0 25.0 25.0 25.0 25.0 25.0 25.0 25.0 25.0 25.0 25.0 25.0 25.0 25.0 25.0 25.0 25.0 25.0 25.0 25.0 25.0 25.0 25.0 25.0 25.0 25.0 25.0 25.0 25.0 25.0 25.0 25.0 25.0 25.0 25.0 25.0 25.0 25.0 25.0 25.0 25.0 25.0 25.0 25.0 25.0 25.0 25.0 25.0 25.0 25.0 25.0 25.0 25.0 25.0 25.0 25.0 25.0 25.0 25.0 25.0 25.0 25.0 25.0 25.0 25.0 25.0 25.0 25.0 25.0 25.0 25.0 25.0 25.0 25.0 25.0 25.0 25.0 25.0 25.0 25.0 25.0 25.0 25.0 25.0 25.0 25.0 25.0 25.0 25.0 25.0 25.0 25.0 25.0 25.0 25.0 25.0 25.0 25.0 25.0 25.0 25.0 25.0 25.0 25.021973997436366 25.021973997436366 25.021973997436366 25.043947994872735 25.043947994872735 25.08789598974547 25.1318439846182 25.175791979490935 25.241713971800035 25.30763596410914 25.417505951290973 25.527375938472808 25.681193920527377 25.878959897454678 26.098699871818347 26.45028383080022 26.80186778978209 27.197399743636698 27.592931697491302 27.988463651345906 28.49386559238235 28.91137154367332 29.394799487273392 29.878227430873466 30.29573338216444 30.735213330891778 31.15271928218275 31.65812122321919 32.20747115912837 32.712873100164806 33.306171030946714 33.855520966855885 34.53671488738326 35.21790880791064 35.87712873100165 36.602270646401756 37.34938655923823 38.18439846182018 38.97546236952939 39.810474272111335 40.601538179820544 41.52444607214796 42.40340596960264 43.326313861930046 44.271195751693824 45.23805163889398 46.07306354147592 47.017945431239696 47.94085332356711 48.79783922358543 49.69877311847647 50.62168101080388 51.50064090825856 52.3356528108405 53.170664713422454 54.00567661600439 54.86266251602271 55.74162241347739 56.686504303241165 57.58743819813221 58.48837209302326 59.34535799304157 60.180369895623514 61.23512177256912 62.24592565464201 63.300677531587624 64.3114814136605 65.30031129829702 66.1133492034426 67.10217908807911 68.20087895989745 69.25563083684307 70.28840871635232 71.38710858817066 72.4198864676799 73.40871635231643 74.24372825489837 75.27650613440761 76.28731001648049 77.53982787035342 78.4847097601172 79.82512360373559 81.16553744735396 82.28621131660869 83.3409631935543 84.1979490935726 85.49441494231826 86.76890679362754 87.64786669108221 88.74656656290057 90.24079838857352 90.81212232191906 91.82292620399194 92.61399011170116 93.99835195019227 94.98718183482879 95.66837575535617 96.72312763230178 97.7119575169383 98.32722944515658 99.16224134773852 99.68961728621132 100.48068119392053 101.29371909906611 101.84306903497529 102.59018494781176 103.1615088811573 103.8207288042483 104.41402673503022 104.78758469144846 105.27101263504854 105.7544405786486 106.25984251968504 106.61142647866691 106.89708844533969 107.31459439663065 107.66617835561253 107.88591832997619 108.21552829152171 108.32539827870353 108.34737227613991 108.34737227613991 108.2814502838308 108.10565830433987 107.53433437099432 107.00695843252151 106.14997253250321 105.2929866324849 104.74363669657572 103.5570408350119 102.8978209119209 102.28254898370263 101.40358908624795 100.7663431605933 99.88738326313862 98.78868339132028 98.15143746566564 97.27247756821096 96.52536165537448 95.6464017579198 95.11902581944699 94.59164988097419 93.4490020142831 92.5260941219557 91.86687419886468 90.96594030397362 90.328694378319 89.49368247573705 88.7245925654642 88.19721662699139 87.42812671671855 86.6590368064457 86.06573887566381 85.2087529756455 84.61545504486358 83.4728071781725 82.9454312396997 82.33015931148142 81.49514740889947 80.33052554477202 80.00091558322652 78.79234572422632 78.11115180369896 77.38600988829884 76.8146859549533 76.17744002929867 75.18861014466215 74.55136421900751 73.25489837026186 71.91448452664348 71.38710858817066 70.57407068302508 69.65116279069767 69.01391686504303 68.11298297015199 67.43178904962461 66.70664713422451 65.93755722395166 65.38820728804248 64.68503937007874 64.02581944698773 63.542391503387655 62.839223585423916 62.33382164438748 61.63065372642373 60.86156381615089 59.82878593664164 59.3893059879143 58.83995605200513 58.33455411096869 57.08203625709577 56.818348287859365 56.115180369895626 55.47793444424098 55.01648049807727 54.55502655191357 54.09357260574986 53.763962644204355 53.346456692913385 52.994872733931516 52.48947079289508 52.15986083134957 51.96209485442226 51.7423548800586 51.45669291338582 51.21497894158579 50.86339498260392 50.48983702618568 50.028383080021975 49.544955136421905 49.14942318256729 48.60007324665812 47.98480131843985 47.78703534151254 46.973997436366965 46.57846548251236 46.00714154916682 45.47976561069402 45.04028566196667 44.6227797106757 44.139351767075624 43.787767808093754 43.326313861930046 43.040651895257284 42.60117194652994 42.18366599523897 41.78813404138436 41.41457608496612 41.23878410547519 40.90917414392968 40.55759018494781 40.206006225965936 39.722578282365866 39.26112433620216 38.86559238234756 38.36019044131112 37.96465848745651 37.52517853872917 36.80003662332906 36.404504669474456 35.87712873100165 35.41567478483794 35.0421168284197 34.69053286943783 34.25105292071049 33.943416956601354 33.372093023255815 33.218275041201245 32.75682109503754 32.27339315143747 31.74601721296466 31.196667277055482 30.625343343709943 30.22981138985534 29.900201428309835 29.61453946163706 29.175059512909723 28.581761582127815 28.27412561801868 27.856619666727706 27.592931697491302 27.219373741073063 26.867789782091194 26.648049807727524 26.340413843618386 26.252517853872916 26.23054385643655 26.23054385643655 26.274491851309286 26.318439846182017 26.340413843618386 26.340413843618386 26.29646584874565 26.252517853872916 26.23054385643655 26.208569859000182 26.23054385643655 26.23054385643655 26.23054385643655 26.23054385643655 26.23054385643655 26.23054385643655 26.23054385643655 26.23054385643655 26.23054385643655 26.23054385643655 26.23054385643655 26.23054385643655 26.252517853872916 26.23054385643655 26.23054385643655 26.23054385643655 26.23054385643655 26.23054385643655 26.23054385643655 26.23054385643655 26.23054385643655 26.23054385643655 26.252517853872916 26.23054385643655 26.252517853872916 26.23054385643655 26.23054385643655 26.23054385643655 26.252517853872916 26.252517853872916 26.252517853872916 26.23054385643655 26.252517853872916 26.252517853872916 26.23054385643655 26.23054385643655 26.23054385643655 26.23054385643655 26.23054385643655 26.23054385643655 26.23054385643655 26.23054385643655 26.23054385643655 26.23054385643655 26.23054385643655 26.23054385643655 26.23054385643655 26.23054385643655 26.23054385643655 26.23054385643655 26.23054385643655 26.23054385643655 26.23054385643655 26.23054385643655 26.23054385643655 26.23054385643655 26.23054385643655 26.23054385643655 26.23054385643655 26.23054385643655 26.23054385643655 26.23054385643655 26.23054385643655 26.23054385643655 26.23054385643655 26.23054385643655 26.23054385643655 26.23054385643655 26.23054385643655 26.23054385643655 26.208569859000182 26.23054385643655 26.23054385643655 26.23054385643655 26.23054385643655 26.23054385643655 26.23054385643655 26.23054385643655 26.208569859000182 26.23054385643655 26.208569859000182 26.208569859000182 26.23054385643655 26.208569859000182 26.23054385643655 26.208569859000182 26.23054385643655 26.23054385643655 26.208569859000182 26.208569859000182 26.208569859000182 26.23054385643655 26.23054385643655 26.208569859000182 26.208569859000182 26.23054385643655 26.23054385643655 26.208569859000182 26.23054385643655 26.208569859000182 26.23054385643655 26.208569859000182 26.208569859000182 26.208569859000182 26.208569859000182 26.208569859000182 26.23054385643655 26.23054385643655 26.23054385643655 26.208569859000182 26.208569859000182 26.208569859000182 26.208569859000182 26.208569859000182 26.208569859000182 26.208569859000182 26.208569859000182 26.208569859000182 26.208569859000182 26.208569859000182 26.208569859000182 26.208569859000182 26.208569859000182 26.208569859000182 26.208569859000182 26.208569859000182 26.208569859000182 26.208569859000182 26.208569859000182 26.208569859000182 26.208569859000182 26.208569859000182 26.208569859000182 26.208569859000182 26.208569859000182 26.208569859000182 26.208569859000182 26.208569859000182 26.208569859000182 26.208569859000182 26.208569859000182 26.208569859000182 26.208569859000182 26.208569859000182 26.208569859000182 26.208569859000182 26.208569859000182 26.208569859000182 26.208569859000182 26.208569859000182 26.208569859000182 26.208569859000182 26.208569859000182 26.208569859000182 26.208569859000182 26.208569859000182 26.208569859000182 26.208569859000182 26.208569859000182 26.208569859000182 26.208569859000182 26.208569859000182 26.186595861563816 26.208569859000182 26.186595861563816 26.208569859000182 26.208569859000182 26.208569859000182 26.208569859000182 26.186595861563816 26.208569859000182 26.208569859000182 26.208569859000182 26.208569859000182 26.208569859000182 26.208569859000182 26.186595861563816 26.208569859000182 26.208569859000182 26.208569859000182 26.208569859000182 26.208569859000182 26.208569859000182 26.208569859000182 26.208569859000182 26.208569859000182 26.186595861563816 26.208569859000182 26.186595861563816 26.208569859000182 26.186595861563816 26.208569859000182 26.208569859000182 26.186595861563816 26.208569859000182 26.186595861563816 26.186595861563816 26.186595861563816 26.208569859000182 26.208569859000182 26.208569859000182 26.208569859000182 26.208569859000182 26.208569859000182 26.208569859000182 26.23054385643655 26.252517853872916 26.274491851309286 26.340413843618386 26.38436183849112 26.45028383080022 26.58212781541842 26.713971800036624 26.845815784654825 27.153451748763963 27.373191723127633 27.724775682109502 28.142281633400476 28.49386559238235 29.021241530855153 29.394799487273392 30.22981138985534 30.647317341146312 31.130745284746382 31.81193920527376 32.800769089910276 33.108405054019414 33.83354696941952 34.40487090276506 35.50357077458341 36.07489470792895 36.712140633583594 37.98663248489288 38.97546236952939 39.722578282365866 40.75535616187511 41.50247207471159 42.62314594396631 43.633949826039185 44.3590917414393 45.50173960813038 46.600439479948726 47.3475553927852 48.49020325947629 49.237319172312766 50.336019044131106 51.50064090825856 52.31367881340414 53.478300677531585 54.64292254165903 56.02728438015016 57.191906244277604 58.29060611609595 59.03772202893243 60.224317890496245 61.14722578282366 62.927119575169385 63.89397546236953 65.14649331624244 66.39901117011536 67.29994506500641 68.57443691631569 69.73905878044314 70.57407068302508 71.67277055484342 72.59567844717085 73.54056033693463 74.55136421900751 75.5621681010804 76.4850759934078 76.96850393700788 77.47390587804432 78.37483977293536 79.03405969602638 80.26460355246292 81.1435634499176 81.89067936275407 82.63779527559055 83.23109320637246 83.78044314228164 84.94506500640908 85.6042849295001 86.50521882439114 87.36220472440945 87.95550265519137 88.76854056033693 89.64750045779161 90.24079838857352 91.0538362937191 91.66910822193738 92.41622413477386 93.16334004761033 93.62479399377403 94.43783189891961 94.83336385277421 95.20692180919247 95.73429774766527 96.1078557040835 96.87694561435634 97.40432155282916 97.75590551181102 98.2393334554111 98.7007874015748 98.85460538362938 99.46987731184765 99.77751327595679 100.21699322468413 100.67844717084783 101.18384911188427 101.49148507599341 101.95293902215711 102.28254898370263 102.70005493499359 103.0296648965391 103.38124885552097 103.622962827321 103.8207288042483 104.04046877861198 104.26020875297564 104.37007874015748 104.50192272477568 104.63376670939388 104.76561069401208 104.8315326863212 104.94140267350302 104.94140267350302 104.9633766709394 104.9633766709394 104.94140267350302 104.91942867606666 104.78758469144846 104.63376670939388 104.47994872733932 104.30415674784838 104.10639077092108 103.8207288042483 103.4911188427028 103.1615088811573 102.8978209119209 102.41439296832083 102.17267899652079 101.93096502472075 101.68925105292071 101.33766709393883 101.0300311298297 100.74436916315693 100.28291521699322 99.93133125801135 99.64566929133859 99.29408533235672 98.98644936824758 98.5030214246475 97.99761948361106 97.62406152719282 97.00878959897454 96.32759567844717 95.73429774766527 95.18494781175609 94.52572788866507 94.08624793993773 93.4490020142831 92.96557407068303 92.24043215528292 91.47134224501008 90.65830433986449 89.86724043215528 89.36183849111885 88.68064457059147 88.10932063724593 87.55997070133675 86.70298480131844 85.84599890130013 85.14283098333638 84.3297930781908 83.67057315509979 82.79161325764511 82.08844533968139 81.34132942684491 80.48434352682659 79.89104559604468 78.99011170115364 78.17707379600806 77.36403589086248 76.616919978026 76.11151803698957 75.58414209851676 74.90294817798939 74.39754623695293 73.67240432155283 72.48580845998902 71.95843252151622 71.38710858817066 70.8377586522615 70.24446072147958 69.67313678813403 68.94799487273393 68.33272294451567 67.73942501373375 67.29994506500641 66.70664713422451 65.93755722395166 65.76176524446072 65.25636330342428 64.9047793444424 64.39937740340596 63.89397546236953 63.52041750595129 62.81724958798755 62.44369163156931 62.07013367515107 61.49880974180553 61.08130379051456 60.48800585973265 59.894707928950744 59.27943600073247 58.66416407251419 58.20271012635048 57.74125618018678 57.060062259659404 56.64255630836843 56.09320637245926 55.58780443142282 55.23622047244095 54.77476652627723 54.31331258011353 53.98370261856803 53.566196667277055 53.280534700604285 52.863028749313315 52.44552279802234 52.15986083134957 51.76432887749496 51.23695293902216 51.06116095953122 50.665629005676614 50.379967039003844 49.852591100531036 49.43508514924007 49.237319172312766 48.68796923640359 48.40230726973082 48.07269730818531 47.54532136971251 47.23768540560337 46.754257462003295 46.380699505585056 46.09503753891229 45.69950558505768 45.36989562351218 45.10620765427578 44.77659769273027 44.57883171580296 44.271195751693824 43.96355978758469 43.633949826039185 43.326313861930046 43.128547885002746 42.88683391320271 42.60117194652994 42.38143197216627 41.98590001831167 41.67826405420253 41.45852407983885 41.17286211316609 40.97509613623878 40.68943416956601 40.42574620032961 40.206006225965936 40.030214246475005 39.810474272111335 39.656656290056766 39.39296832082036 39.26112433620216 39.08533235671123 38.97546236952939 38.84361838491119 38.68980040285662 38.55795641823842 38.38216443874748 38.22834645669291 38.14045046694744 37.92071049258378 37.81084050540194 37.7009705182201 37.54715253616554 37.393334554110965 37.261490569492764 37.041750595129095 36.975828602819995 36.822010620765425 36.646218641274494 36.536348654092656 36.360556674601725 36.22871268998352 36.14081670023805 36.00897271561985 35.921076725874386 35.78923274125618 35.74528474638345 35.67936275407435 35.63541475920161 35.59146676432888 35.52554477201978 35.48159677714705 35.43764878227431 35.37172678996521 35.32777879509247 35.28383080021974 35.21790880791064 35.17396081303791 35.08606482329244 35.02014283098333 34.9761948361106 34.88829884636513 34.8443508514924 34.82237685405603 34.7784288591833 34.75645486174693 34.7784288591833 34.7784288591833 34.7784288591833 34.7784288591833 34.7784288591833 34.7784288591833 34.80040285661967 34.80040285661967 34.80040285661967 34.80040285661967 34.80040285661967 34.80040285661967 34.80040285661967 34.7784288591833 34.7784288591833 34.7784288591833 34.7784288591833 34.7784288591833 34.7784288591833 34.75645486174693 34.75645486174693 34.73448086431057 34.73448086431057 34.73448086431057 34.73448086431057 34.7125068668742 34.7125068668742 34.69053286943783 34.66855887200147 34.66855887200147 34.66855887200147 34.62461087712873 34.53671488738326 34.47079289507416 34.40487090276506 34.27302691814686 34.11920893609229 33.96539095403772 33.657754989928584 33.416041018128546 33.240249038637614 33.04248306171031 32.88866507965574 32.66892510529207 32.5151071232375 32.36128914118294 32.185497161692 32.09760117194653 32.00970518220106 31.87786119758286 31.74601721296466 31.614173228346456 31.52627723860099 31.46035524629189 31.35048525911005 31.262589269364586 31.042849295000916 30.976927302691813 30.889031312946347 30.801135323200878 30.735213330891778 30.691265336019043 30.647317341146312 30.625343343709943 30.625343343709943 30.625343343709943 30.625343343709943 30.647317341146312 30.669291338582678 30.669291338582678 30.691265336019043 30.691265336019043 30.713239333455412 30.735213330891778 30.713239333455412 30.735213330891778 30.735213330891778 30.713239333455412 30.691265336019043 30.669291338582678 30.647317341146312 30.647317341146312 30.625343343709943 30.625343343709943 30.625343343709943 30.625343343709943 30.625343343709943 30.625343343709943 30.625343343709943 30.625343343709943 30.625343343709943 30.625343343709943 30.625343343709943 30.625343343709943 30.647317341146312 30.625343343709943 30.647317341146312 30.625343343709943 30.625343343709943 30.625343343709943 30.647317341146312 30.647317341146312 30.647317341146312 30.647317341146312 30.647317341146312 30.647317341146312 30.647317341146312 30.647317341146312 30.647317341146312 30.647317341146312 30.647317341146312 30.647317341146312 30.625343343709943 30.625343343709943 30.647317341146312 30.647317341146312 30.625343343709943 30.647317341146312 30.647317341146312 30.647317341146312 30.647317341146312 30.647317341146312 30.647317341146312 30.625343343709943 30.625343343709943 30.603369346273574 30.603369346273574 30.58139534883721 30.58139534883721 30.559421351400843 30.537447353964474 30.51547335652811 30.493499359091743 30.471525361655374 30.44955136421901 30.42757736678264 30.405603369346274 30.383629371909905 30.405603369346274 30.405603369346274 30.405603369346274 30.405603369346274 30.383629371909905 30.405603369346274 30.405603369346274 30.405603369346274 30.42757736678264 30.405603369346274 30.42757736678264 30.42757736678264 30.44955136421901 30.44955136421901 30.44955136421901 30.44955136421901 30.471525361655374 30.471525361655374 30.493499359091743 30.537447353964474 30.559421351400843 30.58139534883721 30.625343343709943 30.625343343709943 30.669291338582678 30.713239333455412 30.801135323200878 30.889031312946347 30.976927302691813 31.042849295000916 31.174693279619117 31.28456326680095 31.548251236037355 31.767991210401025 32.00970518220106 32.16352316425563 32.36128914118294 32.55905511811024 32.95458707196484 33.218275041201245 33.61380699505585 34.03131294634682 34.33894891045596 34.82237685405603 35.15198681560154 35.70133675151071 36.14081670023805 36.536348654092656 37.063724592565464 37.67899652078374 38.14045046694744 39.06335835927486 39.8324482695477 40.447720197765975 40.99707013367515 41.56839406702069 42.2276139901117 43.282365867057315 43.831715802966485 44.6887017029848 45.28199963376671 46.16095953122139 46.973997436366965 47.58926936458524 48.33638527742171 49.105475187694566 49.69877311847647 50.533785021058414 51.10510895440396 51.98406885185864 52.863028749313315 53.61014466214979 54.35726057498627 55.58780443142282 56.02728438015016 56.664530305804796 57.49954220838674 58.24665812122322 58.77403405969603 59.367331990477936 60.26826588536898 60.99340780076909 61.54275773667826 62.22395165720564 62.72935359824208 63.52041750595129 64.13568943416956 64.83885735213332 65.65189525727888 66.20124519318806 66.94836110602454 67.78337300860647 68.31074894707929 69.1018128547885 69.8269547701886 70.44222669840688 71.07947262406154 71.56290056766161 72.44186046511629 73.07910639077092 73.4966123420619 74.06793627540745 74.59531221388025 74.99084416773485 75.51822010620765 75.86980406518953 76.39718000366233 76.8806079472624 77.23219190624428 77.67167185497162 78.0891778062626 78.37483977293536 78.77037172678996 79.05603369346274 79.42959164988098 79.95696758835379 80.22065555759019 80.61618751144479 80.87987548068119 81.1435634499176 81.49514740889947 81.75883537813587 82.24226332173595 82.57187328328145 82.8135872550815 83.12122321919063 83.4728071781725 83.64859915766343 84.04413111151804 84.30781908075444 84.68137703717268 85.03296099615454 85.29664896539094 85.71415491668193 86.41732283464567 86.63706280900934 86.96667277055485 87.27430873466398 87.55997070133675 87.86760666544589 88.10932063724593 88.57077458340964 88.94433253982787 89.03222852957333 89.36183849111885 89.58157846548252 89.93316242446438 90.37264237319172 90.63633034242812 90.96594030397362 91.2516022706464 91.49331624244644 91.88884819630104 92.13056216810108 92.46017212964658 92.76780809375572 92.9875480681194 93.33913202710126 93.55887200146493 93.97637795275591 94.17414392968321 94.39388390404687 94.70151986815601 95.00915583226515 95.22889580662883 95.55850576817433 95.88811572971983 96.06390770921077 96.3056216810108 96.437465665629 96.67917963742904 96.74510162973814 96.87694561435634 96.96484160410182 97.05273759384728 97.09668558872002 97.20655557590185 97.27247756821096 97.36037355795642 97.40432155282916 97.44826954770188 97.49221754257462 97.49221754257462 97.49221754257462 97.49221754257462 97.49221754257462 97.47024354513825 97.29445156564732 97.16260758102912 97.0307635964109 96.85497161691998 96.48141366050174 96.26167368613807 96.0419337117744 95.58047976561069 95.20692180919247 94.94323383995605 94.56967588353781 94.15216993224685 93.82255997070133 93.29518403222853 92.83373008606483 92.43819813221022 91.86687419886468 91.40542025270096 90.7242263321736 90.10895440395532 89.71342245010072 89.12012451931881 88.7245925654642 88.08734663980957 87.60391869620949 86.6590368064457 85.97784288591834 85.49441494231826 84.96703900384546 84.37374107306354 83.91228712689984 83.03332722944516 82.59384728071782 81.95660135506317 81.34132942684491 80.83592748580847 80.06683757553562 79.51748763962644 79.09998168833548 78.66050173960812 78.24299578831716 77.67167185497162 77.03442592931697 76.3532320087896 75.65006409082585 75.12268815235305 74.68320820362571 73.91411829335286 73.3647683574437 72.46383446255265 71.82658853689802 71.34316059329794 70.68394067020692 70.15656473173412 69.71708478300678 68.72825489837027 68.22285295733383 67.51968503937007 66.86046511627907 66.377037172679 65.73979124702436 64.99267533418788 64.42135140084233 63.718183482878594 63.190807544405786 62.42171763413294 61.6526277238601 60.99340780076909 59.894707928950744 59.4552279802234 58.97180003662333 58.24665812122322 58.00494414942318 57.038088262223035 56.049258377586526 55.78557040835012 55.03845449551364 54.335286577549894 53.763962644204355 53.192638710858816 52.31367881340414 51.96209485442226 51.50064090825856 51.03918696209485 50.445889031312944 50.028383080021975 49.25929316974913 48.92968320820363 48.55612525178539 48.09467130562168 47.63321735945797 47.3475553927852 47.039919428676065 46.64438747482146 46.402673503021425 45.96319355429409 45.74345357993042 45.36989562351218 44.97436366965757 44.71067570042116 44.31514374656656 44.073429774766524 43.765793810657385 43.238417872184584 42.95275590551181 42.57919794909357 42.18366599523897 41.89800402856619 41.39260208752975 41.04101812854789 40.535616187511444 39.986266251602274 39.590734297747666 39.08533235671123 38.42611243362022 37.96465848745651 37.61307452847464 37.393334554110965 37.15162058231093 36.975828602819995 36.778062625892694 36.492400659219925 36.272660684856255 36.14081670023805 35.921076725874386 35.76725874381981 35.52554477201978 35.34975279252884 35.13001281816517 34.9102728438015 34.66855887200147 34.49276689251053 34.16315693096502 33.98736495147409 33.81157297198315 33.591832997619484 33.306171030946714 32.998535066837576 32.712873100164806 32.49313312580114 32.20747115912837 32.03167917963743 31.78996520783739 31.702069218091925 31.59219923091009 31.35048525911005 31.174693279619117 31.064823292437282 30.889031312946347 30.713239333455412 30.405603369346274 29.9880974180553 29.724409448818896 29.284929500091557 28.955319538546053 28.53781358725508 28.12030763596411 27.87859366416407 27.461087712873102 27.285295733382164 27.10950375389123 26.88976377952756 26.73594579747299 26.494231825672955 26.29646584874565 26.252517853872916 26.23054385643655 26.252517853872916 26.252517853872916 26.252517853872916 26.252517853872916 26.23054385643655 26.23054385643655 26.23054385643655 26.23054385643655 26.23054385643655 26.208569859000182 26.208569859000182 26.208569859000182 26.208569859000182 26.208569859000182 26.208569859000182 26.208569859000182 26.208569859000182 26.208569859000182 26.23054385643655 26.208569859000182 26.208569859000182 26.208569859000182 26.208569859000182 26.208569859000182 26.208569859000182 26.208569859000182 26.208569859000182 26.208569859000182 26.208569859000182 26.208569859000182 26.208569859000182 26.208569859000182 26.208569859000182 26.208569859000182 26.208569859000182 26.208569859000182 26.208569859000182 26.208569859000182 26.208569859000182 26.208569859000182 26.208569859000182 26.208569859000182 26.208569859000182 26.208569859000182 26.208569859000182 26.208569859000182 26.186595861563816 26.208569859000182 26.186595861563816 26.208569859000182 26.208569859000182 26.208569859000182 26.208569859000182 26.186595861563816 26.186595861563816 26.208569859000182 26.186595861563816 26.186595861563816 26.208569859000182 26.208569859000182 26.208569859000182 26.208569859000182 26.208569859000182 26.186595861563816 26.208569859000182 26.186595861563816 26.186595861563816 26.186595861563816 26.186595861563816 26.186595861563816 26.186595861563816 26.186595861563816 26.186595861563816 26.186595861563816 26.186595861563816 26.186595861563816 26.186595861563816 26.186595861563816 26.186595861563816 26.186595861563816 26.186595861563816 26.186595861563816 26.164621864127447 26.186595861563816 26.186595861563816 26.186595861563816 26.186595861563816 26.186595861563816 26.186595861563816 26.186595861563816 26.186595861563816 26.186595861563816 26.186595861563816 26.186595861563816 26.186595861563816 26.186595861563816 26.186595861563816 26.186595861563816 26.186595861563816 26.186595861563816 26.186595861563816 26.164621864127447 26.186595861563816 26.164621864127447 26.186595861563816 26.186595861563816 26.164621864127447 26.186595861563816 26.186595861563816 26.186595861563816 26.186595861563816 26.186595861563816 26.186595861563816 26.164621864127447 26.186595861563816 26.164621864127447 26.164621864127447 26.164621864127447 26.164621864127447 26.164621864127447 26.164621864127447 26.164621864127447 26.164621864127447 26.164621864127447 26.164621864127447 26.164621864127447 26.164621864127447 26.164621864127447 26.164621864127447 26.164621864127447 26.14264786669108 26.164621864127447 26.14264786669108 26.164621864127447 26.164621864127447 26.164621864127447 26.164621864127447 26.164621864127447 26.164621864127447 26.164621864127447 26.164621864127447 26.14264786669108 26.164621864127447 26.14264786669108 26.164621864127447 26.164621864127447 26.164621864127447 26.164621864127447 26.14264786669108 26.14264786669108 26.14264786669108 26.14264786669108 26.164621864127447 26.14264786669108 26.14264786669108 26.164621864127447 26.164621864127447 26.14264786669108 26.164621864127447 26.164621864127447 26.164621864127447 26.14264786669108 26.164621864127447 26.14264786669108 26.164621864127447 26.14264786669108 26.14264786669108 26.14264786669108 26.164621864127447 26.164621864127447 26.14264786669108 26.14264786669108 26.14264786669108 26.164621864127447 26.14264786669108 26.164621864127447 26.14264786669108 26.164621864127447 26.14264786669108 26.14264786669108 26.14264786669108 26.14264786669108 26.14264786669108 26.14264786669108 26.14264786669108 26.14264786669108 26.164621864127447 26.14264786669108 26.14264786669108 26.14264786669108 26.14264786669108 26.14264786669108 26.14264786669108 26.14264786669108 26.14264786669108 26.14264786669108 26.14264786669108 26.14264786669108 26.14264786669108 26.14264786669108 26.14264786669108 26.14264786669108 26.14264786669108 26.14264786669108 26.14264786669108 26.14264786669108 26.14264786669108 26.164621864127447 26.164621864127447 26.164621864127447 26.164621864127447 26.164621864127447 26.164621864127447 26.164621864127447 26.164621864127447 26.164621864127447 26.186595861563816 26.186595861563816 26.208569859000182 26.23054385643655 26.252517853872916 26.274491851309286 26.29646584874565 26.340413843618386 26.340413843618386 26.406335835927486 26.472257828236586 26.51620582310932 26.58212781541842 26.713971800036624 27.087529756454863 27.285295733382164 27.724775682109502 28.16425563083684 28.64768357443692 29.944149423182566 30.097967405237135 30.691265336019043 31.28456326680095 31.89983519501923 33.020509064273945 33.67972898736495 34.31697491301959 35.08606482329244 36.250686687419886 36.909906610510895 37.54715253616554 38.18439846182018 39.26112433620216 40.27192821827504 40.82127815418421 41.70023805163889 42.40340596960264 42.864859915766345 44.007507782457424 44.57883171580296 45.43581761582128 46.490569492766895 46.820179454312395 47.54532136971251 48.27046328511261 48.90770921076726 49.654825123603736 50.226149056949275 50.99523896722212 51.8082768723677 52.66526277238601 53.566196667277055 54.137520600622594 54.77476652627723 55.71964841604102 56.7304522981139 57.609412195568574 58.81798205456876 59.14759201611427 60.290239882805345 60.88353781358725 61.45486174693279 62.15802966489654 62.707379600805716 63.498443508514924 64.2455594213514 64.9047793444424 65.62992125984252 66.46493316242447 67.01428309833364 67.84929500091559 68.44259293169749 69.25563083684307 70.13459073429775 71.05749862662516 72.22212049075262 72.8373924189709 73.45266434718917 74.06793627540745 74.70518220106207 75.71598608313496 76.52902398828054 77.0783739241897 77.86943783189892 78.39681377037172 78.96813770371728 79.80314960629921 80.44039553195387 81.03369346273576 81.93462735762681 82.19831532686322 82.85753524995422 83.29701519868156 83.91228712689984 84.48361106024538 84.90111701153634 85.51638893975462 86.06573887566381 86.54916681926387 87.25233473722761 87.66984068851858 88.17524262955503 88.48287859366417 89.01025453213697 89.49368247573705 89.99908441677348 90.328694378319 90.81212232191906 91.16370628090094 91.69108221937374 92.15253616553744 92.48214612708296 92.96557407068303 93.40505401941037 93.66874198864677 94.04229994506501 94.28401391686505 94.59164988097419 94.89928584508333 95.07507782457425 95.27284380150155 95.5145577733016 95.69034975279253 95.778245742538 95.82219373741073 95.82219373741073 95.82219373741073 95.82219373741073 95.75627174510163 95.66837575535617 95.44863578099249 95.25086980406519 95.03112982970153 94.76744186046513 94.52572788866507 94.32796191173779 94.13019593481047 93.97637795275591 93.84453396813771 93.71268998351951 93.60281999633767 93.4490020142831 93.2512360373558 93.09741805530123 92.83373008606483 92.61399011170116 92.15253616553744 91.80095220655558 91.53726423731918 91.1197582860282 90.7901483244827 90.35066837575536 89.95513642190075 89.60355246291888 89.22999450650065 88.81248855520967 88.50485259110053 87.86760666544589 87.55997070133675 87.23036073979125 86.63706280900934 86.19758286028201 85.6042849295001 84.76927302691814 84.1320271012635 83.75846914484526 83.36293719099066 83.01135323200879 82.48397729353599 82.13239333455411 81.53909540377221 80.96777147042667 80.55026551913569 79.95696758835379 79.29774766526278 79.05603369346274 78.19904779344444 77.58377586522616 77.05639992675334 76.30928401391687 75.80388207288043 75.01281816517121 74.00201428309833 73.38674235488006 72.85936641640725 72.26606848562534 71.69474455227981 70.9696026368797 70.46420069584326 69.71708478300678 69.32155282915217 68.88207288042483 68.33272294451567 67.87126899835195 67.23402307269731 66.377037172679 65.8496612342062 65.27833730086064 64.81688335469694 64.15766343160593 63.498443508514924 62.927119575169385 62.22395165720564 61.586705731551 61.05932979307819 60.290239882805345 59.740889946896175 58.97180003662333 58.15876213147775 57.323750228895804 56.752426295550265 55.96136238784105 55.36806445705915 54.5330525544772 53.61014466214979 52.928950741622415 52.09393883904047 51.45669291338582 50.204175059512906 49.237319172312766 48.44625526460355 47.80900933894891 47.30360739791247 46.688335469694195 46.182933528657756 45.78740157480315 45.28199963376671 45.0842336568394 44.86449368247574 44.57883171580296 44.38106573887566 44.11737776963926 43.87566379783922 43.633949826039185 43.282365867057315 43.062625892693646 42.68906793627541 42.35945797472991 42.0957700054935 41.56839406702069 41.084966123420614 40.77733015931148 40.206006225965936 39.612708295184035 39.08533235671123 38.64585240798389 38.22834645669291 37.61307452847464 37.041750595129095 36.58029664896539 36.09686870536532 35.72331074894708 35.23988280534701 34.60263687969236 34.29500091558323 33.98736495147409 33.635780992492215 33.39406702069218 33.064457059146676 32.778795092473906 32.53708112067387 32.2514191540011 32.03167917963743 31.81193920527376 31.65812122321919 31.37245925654642 31.130745284746382 30.911005310382713 30.603369346273574 30.29573338216444 30.097967405237135 29.724409448818896 29.504669474455227 29.306903497527927 29.043215528291523 28.84544955136422 28.55978758469145 28.25215162058231 27.944515656473172 27.636879692364037 27.417139718000367 27.241347738509432 27.087529756454863 26.97765976927303 26.82384178721846 26.757919794909355 26.73594579747299 26.757919794909355 26.779893792345725 26.779893792345725 26.82384178721846 26.845815784654825 26.88976377952756 26.911737776963925 26.933711774400294 26.933711774400294 26.911737776963925 26.911737776963925 26.845815784654825 26.82384178721846 26.779893792345725 26.713971800036624 26.67002380516389 26.60410181285479 26.60410181285479 26.58212781541842 26.60410181285479 26.60410181285479 26.626075810291155 26.626075810291155 26.648049807727524 26.648049807727524 26.67002380516389 26.67002380516389 26.67002380516389 26.67002380516389 26.67002380516389 26.67002380516389 26.67002380516389 26.67002380516389 26.67002380516389 26.648049807727524 26.648049807727524 26.648049807727524 26.648049807727524 26.648049807727524 26.648049807727524 26.648049807727524 26.626075810291155 26.626075810291155 26.626075810291155 26.626075810291155 26.626075810291155 26.648049807727524 26.648049807727524 26.648049807727524 26.648049807727524 26.648049807727524 26.648049807727524 26.626075810291155 26.626075810291155 26.626075810291155 26.60410181285479 26.58212781541842 26.560153817982055 26.560153817982055 26.560153817982055 26.560153817982055 26.58212781541842 26.58212781541842 26.58212781541842 26.58212781541842 26.58212781541842 26.58212781541842 26.60410181285479 26.58212781541842 26.60410181285479 26.58212781541842 26.58212781541842 26.58212781541842 26.58212781541842 26.58212781541842 26.58212781541842 26.58212781541842 26.58212781541842 26.58212781541842 26.58212781541842 26.560153817982055 26.560153817982055 26.560153817982055 26.560153817982055 26.560153817982055 26.560153817982055 26.560153817982055 26.560153817982055 26.560153817982055 26.560153817982055 26.560153817982055 26.560153817982055 26.560153817982055 26.560153817982055 26.560153817982055 26.560153817982055 26.560153817982055 26.560153817982055 26.560153817982055 26.560153817982055 26.560153817982055 26.560153817982055 26.560153817982055 26.560153817982055 26.560153817982055 26.538179820545686 26.538179820545686 26.538179820545686 26.538179820545686 26.538179820545686 26.538179820545686 26.538179820545686 26.538179820545686 26.538179820545686 26.538179820545686 26.538179820545686 26.538179820545686 26.538179820545686 26.538179820545686 26.538179820545686 26.538179820545686 26.538179820545686 26.538179820545686 26.538179820545686 26.538179820545686 26.538179820545686 26.538179820545686 26.538179820545686 26.51620582310932 26.538179820545686 26.51620582310932 26.51620582310932 26.51620582310932 26.51620582310932 26.51620582310932 26.51620582310932 26.51620582310932 26.51620582310932 26.51620582310932 26.51620582310932 26.51620582310932 26.51620582310932 26.51620582310932 26.51620582310932 26.51620582310932 26.51620582310932 26.51620582310932 26.51620582310932 26.494231825672955 26.51620582310932 26.51620582310932 26.51620582310932 26.51620582310932 26.51620582310932 26.51620582310932 26.51620582310932 26.494231825672955 26.494231825672955 26.494231825672955 26.494231825672955 26.494231825672955 26.494231825672955 26.494231825672955 26.494231825672955 26.494231825672955 26.494231825672955 26.494231825672955 26.472257828236586 26.494231825672955 26.494231825672955 26.494231825672955 26.494231825672955 26.494231825672955 26.494231825672955 26.51620582310932 26.51620582310932 26.51620582310932 26.494231825672955 26.494231825672955 26.51620582310932 26.494231825672955 26.494231825672955 26.494231825672955 26.494231825672955 26.494231825672955 26.494231825672955 26.494231825672955 26.494231825672955 26.494231825672955 26.494231825672955 26.472257828236586 26.494231825672955 26.494231825672955 26.494231825672955 26.494231825672955 26.494231825672955 26.472257828236586 26.494231825672955 26.472257828236586 26.494231825672955 26.494231825672955 26.494231825672955 26.494231825672955 26.494231825672955 26.494231825672955 26.494231825672955 26.494231825672955 26.51620582310932 26.51620582310932 26.538179820545686 26.58212781541842 26.648049807727524 26.73594579747299 26.95568577183666 27.04358176158213 27.307269730818533 27.505035707745833 27.834645669291337 28.208203625709576 28.47189159494598 29.021241530855153 29.306903497527927 29.63651345907343 30.119941402673504 30.51547335652811 31.064823292437282 31.855887200146494 32.29536714887384 32.91063907709211 33.416041018128546 34.22907892327412 34.9761948361106 35.34975279252884 36.00897271561985 36.822010620765425 37.3713605566746 38.22834645669291 39.01941036440212 39.590734297747666 40.42574620032961 40.97509613623878 41.76616004394799 42.60117194652994 43.128547885002746 43.91961179271196 44.7546236952939 45.21607764145761 45.985167551730456 46.51254349020326 47.56729536714887 48.42428126716719 48.97363120307636 49.83061710309467 50.68760300311298 51.28090093389489 52.18183482878594 52.81908075444058 53.698040651895255 54.62094854422267 55.28016846731368 56.20307635964109 57.14795824940487 57.78520417505951 58.66416407251419 59.3233839956052 60.53195385460538 61.45486174693279 62.24592565464201 62.993041567478485 63.52041750595129 64.20161142647866 65.10254532136972 65.73979124702436 66.92638710858817 67.82732100347921 68.50851492400659 69.3655008240249 70.02472074711591 70.68394067020692 71.82658853689802 72.61765244460722 73.27687236769822 74.11188427028017 74.70518220106207 75.73796008057133 76.24336202160777 76.77073796008057 77.36403589086248 77.84746383446256 78.46273576268084 79.34169566013551 79.89104559604468 80.46236952939023 80.90184947811755 81.34132942684491 81.86870536531771 82.26423731917231 82.9454312396997 83.42885918329976 83.78044314228164 84.2638710858817 84.61545504486358 85.09888298846366 85.62625892693646 86.06573887566381 86.48324482695477 87.20838674235489 87.62589269364585 88.02142464750045 88.43893059879144 89.14209851675518 89.64750045779161 90.02105841420986 90.43856436550082 90.98791430141 91.36147225782824 92.02069218091924 92.32832814502838 92.70188610144663 92.96557407068303 93.22926203991943 93.62479399377403 93.88848196301043 94.06427394250137 94.24006592199231 94.34993590917415 94.43783189891961 94.50375389122871 94.50375389122871 94.50375389122871 94.50375389122871 94.50375389122871 94.37190990661051 94.21809192455594 93.88848196301043 93.62479399377403 93.42702801684673 93.16334004761033 92.89965207837392 92.46017212964658 92.06464017579198 91.62516022706464 91.14173228346456 90.83409631935542 90.50448635780992 89.91118842702802 89.60355246291888 89.16407251419155 88.74656656290057 88.39498260391869 87.97747665262773 87.51602270646401 87.12049075260941 86.54916681926387 86.10968687053654 85.49441494231826 84.68137703717268 84.43966306537266 83.82439113715438 83.09924922175426 82.50595129097235 81.95660135506317 81.18751144479035 80.50631752426295 79.73722761399011 79.23182567295368 78.50668375755356 77.71561984984436 77.21021790880792 76.46310199597144 75.91375206006227 75.16663614722579 74.41952023438931 73.8921442959165 72.92528840871636 72.39791247024354 71.95843252151622 70.92565464200696 70.24446072147958 69.80498077275224 69.01391686504303 68.55246291887933 67.91521699322467 67.34389305987915 66.83849111884271 66.377037172679 65.89360922907892 65.08057132393334 64.5092473905878 64.09174143929684 63.542391503387655 63.16883354696942 62.839223585423916 62.18000366233291 61.80644570591467 61.30104376487823 60.77366782640542 60.422083867423545 59.960629921259844 59.499175975096136 59.191540010987 58.81798205456876 58.53232008789599 58.13678813404138 57.78520417505951 57.36769822376854 56.972166269913934 56.664530305804796 56.29097234938656 56.02728438015016 55.74162241347739 55.32411646218641 54.84068851858634 54.5330525544772 54.11554660318623 53.829884636513455 53.52224867240432 52.994872733931516 52.68723676982238 52.2697308185314 51.8741988646768 51.58853689800403 51.19300494414942 50.90734297747665 50.35799304156748 50.160227064640175 49.91851309284014 49.588903131294636 49.25929316974913 49.06152719282183 48.64402124153085 48.40230726973082 48.16059329793078 47.96282732100348 47.74308734663981 47.3475553927852 47.083867423548796 46.908075444057864 46.64438747482146 46.490569492766895 46.22688152353049 45.985167551730456 45.76542757736678 45.43581761582128 45.0842336568394 44.820545687603 44.44698773118476 44.16132576451199 43.67789782091192 43.282365867057315 42.97472990294818 42.62314594396631 42.27156198498443 41.94195202343893 41.63431605932979 41.43655008240249 41.15088811572972 40.93114814136605 40.79930415674785 40.645486174693275 40.49166819263871 40.27192821827504 40.030214246475005 39.854422266984066 39.48086431056583 39.305072331074896 39.107306354147596 38.84361838491119 38.64585240798389 38.42611243362022 38.09650247207471 37.94268449002014 37.78886650796557 37.48123054385644 37.3054385643655 37.15162058231093 37.019776597692726 36.778062625892694 36.602270646401756 36.470426661783556 36.294634682292624 36.184764695110786 36.052920710492586 35.83318073612892 35.70133675151071 35.50357077458341 35.26185680278337 35.10803882072881 34.88829884636513 34.75645486174693 34.53671488738326 34.36092290789233 34.18513092840139 33.943416956601354 33.657754989928584 33.350119025819446 32.932613074528476 32.66892510529207 32.4491851309284 32.20747115912837 32.03167917963743 31.72404321552829 31.614173228346456 31.52627723860099 31.394433253982786 31.30653726423732 31.28456326680095 31.196667277055482 31.08679728987365 30.911005310382713 30.757187328328143 30.669291338582678 30.559421351400843 30.42757736678264 30.36165537447354 30.29573338216444 30.22981138985534 30.119941402673504 30.07599340780077 30.010071415491666 29.900201428309835 29.8562534334371 29.812305438564366 29.76835744369163 29.746383446255265 29.724409448818896 29.70243545138253 29.70243545138253 29.70243545138253 29.724409448818896 29.70243545138253 29.724409448818896 29.724409448818896 29.724409448818896 29.724409448818896 29.724409448818896 29.724409448818896 29.724409448818896 29.70243545138253 29.680461453946165 29.680461453946165 29.658487456509796 29.63651345907343 29.61453946163706 29.592565464200696 29.592565464200696 29.570591466764327 29.570591466764327 29.570591466764327 29.570591466764327 29.570591466764327 29.570591466764327 29.570591466764327 29.570591466764327 29.570591466764327 29.570591466764327 29.570591466764327 29.570591466764327 29.570591466764327 29.570591466764327 29.570591466764327 29.570591466764327 29.570591466764327 29.570591466764327 29.54861746932796 29.54861746932796 29.570591466764327 29.570591466764327 29.570591466764327 29.570591466764327 29.570591466764327 29.54861746932796 29.54861746932796 29.526643471891596 29.526643471891596 29.504669474455227 29.48269547701886 29.48269547701886 29.460721479582496 29.438747482146127 29.41677348470976 29.41677348470976 29.41677348470976 29.394799487273392 29.372825489837027 29.372825489837027 29.350851492400658 29.350851492400658 29.350851492400658 29.328877494964292 29.328877494964292 29.328877494964292 29.306903497527927 29.306903497527927 29.306903497527927 29.306903497527927 29.306903497527927 29.284929500091557 29.262955502655192 29.240981505218826 29.219007507782457 29.175059512909723 29.131111518036988 29.087163523164257 29.043215528291523 29.021241530855153 28.999267533418788 28.97729353598242 28.955319538546053 28.933345541109688 28.91137154367332 28.889397546236953 28.867423548800588 28.867423548800588 28.84544955136422 28.823475553927853 28.823475553927853 28.823475553927853 28.801501556491484 28.801501556491484 28.77952755905512 28.75755356161875 28.77952755905512 28.75755356161875 28.75755356161875 28.735579564182384 28.735579564182384 28.71360556674602 28.71360556674602 28.69163156930965 28.669657571873284 28.64768357443692 28.64768357443692 28.62570957700055 28.603735579564184 28.603735579564184 28.603735579564184 28.581761582127815 28.55978758469145 28.53781358725508 28.515839589818714 28.49386559238235 28.47189159494598 28.47189159494598 28.47189159494598 28.449917597509614 28.449917597509614 28.449917597509614 28.427943600073245 28.427943600073245 28.427943600073245 28.40596960263688 28.40596960263688 28.38399560520051 28.362021607764145 28.34004761032778 28.31807361289141 28.296099615455045 28.296099615455045 28.27412561801868 28.25215162058231 28.25215162058231 28.25215162058231 28.25215162058231 28.230177623145945 28.230177623145945 28.208203625709576 28.208203625709576 28.208203625709576 28.18622962827321 28.16425563083684 28.142281633400476 28.09833363852774 28.076359641091376 28.05438564365501 28.03241164621864 28.03241164621864 28.03241164621864 28.03241164621864 28.010437648782275 28.010437648782275 28.010437648782275 27.988463651345906 27.988463651345906 28.010437648782275 28.010437648782275 28.010437648782275 28.010437648782275 28.010437648782275 28.010437648782275 28.010437648782275 28.010437648782275 28.010437648782275 28.010437648782275 28.03241164621864 28.03241164621864 28.05438564365501 28.076359641091376 28.09833363852774 28.12030763596411 28.142281633400476 28.16425563083684 28.16425563083684 28.18622962827321 28.18622962827321 28.208203625709576 28.208203625709576 28.208203625709576 28.230177623145945 28.230177623145945 28.230177623145945 28.208203625709576 28.208203625709576 28.208203625709576 28.18622962827321 28.18622962827321 28.16425563083684 28.16425563083684 28.16425563083684 28.16425563083684 28.16425563083684 28.16425563083684 28.25215162058231 28.31807361289141 28.603735579564184 28.801501556491484 28.97729353598242 29.262955502655192 29.460721479582496 29.790331441127996 30.273759384728073 30.36165537447354 30.669291338582678 30.86705731550998 31.042849295000916 31.57022523347372 31.855887200146494 32.1195751693829 32.49313312580114 32.800769089910276 33.350119025819446 33.877494964292254 34.36092290789233 34.95422083867423 35.39370078740157 36.07489470792895 36.80003662332906 37.3054385643655 38.16242446438381 38.75572239516572 39.19520234389306 39.7006042849295 40.33785021058414 40.99707013367515 41.61234206189343 42.05182201062077 42.68906793627541 43.150521882439115 43.787767808093754 44.44698773118476 44.90844167734847 45.74345357993042 46.13898553378502 46.57846548251236 47.23768540560337 47.65519135689434 48.29243728254899 48.92968320820363 49.39113715436733 50.028383080021975 50.90734297747665 51.36879692364036 51.85222486724043 52.2697308185314 53.01684673136788 53.80791063907709 54.071598608313494 54.92858450833181 55.56583043398645 56.02728438015016 56.686504303241165 57.125984251968504 57.58743819813221 58.44442409815052 58.8619300494415 59.47720197765977 60.136421900750776 60.61984984435085 61.41091375206006 61.9163156930965 62.39974363669658 62.971067570042116 63.696209485442225 64.1137154367332 64.99267533418788 65.47610327778796 66.15729719831532 66.81651712140633 67.65152902398827 67.84929500091559 68.35469694195203 69.34352682658854 70.09064273942502 70.59604468046146 71.2992125984252 71.7606665445889 72.39791247024354 73.03515839589818 73.47463834462553 74.04596227797106 74.63926020875297 75.03479216260759 75.60611609595313 76.17744002929867 76.7487639626442 77.10034792162608 77.49587987548068 78.06720380882624 78.6824757370445 79.16590368064458 79.69327961911739 80.15473356528108 80.59421351400843 80.92382347555393 81.31935542940855 81.84673136788135 82.35213330891779 82.85753524995422 83.36293719099066 83.7364951474089 84.21992309100898 84.61545504486358 84.96703900384546 85.42849295000916 85.82402490386376 86.17560886284564 86.57114081670024 86.85680278337301 87.34023072697309 87.60391869620949 87.82365867057317 88.17524262955503 88.52682658853689 88.7905145577733 89.25196850393701 89.58157846548252 89.97711041933712 90.30672038088262 90.94396630653726 91.27357626808276 91.62516022706464 92.06464017579198 92.57004211682842 92.87767808093756 93.4490020142831 93.66874198864677 93.93242995788317 94.21809192455594 94.45980589635599 94.67954587071965 94.96520783739241 95.07507782457425 95.20692180919247 95.33876579381067 95.40468778611975 95.47060977842887 95.49258377586523 95.53653177073797 95.53653177073797 95.53653177073797 95.53653177073797 95.53653177073797 95.53653177073797 95.47060977842887 95.38271378868339 95.25086980406519 94.98718183482879 94.78941585790149 94.48177989379235 94.10822193737411 93.86650796557407 93.4490020142831 93.03149606299212 92.61399011170116 91.82292620399194 91.42739425013734 90.8560703167918 90.43856436550082 90.04303241164622 89.47170847830067 88.90038454495513 88.35103460904597 87.86760666544589 87.47207471159129 87.07654275773669 86.81285478850029 86.32942684490021 85.91192089360922 85.56033693462736 85.09888298846366 84.2638710858817 84.17597509613624 83.53872917048159 83.16517121406336 82.79161325764511 81.97857535249955 81.75883537813587 81.09961545504487 80.44039553195387 79.71525361655375 79.03405969602638 78.57260574986266 77.89141182933528 77.29811389855337 76.85863394982604 76.13349203442593 75.49624610877129 75.01281816517121 74.39754623695293 73.93609229078925 73.21095037538913 72.44186046511629 71.93645852407984 71.14539461637062 70.35433070866142 69.65116279069767 69.01391686504303 68.46456692913387 67.38784105475187 66.81651712140633 66.33308917780627 65.65189525727888 64.94872733931514 64.48727339315144 63.564365500824024 63.080937557223955 62.44369163156931 61.93828969053287 61.45486174693279 60.86156381615089 60.46603186229628 59.894707928950744 59.27943600073247 58.88390404687786 58.35652810840505 57.74125618018678 57.30177623145944 56.64255630836843 56.15912836476836 55.41201245193188 54.68687053653177 54.203442592931694 53.54422266984069 52.863028749313315 52.291704815967776 51.65445889031313 51.17103094671306 50.42391503387658 49.83061710309467 49.105475187694566 48.35835927485809 47.74308734663981 47.083867423548796 46.02911554660319 45.43581761582128 44.6227797106757 43.74381981322102 43.238417872184584 42.51327595678447 41.87603003112983 41.34865409265702 40.645486174693275 40.27192821827504 39.942318256729536 39.5028383080022 39.26112433620216 39.06335835927486 38.75572239516572 38.51400842336568 38.22834645669291 37.89873649514741 37.5691265336019 37.2395165720564 37.019776597692726 36.668192638710856 36.338582677165356 36.118842702801686 35.76725874381981 35.56949276689251 35.28383080021974 34.99816883354697 34.80040285661967 34.40487090276506 34.18513092840139 33.98736495147409 33.67972898736495 33.503937007874015 33.240249038637614 32.97656106940121 32.82274308734664 32.62497711041934 32.49313312580114 32.3832631386193 32.20747115912837 32.09760117194653 31.78996520783739 31.548251236037355 31.328511261673686 31.042849295000916 30.823109320637247 30.559421351400843 30.29573338216444 30.010071415491666 29.76835744369163 29.61453946163706 29.460721479582496 29.219007507782457 28.933345541109688 28.823475553927853 28.603735579564184 28.449917597509614 28.230177623145945 28.076359641091376 27.944515656473172 27.724775682109502 27.592931697491302 27.483061710309467 27.329243728254898 27.17542574620033 27.065555759018494 26.911737776963925 26.82384178721846 26.73594579747299 26.691997802600255 26.691997802600255 26.713971800036624 26.73594579747299 26.757919794909355 26.73594579747299 26.73594579747299 26.713971800036624 26.691997802600255 26.691997802600255 26.713971800036624 26.713971800036624 26.691997802600255 26.691997802600255 26.691997802600255 26.691997802600255 26.691997802600255 26.691997802600255 26.691997802600255 26.691997802600255 26.67002380516389 26.691997802600255 26.67002380516389 26.691997802600255 26.67002380516389 26.67002380516389 26.67002380516389 26.67002380516389 26.67002380516389 26.67002380516389 26.67002380516389 26.67002380516389 26.67002380516389 26.67002380516389 26.67002380516389 26.67002380516389 26.67002380516389 26.67002380516389 26.67002380516389 26.67002380516389 26.67002380516389 26.648049807727524 26.67002380516389 26.648049807727524 26.67002380516389 26.648049807727524 26.67002380516389 26.67002380516389 26.648049807727524 26.67002380516389 26.648049807727524 26.67002380516389 26.648049807727524 26.67002380516389 26.648049807727524 26.67002380516389 26.67002380516389 26.648049807727524 26.648049807727524 26.648049807727524 26.648049807727524 26.648049807727524 26.648049807727524 26.648049807727524 26.648049807727524 26.648049807727524 26.648049807727524 26.648049807727524 26.648049807727524 26.648049807727524 26.648049807727524 26.626075810291155 26.648049807727524 26.648049807727524 26.648049807727524 26.648049807727524 26.648049807727524 26.648049807727524 26.648049807727524 26.648049807727524 26.648049807727524 26.648049807727524 26.648049807727524 26.648049807727524 26.626075810291155 26.648049807727524 26.648049807727524 26.648049807727524 26.648049807727524 26.626075810291155 26.626075810291155 26.626075810291155 26.626075810291155 26.626075810291155 26.626075810291155 26.626075810291155 26.626075810291155 26.626075810291155 26.626075810291155 26.626075810291155 26.626075810291155 26.626075810291155 26.626075810291155 26.626075810291155 26.626075810291155 26.626075810291155 26.626075810291155 26.626075810291155 26.626075810291155 26.626075810291155 26.626075810291155 26.626075810291155 26.626075810291155 26.626075810291155 26.626075810291155 26.626075810291155 26.626075810291155 26.626075810291155 26.626075810291155 26.626075810291155 26.626075810291155 26.626075810291155 26.626075810291155 26.626075810291155 26.626075810291155 26.626075810291155 26.626075810291155 26.626075810291155 26.626075810291155 26.626075810291155 26.626075810291155 26.626075810291155 26.626075810291155 26.626075810291155 26.626075810291155 26.626075810291155 26.626075810291155 26.626075810291155 26.60410181285479 26.60410181285479 26.60410181285479 26.60410181285479 26.60410181285479 26.60410181285479 26.60410181285479 26.60410181285479 26.60410181285479 26.60410181285479 26.60410181285479 26.60410181285479 26.60410181285479 26.60410181285479 26.60410181285479 26.60410181285479 26.60410181285479 26.60410181285479 26.60410181285479 26.60410181285479 26.60410181285479 26.60410181285479 26.60410181285479 26.60410181285479 26.60410181285479 26.60410181285479 26.60410181285479 26.60410181285479 26.60410181285479 26.60410181285479 26.60410181285479 26.60410181285479 26.60410181285479 26.60410181285479 26.60410181285479 26.60410181285479 26.58212781541842 26.60410181285479 26.60410181285479 26.60410181285479 26.60410181285479 26.60410181285479 26.60410181285479 26.60410181285479 26.58212781541842 26.58212781541842 26.58212781541842 26.60410181285479 26.60410181285479 26.58212781541842 26.58212781541842 26.60410181285479 26.60410181285479 26.60410181285479 26.58212781541842 26.60410181285479 26.60410181285479 26.60410181285479 26.58212781541842 26.58212781541842 26.58212781541842 26.58212781541842 26.58212781541842 26.60410181285479 26.626075810291155 26.648049807727524 26.67002380516389 26.691997802600255 26.713971800036624 26.779893792345725 26.911737776963925 27.087529756454863 27.219373741073063 27.439113715436733 27.636879692364037 27.988463651345906 28.34004761032778 28.69163156930965 28.97729353598242 29.350851492400658 29.658487456509796 30.22981138985534 30.735213330891778 31.174693279619117 31.52627723860099 31.89983519501923 32.4491851309284 32.800769089910276 33.350119025819446 33.89946896172862 34.29500091558323 34.86632484892877 35.48159677714705 35.921076725874386 36.536348654092656 37.415308551547334 37.8328145028383 38.27229445156565 38.73374839772936 39.41494231825673 40.030214246475005 40.469694195202344 41.15088811572972 42.0298480131844 42.51327595678447 42.996703900384546 43.67789782091192 44.64475370811206 45.06225965940304 45.63358359274858 46.402673503021425 47.23768540560337 47.98480131843985 48.73191723127633 49.39113715436733 50.248123054385644 51.17103094671306 51.83025086980406 52.994872733931516 53.763962644204355 54.37923457242263 55.28016846731368 55.85149240065922 56.356894341695664 57.21388024171397 57.82915216993224 58.46639809558689 59.47720197765977 60.004577916132575 60.795641823841784 61.23512177256912 62.00421168284197 62.46566562900568 62.993041567478485 63.95989745467863 64.48727339315144 65.21241530855156 65.95953122138803 66.79454312396996 67.60758102911555 68.15693096502471 68.72825489837027 69.431422816334 69.95879875480682 70.74986266251602 71.45303058047976 72.17817249587988 72.8373924189709 73.3647683574437 73.80424830617103 74.50741622413477 74.72715619849845 75.47427211133493 76.0895440395532 76.52902398828054 77.10034792162608 77.51785387291704 78.11115180369896 78.6824757370445 79.09998168833548 79.69327961911739 80.35249954220839 80.79197949093573 81.40725141915401 82.00054934993591 82.39608130379051 82.92345724226331 83.29701519868156 83.802417139718 84.30781908075444 84.65940303973632 85.38454495513642 85.8020509064274 86.15363486540927 86.59311481413661 86.94469877311849 87.47207471159129 87.95550265519137 88.21919062442777 88.63669657571873 89.01025453213697 89.22999450650065 89.71342245010072 89.99908441677348 90.5923823475554 90.87804431422816 91.16370628090094 91.5812122321919 91.97674418604652 92.24043215528292 92.67991210401026 92.9216260758103 93.1193920527376 93.33913202710126 93.47097601171946 93.75663797839223 93.88848196301043 93.97637795275591 94.06427394250137 94.15216993224685 94.21809192455594 94.24006592199231 94.24006592199231 94.24006592199231 94.24006592199231 94.21809192455594 94.06427394250137 93.93242995788317 93.66874198864677 93.33913202710126 93.0534700604285 92.61399011170116 92.35030214246476 91.86687419886468 91.40542025270096 91.0538362937191 90.63633034242812 90.02105841420986 89.73539644753708 89.33986449368247 89.0542025270097 88.74656656290057 88.41695660135505 88.15326863211865 87.71378868339133 87.27430873466398 87.05456876030031 86.68101080388207 86.32942684490021 85.91192089360922 85.31862296282733 85.01098699871818 84.65940303973632 84.17597509613624 83.802417139718 83.09924922175426 82.72569126533602 82.17634132942685 81.78080937557223 81.38527742171763 80.70408350119027 80.06683757553562 79.38564365500824 78.79234572422632 78.39681377037172 77.82548983702618 77.45193188060796 76.83665995238968 76.28731001648049 75.73796008057133 75.34242812671673 74.79307819080753 74.35359824208021 73.8921442959165 73.32082036257097 72.94726240615272 72.4198864676799 72.04632851126168 71.47500457791614 70.9036806445706 70.24446072147958 69.60721479582494 69.2336568394067 68.79417689067935 68.06903497527925 67.49771104193371 66.94836110602454 66.09137520600623 65.56399926753342 64.92675334187878 64.46529939571508 63.95989745467863 63.036989562351216 62.53158762131478 61.82841970335103 61.14722578282366 60.575901849478115 59.982603918696206 59.433253982787036 58.83995605200513 58.18073612891412 57.71928218275041 56.9941402673503 56.312946346822926 55.82951840322285 54.90661051089544 54.401208569859 53.98370261856803 53.390404687786116 52.775132759567846 52.1378868339132 51.56656290056766 51.17103094671306 50.643655008240245 50.336019044131106 49.91851309284014 49.56692913385827 49.303241164621866 49.01757919794909 48.66599523896723 48.42428126716719 48.11664530305805 47.74308734663981 47.47939937740341 47.083867423548796 46.79820545687603 46.358725508148694 45.74345357993042 45.41384361838491 45.10620765427578 44.46896172862113 44.11737776963926 43.765793810657385 43.326313861930046 42.88683391320271 42.46932796191174 42.18366599523897 41.76616004394799 41.48049807727523 41.06299212598425 40.645486174693275 40.315876213147774 39.8324482695477 39.107306354147596 38.84361838491119 38.11847646951108 37.67899652078374 37.261490569492764 36.80003662332906 36.426478666910825 35.87712873100165 35.21790880791064 34.88829884636513 34.47079289507416 34.18513092840139 33.96539095403772 33.635780992492215 33.39406702069218 33.064457059146676 32.866691082219376 32.734847097601175 32.53708112067387 32.40523713605567 32.2514191540011 32.1195751693829 31.987731184764694 31.78996520783739 31.57022523347372 31.196667277055482 30.954953305255447 30.757187328328143 30.493499359091743 30.273759384728073 30.054019410364404 29.70243545138253 29.350851492400658 28.955319538546053 28.55978758469145 28.12030763596411 27.856619666727706 27.592931697491302 27.219373741073063 26.867789782091194 26.494231825672955 26.472257828236586 26.38436183849112 26.36238784105475 26.318439846182017 26.318439846182017 26.318439846182017 26.274491851309286 26.252517853872916 26.23054385643655 26.208569859000182 26.208569859000182 26.186595861563816 26.208569859000182 26.208569859000182 26.186595861563816 26.186595861563816 26.186595861563816 26.164621864127447 26.14264786669108 26.120673869254716 26.098699871818347 26.07672587438198 26.054751876945616 26.054751876945616 26.032777879509247 26.032777879509247 26.032777879509247 26.032777879509247 26.032777879509247 26.032777879509247 26.032777879509247 26.032777879509247 26.032777879509247 26.032777879509247 26.032777879509247 26.01080388207288 26.01080388207288 26.01080388207288 26.01080388207288 26.01080388207288 26.01080388207288 26.01080388207288 26.01080388207288 26.01080388207288 26.01080388207288 26.01080388207288 26.01080388207288 26.01080388207288 26.01080388207288 26.01080388207288 26.01080388207288 26.01080388207288 26.01080388207288 26.01080388207288 26.01080388207288 26.01080388207288 26.01080388207288 26.01080388207288 26.01080388207288 26.01080388207288 26.01080388207288 26.01080388207288 26.01080388207288 26.01080388207288 26.01080388207288 26.01080388207288 26.01080388207288 26.01080388207288 26.01080388207288 26.01080388207288 26.01080388207288 26.01080388207288 26.01080388207288 26.01080388207288 26.032777879509247 26.01080388207288 26.01080388207288 26.01080388207288 26.032777879509247 26.01080388207288 26.01080388207288 26.01080388207288 26.032777879509247 26.032777879509247 26.032777879509247 26.032777879509247 26.032777879509247 26.032777879509247 26.01080388207288 26.01080388207288 26.01080388207288 26.032777879509247 26.01080388207288 26.032777879509247 26.032777879509247 26.032777879509247 26.032777879509247 26.032777879509247 26.032777879509247 26.032777879509247 26.032777879509247 26.032777879509247 26.032777879509247 26.032777879509247 26.032777879509247 26.032777879509247 26.032777879509247 26.032777879509247 26.032777879509247 26.032777879509247 26.032777879509247 26.032777879509247 26.032777879509247 26.032777879509247 26.032777879509247 26.032777879509247 26.032777879509247 26.032777879509247 26.032777879509247 26.032777879509247 26.032777879509247 26.032777879509247 26.032777879509247 26.032777879509247 26.032777879509247 26.032777879509247 26.032777879509247 26.032777879509247 26.032777879509247 26.032777879509247 26.032777879509247 26.032777879509247 26.032777879509247 26.032777879509247 26.032777879509247 26.032777879509247 26.032777879509247 26.032777879509247 26.032777879509247 26.01080388207288 26.032777879509247 26.032777879509247 26.01080388207288 26.032777879509247 26.01080388207288 26.032777879509247 26.01080388207288 26.01080388207288 26.01080388207288 26.01080388207288 26.01080388207288 26.01080388207288 26.01080388207288 26.01080388207288 26.01080388207288 26.01080388207288 26.01080388207288 26.01080388207288 26.01080388207288 26.01080388207288 26.01080388207288 26.01080388207288 26.01080388207288 26.01080388207288 26.01080388207288 26.032777879509247 26.032777879509247 26.032777879509247 26.01080388207288 26.032777879509247 26.01080388207288 26.032777879509247 26.032777879509247 26.032777879509247 26.032777879509247 26.032777879509247 26.032777879509247 26.054751876945616 26.07672587438198 26.07672587438198 26.098699871818347 26.098699871818347 26.14264786669108 26.164621864127447 26.23054385643655 26.252517853872916 26.340413843618386 26.494231825672955 26.626075810291155 26.867789782091194 27.329243728254898 27.461087712873102 27.87859366416407 28.208203625709576 28.75755356161875 29.284929500091557 29.966123420618935 30.537447353964474 31.064823292437282 31.52627723860099 32.0536531770738 32.5151071232375 33.32814502838308 33.92144295916499 34.33894891045596 34.9761948361106 35.54751876945615 36.052920710492586 36.712140633583594 37.21754257462003 37.96465848745651 38.71177440029299 39.239150338765796 39.986266251602274 40.49166819263871 41.28273210034792 42.00787401574803 42.60117194652994 43.436183849111885 44.5568577183666 44.84251968503937 45.94121955685772 46.600439479948726 47.215711408167 47.98480131843985 48.62204724409449 49.940487090276505 50.75352499542208 51.41274491851309 52.37960080571324 53.214612708295185 54.29133858267717 54.88463651345907 55.54385643655009 56.422816334004764 57.323750228895804 58.24665812122322 58.77403405969603 59.34535799304157 60.180369895623514 60.97143380333272 61.54275773667826 62.35579564182384 63.476469511078555 64.06976744186046 64.92675334187878 65.56399926753342 66.4429591649881 67.08020509064274 68.04706097784288 69.01391686504303 69.95879875480682 70.61801867789782 71.56290056766161 72.37593847280718 73.1010803882073 74.00201428309833 74.63926020875297 75.45229811389855 76.11151803698957 76.83665995238968 77.80351583958982 78.30891778062626 78.72642373191724 79.25379967039004 79.73722761399011 80.44039553195387 81.09961545504487 81.75883537813587 82.30818531404505 82.74766526277239 83.29701519868156 83.69254715253618 84.04413111151804 84.81322102179088 85.18677897820913 85.75810291155466 86.21955685771837 86.61508881157297 87.29628273210035 87.64786669108221 87.97747665262773 88.4609045962278 88.8564365500824 89.36183849111885 90.10895440395532 90.52646035524629 91.1197582860282 91.55923823475554 91.95477018861015 92.57004211682842 93.0534700604285 93.71268998351951 94.24006592199231 94.61362387841055 95.16297381431973 95.5145577733016 96.01995971433803 96.39351767075628 96.78904962461088 97.18458157846548 97.51419154001098 97.7119575169383 97.86577549899286 97.99761948361106 98.01959348104744 98.0415674784838 98.0415674784838 98.01959348104744 97.95367148873832 97.86577549899286 97.62406152719282 97.40432155282916 97.14063358359276 96.87694561435634 96.5693096502472 96.26167368613807 95.71232375022889 95.40468778611975 94.96520783739241 94.63559787584691 94.32796191173779 93.6467679912104 93.3171580296649 92.7897820911921 92.24043215528292 91.82292620399194 91.3834462552646 91.03186229628274 90.4605383629372 90.02105841420986 89.71342245010072 89.27394250137338 88.83446255264604 88.48287859366417 87.93352865775499 87.60391869620949 87.23036073979125 86.72495879875481 86.15363486540927 85.56033693462736 84.98901300128182 84.59348104742722 84.0001831166453 83.58267716535434 83.01135323200879 82.41805530122689 81.95660135506317 81.38527742171763 80.77000549349935 80.28657754989928 79.71525361655375 79.25379967039004 78.4847097601172 77.64969785753524 77.47390587804432 76.79271195751694 75.89177806262589 75.43032411646219 74.74913019593481 74.50741622413477 73.562534334371 73.03515839589818 72.59567844717085 71.71671854971618 71.01355063175242 70.48617469327962 69.67313678813403 68.88207288042483 68.22285295733383 67.49771104193371 66.88243911371544 66.06940120856986 65.23438930598792 64.5751693828969 63.718183482878594 62.905145577733016 62.02618568027834 61.08130379051456 60.75169382896905 59.82878593664164 58.88390404687786 57.96099615455045 57.08203625709577 56.15912836476836 55.56583043398645 54.99450650064091 54.401208569859 53.412378685222485 52.863028749313315 52.15986083134957 51.50064090825856 51.10510895440396 50.48983702618568 49.89653909540377 49.479033144112805 48.97363120307636 48.62204724409449 48.13861930049441 47.72111334920344 47.30360739791247 46.973997436366965 46.754257462003295 46.57846548251236 46.314777513275956 46.16095953122139 45.853323567112255 45.47976561069402 45.30397363120308 45.04028566196667 44.7546236952939 44.2931697491302 43.765793810657385 43.260391869620946 42.38143197216627 41.9639260208753 41.52444607214796 41.019044131111514 40.403772202893244 39.942318256729536 39.32704632851126 38.90954037722029 38.31624244643838 37.7668925105292 37.3713605566746 36.624244643838125 36.09686870536532 35.94305072331075 35.43764878227431 34.99816883354697 34.53671488738326 34.11920893609229 33.855520966855885 33.525911005310384 33.240249038637614 33.04248306171031 32.82274308734664 32.646951107855706 32.5151071232375 32.33931514374657 32.22944515656473 32.14154916681926 32.0536531770738 31.94378318989196 31.81193920527376 31.702069218091925 31.50430324116462 31.24061527192822 31.064823292437282 30.932979307819082 30.735213330891778 30.559421351400843 30.317707379600805 30.010071415491666 29.746383446255265 29.460721479582496 29.284929500091557 29.131111518036988 29.021241530855153 28.91137154367332 28.75755356161875 28.669657571873284 28.603735579564184 28.53781358725508 28.515839589818714 28.449917597509614 28.427943600073245 28.427943600073245 28.38399560520051 28.40596960263688 28.38399560520051 28.362021607764145 28.362021607764145 28.34004761032778 28.31807361289141 28.296099615455045 28.25215162058231 28.18622962827321 28.12030763596411 28.076359641091376 28.03241164621864 27.988463651345906 27.96648965390954 27.922541659036806 27.922541659036806 27.90056766160044 27.90056766160044 27.90056766160044 27.90056766160044 27.90056766160044 27.944515656473172 27.944515656473172 27.988463651345906 27.988463651345906 28.010437648782275 28.010437648782275 28.010437648782275 28.010437648782275 28.010437648782275 28.010437648782275 27.988463651345906 27.988463651345906 27.988463651345906 27.988463651345906 27.988463651345906 27.988463651345906 28.010437648782275 27.988463651345906 27.988463651345906 27.988463651345906 27.988463651345906 27.988463651345906 27.96648965390954 27.96648965390954 27.96648965390954 27.96648965390954 27.96648965390954 27.988463651345906 27.988463651345906 27.988463651345906 27.988463651345906 27.988463651345906 27.988463651345906 27.988463651345906 27.988463651345906 27.988463651345906 27.988463651345906 27.988463651345906 27.988463651345906 27.988463651345906 27.96648965390954 27.96648965390954 27.944515656473172 27.922541659036806 27.90056766160044 27.90056766160044 27.87859366416407 27.87859366416407 27.856619666727706 27.856619666727706 27.856619666727706 27.856619666727706 27.856619666727706 27.856619666727706 27.856619666727706 27.856619666727706 27.856619666727706 27.856619666727706 27.856619666727706 27.856619666727706 27.834645669291337 27.834645669291337 27.834645669291337 27.834645669291337 27.834645669291337 27.81267167185497 27.81267167185497 27.790697674418606 27.790697674418606 27.790697674418606 27.790697674418606 27.768723676982237 27.74674967954587 27.74674967954587 27.724775682109502 27.702801684673137 27.68082768723677 27.636879692364037 27.636879692364037 27.592931697491302 27.570957700054933 27.527009705182202 27.527009705182202 27.505035707745833 27.483061710309467 27.483061710309467 27.483061710309467 27.483061710309467 27.483061710309467 27.461087712873102 27.439113715436733 27.439113715436733 27.417139718000367 27.417139718000367 27.417139718000367 27.417139718000367 27.395165720564 27.373191723127633 27.351217725691264 27.351217725691264 27.307269730818533 27.263321735945798 27.219373741073063 27.17542574620033 27.153451748763963 27.131477751327594 27.10950375389123 27.065555759018494 27.02160776414576 27.02160776414576 26.97765976927303 26.95568577183666 26.933711774400294 26.933711774400294 26.911737776963925 26.933711774400294 26.911737776963925 26.911737776963925 26.911737776963925 26.911737776963925 26.88976377952756 26.88976377952756 26.88976377952756 26.867789782091194 26.867789782091194 26.845815784654825 26.82384178721846 26.80186778978209 26.779893792345725 26.757919794909355 26.757919794909355 26.73594579747299 26.73594579747299 26.73594579747299 26.73594579747299 26.73594579747299 26.73594579747299 26.757919794909355 26.757919794909355 26.779893792345725 26.779893792345725 26.779893792345725 26.779893792345725 26.80186778978209 26.779893792345725 26.779893792345725 26.757919794909355 26.757919794909355 26.73594579747299 26.713971800036624 26.691997802600255 26.691997802600255 26.67002380516389 26.67002380516389 26.67002380516389 26.67002380516389 26.67002380516389 26.67002380516389 26.648049807727524 26.648049807727524 26.626075810291155 26.60410181285479 26.60410181285479 26.60410181285479 26.60410181285479 26.58212781541842 26.60410181285479 26.60410181285479 26.626075810291155 26.626075810291155 26.626075810291155 26.626075810291155 26.648049807727524 26.648049807727524 26.648049807727524 26.648049807727524 26.648049807727524 26.648049807727524 26.67002380516389 26.67002380516389 26.67002380516389 26.67002380516389 26.67002380516389 26.691997802600255 26.713971800036624 26.757919794909355 26.779893792345725 26.80186778978209 26.845815784654825 26.88976377952756 26.933711774400294 26.95568577183666 27.065555759018494 27.197399743636698 27.307269730818533 27.461087712873102 27.592931697491302 27.81267167185497 28.142281633400476 28.25215162058231 28.55978758469145 28.889397546236953 29.219007507782457 29.900201428309835 30.22981138985534 30.603369346273574 30.998901300128182 31.41640725141915 31.96575718732833 33.306171030946714 33.701702984801315 34.207104925837754 34.73448086431057 35.23988280534701 35.74528474638345 36.272660684856255 37.1735945797473 37.89873649514741 38.51400842336568 39.34902032594763 39.964292254165905 40.55759018494781 41.72221204907526 42.33748397729354 43.216443874748215 44.18329976194836 44.86449368247574 45.78740157480315 46.842153451748764 47.80900933894891 48.49020325947629 49.2153451748764 50.40194103644021 51.5445889031313 52.81908075444058 53.93975462369529 54.73081853140451 55.85149240065922 56.64255630836843 57.45559421351401 58.35652810840505 59.21351400842337 59.806811939205275 60.641823841787215 61.19117377769639 61.93828969053287 62.68540560336935 63.190807544405786 63.915949459805894 64.68503937007874 65.30031129829702 65.95953122138803 66.5088811572972 67.67350302142464 68.26680095220655 68.92602087529757 69.78300677531587 70.74986266251602 71.73869254715254 72.66160043947995 73.3647683574437 74.33162424464385 75.03479216260759 75.86980406518953 76.70481596777148 77.276139901117 78.00128181651712 78.72642373191724 79.25379967039004 80.02288958066288 80.74803149606299 81.25343343709943 81.93462735762681 82.37410730635415 82.98937923457243 83.71452114997254 84.11005310382714 84.46163706280902 84.96703900384546 85.3405969602637 85.78007690899102 86.32942684490021 86.7908807910639 87.29628273210035 87.64786669108221 88.13129463468229 88.52682658853689 88.96630653726424 89.44973448086431 89.80131843984618 90.30672038088262 90.87804431422816 91.29555026551914 92.06464017579198 92.46017212964658 93.09741805530123 93.4490020142831 93.82255997070133 94.32796191173779 94.96520783739241 95.29481779893793 95.69034975279253 96.1078557040835 96.2396996887017 96.5693096502472 96.83299761948362 96.98681560153818 97.05273759384728 97.07471159128364 97.07471159128364 96.96484160410182 96.7670756271745 96.28364768357443 95.9100897271562 95.40468778611975 94.85533785021059 94.37190990661051 93.66874198864677 92.89965207837392 92.41622413477386 91.66910822193738 91.14173228346456 90.41659036806446 89.73539644753708 89.0542025270097 88.48287859366417 88.08734663980957 87.62589269364585 87.03259476286395 86.35140084233657 85.71415491668193 85.09888298846366 84.68137703717268 84.0661051089544 83.6046511627907 83.03332722944516 82.48397729353599 82.08844533968139 81.56106940120857 81.09961545504487 80.74803149606299 80.26460355246292 79.89104559604468 79.42959164988098 78.99011170115364 78.6824757370445 78.2210217908808 77.73759384728072 77.40798388573522 76.72678996520784 76.37520600622597 75.84783006775316 75.49624610877129 74.88097418055301 74.39754623695293 73.87017029848013 73.4966123420619 72.90331441127998 72.46383446255265 71.8925105292071 71.2992125984252 70.79381065738875 70.35433070866142 69.7610327778795 69.3655008240249 68.81615088811573 68.39864493682475 67.89324299578831 67.36586705731551 66.97033510346091 66.377037172679 65.56399926753342 65.01464933162424 64.53122138802416 64.06976744186046 63.476469511078555 63.080937557223955 62.487639626442046 61.93828969053287 61.56473173411463 61.05932979307819 60.70774583409632 60.40010986998718 60.04852591100531 59.740889946896175 59.433253982787036 59.08167002380517 58.94982603918696 58.62021607764146 58.13678813404138 57.87310016480498 57.56546420069584 57.191906244277604 56.906244277604834 56.554660318622965 56.09320637245926 55.85149240065922 55.54385643655009 55.32411646218641 54.99450650064091 54.75279252884087 54.44515656473173 54.137520600622594 53.93975462369529 53.632118659586155 53.302508698040654 53.08276872367698 52.53341878776781 52.37960080571324 52.1378868339132 51.85222486724043 51.58853689800403 51.25892693645852 50.79747299029482 50.55575901849478 50.072331074894706 49.852591100531036 49.610877128731005 49.369163156930966 49.105475187694566 48.62204724409449 48.24848928767625 47.96282732100348 47.58926936458524 47.215711408167 46.973997436366965 46.688335469694195 46.358725508148694 46.09503753891229 45.87529756454862 45.69950558505768 45.45779161325764 45.10620765427578 44.97436366965757 44.77659769273027 44.6227797106757 44.2931697491302 44.073429774766524 43.87566379783922 43.502105841420985 43.194469877311846 42.930781908075446 42.71104193371177 42.33748397729354 42.0957700054935 41.65629005676616 41.30470609778429 41.10694012085699 40.84325215162058 40.535616187511444 40.206006225965936 39.986266251602274 39.6346822926204 39.28309833363853 39.04138436183849 38.71177440029299 38.51400842336568 38.22834645669291 37.96465848745651 37.78886650796557 37.52517853872917 37.21754257462003 37.08569859000183 36.887932613074526 36.646218641274494 36.44845266434719 36.272660684856255 36.052920710492586 35.85515473356528 35.63541475920161 35.50357077458341 35.28383080021974 35.15198681560154 34.95422083867423 34.73448086431057 34.58066288225599 34.38289690532869 34.16315693096502 34.03131294634682 33.67972898736495 33.48196301043765 33.218275041201245 32.998535066837576 32.88866507965574 32.60300311298297 32.22944515656473 32.03167917963743 31.72404321552829 31.43838124885552 31.262589269364586 31.064823292437282 30.779161325764512 30.51547335652811 30.29573338216444 30.163889397546235 29.966123420618935 29.8562534334371 29.70243545138253 29.658487456509796 29.61453946163706 29.54861746932796 29.526643471891596 29.460721479582496 29.372825489837027 29.328877494964292 29.262955502655192 29.219007507782457 29.175059512909723 29.131111518036988 29.087163523164257 29.087163523164257 29.065189525727888 29.087163523164257 29.087163523164257 29.109137520600623 29.109137520600623 29.109137520600623 29.109137520600623 29.109137520600623 29.109137520600623 29.087163523164257 29.065189525727888 29.043215528291523 29.043215528291523 28.999267533418788 28.999267533418788 28.97729353598242 28.955319538546053 28.933345541109688 28.933345541109688 28.933345541109688 28.933345541109688 28.933345541109688 28.91137154367332 28.933345541109688 28.933345541109688 28.933345541109688 28.933345541109688 28.955319538546053 28.933345541109688 28.933345541109688 28.91137154367332 28.889397546236953 28.84544955136422 28.84544955136422 28.801501556491484 28.77952755905512 28.75755356161875 28.75755356161875 28.77952755905512 28.77952755905512 28.77952755905512 28.77952755905512 28.75755356161875 28.735579564182384 28.735579564182384 28.69163156930965 28.669657571873284 28.64768357443692 28.603735579564184 28.581761582127815 28.581761582127815 28.55978758469145 28.53781358725508 28.53781358725508 28.515839589818714 28.515839589818714 28.47189159494598 28.47189159494598 28.427943600073245 28.427943600073245 28.40596960263688 28.40596960263688 28.38399560520051 28.362021607764145 28.34004761032778 28.34004761032778 28.31807361289141 28.296099615455045 28.296099615455045 28.27412561801868 28.27412561801868 28.27412561801868 28.27412561801868 28.27412561801868 28.25215162058231 28.25215162058231 28.230177623145945 28.230177623145945 28.208203625709576 28.208203625709576 28.208203625709576 28.18622962827321 28.16425563083684 28.16425563083684 28.142281633400476 28.142281633400476 28.12030763596411 28.12030763596411 28.09833363852774 28.076359641091376 28.076359641091376 28.05438564365501 28.05438564365501 28.05438564365501 28.05438564365501 28.05438564365501 28.05438564365501 28.05438564365501 28.05438564365501 28.05438564365501 28.03241164621864 28.03241164621864 28.03241164621864 28.03241164621864 28.03241164621864 28.03241164621864 28.03241164621864 28.03241164621864 28.03241164621864 28.03241164621864 28.03241164621864 28.03241164621864 28.03241164621864 28.010437648782275 28.010437648782275 28.010437648782275 28.010437648782275 28.010437648782275 28.010437648782275 27.988463651345906 27.96648965390954 27.944515656473172 27.944515656473172 27.944515656473172 27.944515656473172 27.944515656473172 27.922541659036806 27.90056766160044 27.87859366416407 27.856619666727706 27.834645669291337 27.856619666727706 27.856619666727706 27.856619666727706 27.856619666727706 27.87859366416407 27.87859366416407 27.87859366416407 27.87859366416407 27.87859366416407 27.87859366416407 27.87859366416407 27.90056766160044 27.90056766160044 27.922541659036806 27.922541659036806 27.922541659036806 27.922541659036806 27.922541659036806 27.922541659036806 27.944515656473172 27.944515656473172 27.944515656473172 27.96648965390954 27.96648965390954 27.988463651345906 28.03241164621864 28.05438564365501 28.076359641091376 28.09833363852774 28.142281633400476 28.16425563083684 28.18622962827321 28.208203625709576 28.230177623145945 28.296099615455045 28.31807361289141 28.38399560520051 28.40596960263688 28.47189159494598 28.53781358725508 28.581761582127815 28.669657571873284 28.71360556674602 28.801501556491484 28.889397546236953 28.97729353598242 29.043215528291523 29.19703351034609 29.284929500091557 29.394799487273392 29.54861746932796 29.592565464200696 29.746383446255265 29.944149423182566 30.14191540010987 30.36165537447354 30.537447353964474 30.801135323200878 31.020875297564547 31.328511261673686 31.81193920527376 32.0536531770738 32.40523713605567 32.82274308734664 33.152353048892145 34.009338948910454 34.22907892327412 34.62461087712873 35.19593481047427 35.59146676432888 36.22871268998352 37.019776597692726 37.48123054385644 38.09650247207471 38.51400842336568 39.15125434902033 39.546786302874935 40.184032228529574 40.77733015931148 41.37062809009339 41.81010803882073 42.46932796191174 43.01867789782091 43.67789782091192 44.44698773118476 44.97436366965757 45.78740157480315 46.622413477385095 47.23768540560337 48.18256729536715 49.19337117744003 50.226149056949275 50.79747299029482 51.45669291338582 52.357626808276876 53.280534700604285 54.137520600622594 54.99450650064091 55.56583043398645 56.33492034425929 56.9282182750412 57.89507416224135 58.33455411096869 58.81798205456876 59.587071964841606 60.33418787767808 60.99340780076909 61.69657571873283 62.50961362387841 63.058963559787585 63.915949459805894 64.5092473905878 65.34425929316976 66.20124519318806 66.83849111884271 68.04706097784288 68.64035890862479 69.34352682658854 70.20051272660686 71.167368613807 72.13422450100714 72.9692364035891 73.65043032411646 74.46346822926205 75.03479216260759 75.80388207288043 76.616919978026 77.18824391137156 77.93535982420804 78.70444973448086 79.29774766526278 80.13275956784472 80.90184947811755 81.49514740889947 82.24226332173595 82.74766526277239 83.40688518586339 84.35176707562718 84.70335103460906 85.3405969602637 86.15363486540927 86.61508881157297 87.31825672953671 88.04339864493683 88.70261856802784 89.36183849111885 89.82329243728255 90.50448635780992 91.16370628090094 91.75700421168284 92.30635414759202 92.74583409631936 93.383080021974 93.97637795275591 94.34993590917415 95.11902581944699 95.62442776048343 95.99798571690167 96.437465665629 96.81102362204724 97.38234755539278 98.12946346822926 98.48104742721114 98.98644936824758 99.31605932979308 99.60172129646585 100.0412012451932 100.48068119392053 100.85423915033877 101.22779710675701 101.53543307086615 101.90899102728437 102.17267899652079 102.54623695293903 102.8978209119209 103.07361289141183 103.38124885552097 103.60098882988464 103.71085881706647 103.86467679912104 103.93059879143014 103.93059879143014 103.93059879143014 103.93059879143014 103.84270280168467 103.66691082219374 103.4251968503937 103.11756088628456 102.85387291704816 102.63413294268449 102.30452298113899 102.04083501190259 101.66727705548435 101.35964109137521 101.09595312213881 100.7663431605933 100.568577183666 100.3048892144296 99.95330525544773 99.73356528108405 99.33803332722945 98.9644753708112 98.6348654092657 98.21735945797472 97.75590551181102 97.22852957333822 96.87694561435634 96.5033876579381 95.778245742538 95.42666178355613 95.03112982970153 94.37190990661051 93.95440395531953 93.40505401941037 92.9216260758103 92.15253616553744 91.42739425013734 90.63633034242812 90.10895440395532 89.16407251419155 88.61472257828237 88.06537264237319 87.34023072697309 86.72495879875481 85.88994689617286 85.31862296282733 84.50558505768174 83.7364951474089 83.23109320637246 82.48397729353599 81.60501739608131 81.34132942684491 80.63816150888115 79.86907159860831 79.16590368064458 78.63852774217176 77.93535982420804 77.21021790880792 76.7487639626442 75.97967405237137 75.25453213697125 74.52939022157113 73.8921442959165 73.03515839589818 72.44186046511629 71.60684856253434 70.81578465482514 70.24446072147958 69.40944881889763 68.8381248855521 68.06903497527925 67.10217908807911 66.53085515473356 66.00347921626076 65.34425929316976 64.88280534700604 63.93792345724226 63.432521516205824 62.72935359824208 61.9822376854056 61.47683574436916 60.509979857169014 60.04852591100531 59.56509796740524 58.8619300494415 58.29060611609595 57.71928218275041 57.125984251968504 56.686504303241165 55.82951840322285 55.14832448269547 54.68687053653177 54.203442592931694 53.698040651895255 53.236586705731554 52.37960080571324 51.96209485442226 51.39077092107672 50.75352499542208 50.511811023622045 49.83061710309467 49.3471891594946 48.46822926203992 47.80900933894891 47.36952939022157 46.71030946713056 46.248855520966856 45.63358359274858 45.10620765427578 44.71067570042116 44.2931697491302 43.87566379783922 43.590001831166454 43.216443874748215 42.88683391320271 42.667093938839045 42.38143197216627 42.1616919978026 41.9639260208753 41.74418604651163 41.54642006958433 41.32668009522065 41.21681010803882 41.06299212598425 40.90917414392968 40.71140816700238 40.579564182384175 40.33785021058414 40.140084233656836 39.964292254165905 39.810474272111335 39.5687603003113 39.305072331074896 39.107306354147596 38.82164438747482 38.55795641823842 38.38216443874748 38.09650247207471 37.89873649514741 37.5691265336019 37.34938655923823 37.21754257462003 37.063724592565464 36.865958615638164 36.778062625892694 36.646218641274494 36.558322651529025 36.470426661783556 36.404504669474456 36.316608679728986 36.184764695110786 36.03094671305622 35.87712873100165 35.72331074894708 35.59146676432888 35.34975279252884 35.15198681560154 34.9761948361106 34.7784288591833 34.53671488738326 34.36092290789233 34.075260941219554 33.89946896172862 33.635780992492215 33.350119025819446 33.152353048892145 32.84471708478301 32.55905511811024 32.16352316425563 31.96575718732833 31.767991210401025 31.482329243728255 31.30653726423732 31.020875297564547 30.779161325764512 30.603369346273574 30.42757736678264 30.251785387291704 30.163889397546235 30.097967405237135 30.054019410364404 29.9880974180553 29.900201428309835 29.8562534334371 29.746383446255265 29.658487456509796 29.592565464200696 29.460721479582496 29.350851492400658 29.240981505218826 29.131111518036988 28.955319538546053 28.823475553927853 28.69163156930965 28.62570957700055 28.53781358725508 28.49386559238235 28.47189159494598 28.449917597509614 28.449917597509614 28.449917597509614 28.47189159494598 28.47189159494598 28.49386559238235 28.49386559238235 28.49386559238235 28.49386559238235 28.49386559238235 28.49386559238235 28.49386559238235 28.47189159494598 28.47189159494598 28.47189159494598 28.47189159494598 28.49386559238235 28.49386559238235 28.515839589818714 28.515839589818714 28.515839589818714 28.515839589818714 28.49386559238235 28.49386559238235 28.47189159494598 28.47189159494598 28.449917597509614 28.427943600073245 28.427943600073245 28.40596960263688 28.38399560520051 28.38399560520051 28.362021607764145 28.38399560520051 28.40596960263688 28.449917597509614 28.47189159494598 28.49386559238235 28.49386559238235 28.49386559238235 28.49386559238235 28.49386559238235 28.47189159494598 28.47189159494598 28.449917597509614 28.427943600073245 28.40596960263688 28.40596960263688 28.38399560520051 28.362021607764145 28.362021607764145 28.34004761032778 28.31807361289141 28.31807361289141 28.31807361289141 28.31807361289141 28.31807361289141 28.31807361289141 28.296099615455045 28.296099615455045 28.27412561801868 28.27412561801868 28.27412561801868 28.25215162058231 28.27412561801868 28.25215162058231 28.25215162058231 28.230177623145945 28.230177623145945 28.208203625709576 28.18622962827321 28.208203625709576 28.18622962827321 28.18622962827321 28.18622962827321 28.18622962827321 28.16425563083684 28.142281633400476 28.142281633400476 28.142281633400476 28.142281633400476 28.142281633400476 28.142281633400476 28.16425563083684 28.16425563083684 28.16425563083684 28.16425563083684 28.142281633400476 28.142281633400476 28.142281633400476 28.142281633400476 28.142281633400476 28.142281633400476 28.16425563083684 28.142281633400476 28.142281633400476 28.12030763596411 28.142281633400476 28.12030763596411 28.12030763596411 28.12030763596411 28.12030763596411 28.12030763596411 28.12030763596411 28.09833363852774 28.09833363852774 28.076359641091376 28.05438564365501 28.03241164621864 28.010437648782275 27.988463651345906 27.96648965390954 27.944515656473172 27.944515656473172 27.922541659036806 27.922541659036806 27.922541659036806 27.90056766160044 27.90056766160044 27.90056766160044 27.922541659036806 27.90056766160044 27.922541659036806 27.922541659036806 27.922541659036806 27.922541659036806 27.922541659036806 27.922541659036806 27.90056766160044 27.87859366416407 27.856619666727706 27.834645669291337 27.81267167185497 27.81267167185497 27.790697674418606 27.790697674418606 27.768723676982237 27.768723676982237 27.768723676982237 27.790697674418606 27.790697674418606 27.790697674418606 27.790697674418606 27.768723676982237 27.768723676982237 27.768723676982237 27.768723676982237 27.768723676982237 27.790697674418606 27.790697674418606 27.790697674418606 27.81267167185497 27.81267167185497 27.834645669291337 27.87859366416407 27.87859366416407 27.90056766160044 27.922541659036806 27.944515656473172 27.96648965390954 27.988463651345906 28.03241164621864 28.09833363852774 28.142281633400476 28.230177623145945 28.31807361289141 28.38399560520051 28.427943600073245 28.47189159494598 28.515839589818714 28.53781358725508 28.53781358725508 28.53781358725508 28.49386559238235 28.47189159494598 28.449917597509614 28.427943600073245 28.427943600073245 28.427943600073245 28.40596960263688 28.38399560520051 28.362021607764145 28.362021607764145 28.38399560520051 28.38399560520051 28.40596960263688 28.427943600073245 28.449917597509614 28.49386559238235 28.55978758469145 28.603735579564184 28.69163156930965 28.77952755905512 28.91137154367332 29.087163523164257 29.262955502655192 29.54861746932796 30.14191540010987 30.273759384728073 30.86705731550998 31.174693279619117 31.57022523347372 31.89983519501923 32.40523713605567 32.932613074528476 33.503937007874015 33.92144295916499 34.42684490020143 34.82237685405603 35.52554477201978 35.85515473356528 36.20673869254715 36.690166636147225 37.041750595129095 37.48123054385644 38.07452847463834 38.44808643105658 38.77769639260209 39.04138436183849 39.34902032594763 39.7665262772386 40.052188243911374 40.667460172129644 41.15088811572972 41.50247207471159 42.07379600805713 42.49130195934811 43.106573887566384 43.721845815784654 44.46896172862113 45.15015564914851 45.67753158762132 46.22688152353049 47.10584142098517 47.94085332356711 48.60007324665812 49.56692913385827 50.35799304156748 51.23695293902216 52.2038088262223 52.841054751876946 54.11554660318623 54.75279252884087 55.32411646218641 56.51071232375023 57.169932246841235 57.76323017762314 58.77403405969603 59.3893059879143 60.202343893059876 60.81761582127815 61.60867972898736 62.37776963926021 63.058963559787585 63.630287493133125 64.33345541109688 64.81688335469694 65.5859732649698 66.28914118293352 66.83849111884271 67.65152902398827 68.22285295733383 68.99194286760667 70.09064273942502 70.74986266251602 71.38710858817066 72.26606848562534 72.55173045229812 73.32082036257097 74.13385826771653 74.85900018311665 75.5621681010804 76.06757004211683 76.77073796008057 77.25416590368064 77.93535982420804 78.70444973448086 79.09998168833548 79.69327961911739 80.37447353964475 80.87987548068119 81.75883537813587 82.02252334737227 82.63779527559055 83.27504120124519 83.7364951474089 84.59348104742722 85.23072697308186 85.84599890130013 86.41732283464567 86.85680278337301 87.34023072697309 88.13129463468229 88.61472257828237 89.12012451931881 89.73539644753708 90.15290239882806 90.7242263321736 91.16370628090094 91.77897820911922 92.30635414759202 92.7897820911921 93.20728804248306 93.6467679912104 93.95440395531953 94.48177989379235 94.72349386559239 95.11902581944699 95.42666178355613 95.66837575535617 95.88811572971983 96.3056216810108 96.54733565281084 96.7670756271745 96.92089360922908 97.16260758102912 97.36037355795642 97.51419154001098 97.77787950924738 97.9756454861747 98.1074894707929 98.26130745284746 98.3711774400293 98.5030214246475 98.5030214246475 98.52499542208386 98.52499542208386 98.5030214246475 98.48104742721114 98.3711774400293 98.21735945797472 97.99761948361106 97.82182750412012 97.55813953488372 97.22852957333822 96.94286760666544 96.5693096502472 95.99798571690167 95.6464017579198 95.20692180919247 94.74546786302875 94.37190990661051 93.84453396813771 93.4490020142831 92.81175608862846 92.08661417322836 91.55923823475554 90.7242263321736 89.91118842702802 89.33986449368247 88.6586705731551 88.13129463468229 87.34023072697309 86.5271928218275 85.9338948910456 84.85716901666362 84.30781908075444 83.78044314228164 83.25306720380883 82.57187328328145 82.02252334737227 81.49514740889947 81.0776414576085 80.52829152169933 80.13275956784472 79.58340963193555 79.05603369346274 78.6824757370445 78.1550997985717 77.58377586522616 77.21021790880792 76.616919978026 76.02362204724409 75.49624610877129 74.94689617286213 74.26570225233473 73.84819630104377 73.01318439846182 72.57370444973449 72.06830250869804 71.2992125984252 70.99157663431606 70.39827870353415 69.6951107855704 69.03589086247939 68.33272294451567 67.87126899835195 67.19007507782457 66.5088811572972 66.00347921626076 65.41018128547884 64.94872733931514 64.3114814136605 63.696209485442225 63.01501556491485 62.39974363669658 61.9822376854056 61.5207837392419 60.97143380333272 60.55392785204175 59.982603918696206 59.27943600073247 58.90587804431423 58.40047610327779 58.00494414942318 57.67533418787768 57.257828236586704 56.7304522981139 56.22505035707746 55.49990844167735 54.99450650064091 54.62094854422267 54.22541659036806 53.785936641640724 53.214612708295185 52.88500274674968 52.3356528108405 51.83025086980406 51.4786669108222 50.86339498260392 50.533785021058414 50.182201062076544 49.720747115912836 49.369163156930966 48.90770921076726 48.27046328511261 47.89690532869437 47.3475553927852 46.93004944149423 46.51254349020326 46.20490752609412 45.74345357993042 45.30397363120308 44.9523896722212 44.6887017029848 44.271195751693824 43.91961179271196 43.655923823475554 43.216443874748215 42.930781908075446 42.46932796191174 42.05182201062077 41.74418604651163 41.28273210034792 40.99707013367515 40.381798205456874 40.096136238784105 39.810474272111335 39.28309833363853 38.99743636696576 38.75572239516572 38.29426844900202 38.00860648232924 37.65702252334737 37.4372825489837 37.063724592565464 36.756088628456325 36.492400659219925 36.20673869254715 35.921076725874386 35.72331074894708 35.48159677714705 35.23988280534701 35.08606482329244 34.86632484892877 34.7125068668742 34.55868888481963 34.42684490020143 34.31697491301959 34.16315693096502 34.03131294634682 33.92144295916499 33.701702984801315 33.459989013001284 33.218275041201245 32.97656106940121 32.82274308734664 32.581029115546606 32.36128914118294 32.07562717451016 31.767991210401025 31.548251236037355 31.196667277055482 30.889031312946347 30.691265336019043 30.44955136421901 30.20783739241897 30.119941402673504 30.054019410364404 29.9880974180553 29.9221754257462 29.878227430873466 29.8562534334371 29.900201428309835 29.900201428309835 29.9221754257462 29.944149423182566 29.944149423182566 29.9221754257462 29.878227430873466 29.834279436000735 29.76835744369163 29.70243545138253 29.658487456509796 29.592565464200696 29.526643471891596 29.41677348470976 29.284929500091557 29.175059512909723 28.97729353598242 28.84544955136422 28.75755356161875 28.62570957700055 28.581761582127815 28.47189159494598 28.362021607764145 28.31807361289141 28.27412561801868 28.27412561801868 28.25215162058231 28.230177623145945 28.208203625709576 28.16425563083684 28.12030763596411 28.076359641091376 28.05438564365501 27.988463651345906 27.96648965390954 27.90056766160044 27.90056766160044 27.87859366416407 27.834645669291337 27.81267167185497 27.768723676982237 27.724775682109502 27.702801684673137 27.68082768723677 27.658853689800402 27.636879692364037 27.636879692364037 27.614905694927668 27.592931697491302 27.592931697491302 27.592931697491302 27.614905694927668 27.614905694927668 27.614905694927668 27.614905694927668 27.592931697491302 27.614905694927668 27.592931697491302 27.592931697491302 27.592931697491302 27.570957700054933 27.570957700054933 27.570957700054933 27.570957700054933 27.570957700054933 27.570957700054933 27.548983702618568 27.570957700054933 27.570957700054933 27.570957700054933 27.548983702618568 27.548983702618568 27.548983702618568 27.527009705182202 27.505035707745833 27.483061710309467 27.461087712873102 27.439113715436733 27.417139718000367 27.395165720564 27.351217725691264 27.307269730818533 27.285295733382164 27.263321735945798 27.241347738509432 27.219373741073063 27.219373741073063 27.219373741073063 27.219373741073063 27.241347738509432 27.241347738509432 27.219373741073063 27.219373741073063 27.197399743636698 27.197399743636698 27.197399743636698 27.17542574620033 27.17542574620033 27.153451748763963 27.153451748763963 27.131477751327594 27.10950375389123 27.087529756454863 27.04358176158213 26.999633766709394 26.97765976927303 26.911737776963925 26.88976377952756 26.88976377952756 26.88976377952756 26.88976377952756 26.88976377952756 26.88976377952756 26.911737776963925 26.911737776963925 26.911737776963925 26.933711774400294 26.933711774400294 26.95568577183666 26.95568577183666 26.95568577183666 26.95568577183666 26.95568577183666 26.95568577183666 26.95568577183666 26.97765976927303 26.95568577183666 26.97765976927303 26.999633766709394 27.02160776414576 27.04358176158213 27.04358176158213 27.04358176158213 27.04358176158213 27.04358176158213 27.02160776414576 26.999633766709394 26.97765976927303 26.95568577183666 26.95568577183666 26.95568577183666 26.95568577183666 26.933711774400294 26.933711774400294 26.933711774400294 26.933711774400294 26.933711774400294 26.933711774400294 26.95568577183666 26.97765976927303 26.95568577183666 26.999633766709394 26.999633766709394 26.999633766709394 26.999633766709394 27.02160776414576 27.02160776414576 27.02160776414576 27.02160776414576 27.04358176158213 27.04358176158213 27.04358176158213 27.04358176158213 27.04358176158213 27.065555759018494 27.087529756454863 27.087529756454863 27.10950375389123 27.131477751327594 27.131477751327594 27.131477751327594 27.153451748763963 27.153451748763963 27.153451748763963 27.153451748763963 27.153451748763963 27.153451748763963 27.197399743636698 27.197399743636698 27.263321735945798 27.351217725691264 27.417139718000367 27.461087712873102 27.592931697491302 27.702801684673137 27.81267167185497 27.96648965390954 28.09833363852774 28.34004761032778 28.515839589818714 28.801501556491484 29.131111518036988 29.54861746932796 29.812305438564366 30.251785387291704 30.58139534883721 31.108771287310017 31.636147225782825 31.987731184764694 32.581029115546606 33.196301043764876 33.635780992492215 34.53671488738326 34.99816883354697 35.96502472074712 36.360556674601725 36.690166636147225 37.1735945797473 37.78886650796557 38.33821644387475 38.86559238234756 39.21717634132943 39.7006042849295 40.074162241347736 40.667460172129644 40.99707013367515 41.34865409265702 41.89800402856619 42.42537996703901 42.842885918329976 43.721845815784654 44.31514374656656 44.79857169016664 45.41384361838491 46.051089544039556 46.79820545687603 48.02874931331258 48.70994323383995 49.742721113349205 50.643655008240245 51.45669291338582 52.1378868339132 53.302508698040654 54.335286577549894 55.41201245193188 56.13715436733199 57.21388024171397 58.33455411096869 59.10364402124153 60.312213880241714 60.97143380333272 62.07013367515107 63.124885552096686 63.828053470060425 64.86083134956968 65.91558322651528 66.66269913935176 67.45376304706097 68.13495696758835 68.99194286760667 69.8928767624977 70.79381065738875 71.65079655740706 72.46383446255265 73.01318439846182 73.60648232924373 74.44149423182567 75.21058414209853 76.00164804980773 76.50704999084417 77.25416590368064 77.97930781908076 78.46273576268084 79.07800769089911 79.45156564731734 80.17670756271745 80.83592748580847 81.29738143197216 81.91265336019043 82.35213330891779 82.96740523713606 83.56070316791798 83.97820911920894 84.57150704999086 85.38454495513642 85.64823292437282 86.43929683208204 86.98864676799121 87.34023072697309 87.93352865775499 88.28511261673685 88.74656656290057 89.22999450650065 89.55960446804615 90.02105841420986 90.35066837575536 90.96594030397362 91.27357626808276 91.5812122321919 92.08661417322836 92.50412012451932 92.96557407068303 93.22926203991943 93.49295000915583 93.88848196301043 94.26203991942867 94.52572788866507 94.98718183482879 95.33876579381067 95.60245376304707 95.9760117194653 96.26167368613807 96.5693096502472 96.78904962461088 97.14063358359276 97.36037355795642 97.51419154001098 97.55813953488372 97.5801135323201 97.5801135323201 97.53616553744736 97.47024354513825 97.36037355795642 97.14063358359276 96.87694561435634 96.67917963742904 96.3056216810108 95.99798571690167 95.60245376304707 95.33876579381067 95.05310382713789 94.50375389122871 94.06427394250137 93.75663797839223 93.27321003479217 92.8557040835012 92.43819813221022 92.06464017579198 91.60318622962828 91.1197582860282 90.7901483244827 90.41659036806446 90.02105841420986 89.71342245010072 89.33986449368247 88.9882805347006 88.7245925654642 88.35103460904597 88.06537264237319 87.69181468595497 87.25233473722761 86.83482878593665 86.3953488372093 86.1316608679729 85.8020509064274 85.36257095770006 85.01098699871818 84.1320271012635 83.78044314228164 83.42885918329976 82.96740523713606 82.46200329609962 82.08844533968139 81.62699139351767 81.25343343709943 80.79197949093573 80.30855154733565 79.95696758835379 79.42959164988098 78.90221571140816 78.5506317524263 77.9573338216444 77.47390587804432 76.96850393700788 76.33125801135323 75.89177806262589 75.05676616004395 74.35359824208021 73.78227430873466 73.34279436000733 72.72752243178905 71.98040651895258 71.25526460355246 70.68394067020692 70.06866874198866 69.3655008240249 68.90404687786119 68.26680095220655 67.82732100347921 67.1681010803882 66.5088811572972 65.9815052188244 65.45412928035158 64.88280534700604 64.48727339315144 63.915949459805894 63.432521516205824 62.75132759567845 62.20197765976927 61.7844717084783 61.19117377769639 60.795641823841784 60.422083867423545 59.740889946896175 59.191540010987 58.8619300494415 58.35652810840505 57.98297015198681 57.56546420069584 57.257828236586704 56.752426295550265 56.26899835195019 55.93938839040469 55.45596044680461 55.08240249038637 54.70884453396813 54.29133858267717 54.04962461087713 53.829884636513455 53.456326680095216 53.192638710858816 52.863028749313315 52.40157480314961 52.09393883904047 51.6764328877495 51.34682292620399 50.97326496978575 50.511811023622045 49.940487090276505 49.43508514924007 48.90770921076726 48.49020325947629 48.00677531587621 47.63321735945797 46.908075444057864 46.556491485075995 46.16095953122139 45.61160959531222 45.10620765427578 44.64475370811206 44.11737776963926 43.787767808093754 43.348287859366415 43.062625892693646 42.798937923457245 42.42537996703901 41.87603003112983 41.59036806445706 41.17286211316609 40.86522614905695 40.447720197765975 40.008240249038636 39.722578282365866 39.32704632851126 38.90954037722029 38.60190441311115 38.18439846182018 37.92071049258378 37.5691265336019 37.2395165720564 37.019776597692726 36.712140633583594 36.492400659219925 36.16279069767442 35.85515473356528 35.41567478483794 35.21790880791064 34.99816883354697 34.7784288591833 34.40487090276506 34.16315693096502 33.943416956601354 33.701702984801315 33.525911005310384 33.306171030946714 33.174327046328514 33.04248306171031 32.91063907709211 32.800769089910276 32.62497711041934 32.4491851309284 32.33931514374657 32.14154916681926 31.96575718732833 31.78996520783739 31.59219923091009 31.37245925654642 31.196667277055482 30.976927302691813 30.779161325764512 30.42757736678264 30.251785387291704 30.032045412928035 29.63651345907343 29.284929500091557 29.021241530855153 28.62570957700055 28.34004761032778 27.988463651345906 27.658853689800402 27.461087712873102 27.241347738509432 27.10950375389123 26.88976377952756 26.80186778978209 26.67002380516389 26.560153817982055 26.472257828236586 26.406335835927486 26.340413843618386 26.29646584874565 26.274491851309286 26.274491851309286 26.274491851309286 26.274491851309286 26.23054385643655 26.23054385643655 26.208569859000182 26.208569859000182 26.186595861563816 26.186595861563816 26.164621864127447 26.164621864127447 26.164621864127447 26.14264786669108 26.120673869254716 26.14264786669108 26.120673869254716 26.120673869254716 26.120673869254716 26.098699871818347 26.098699871818347 26.098699871818347 26.07672587438198 26.07672587438198 26.032777879509247 26.01080388207288 25.988829884636512 25.944881889763778 25.944881889763778 25.922907892327412 25.900933894891047 25.900933894891047 25.878959897454678 25.878959897454678 25.878959897454678 25.878959897454678 25.856985900018312 25.856985900018312 25.856985900018312 25.878959897454678 25.856985900018312 25.856985900018312 25.856985900018312 25.835011902581943 25.835011902581943 25.835011902581943 25.835011902581943 25.835011902581943 25.835011902581943 25.856985900018312 25.856985900018312 25.835011902581943 25.856985900018312 25.856985900018312 25.856985900018312 25.835011902581943 25.856985900018312 25.835011902581943 25.856985900018312 25.856985900018312 25.856985900018312 25.856985900018312 25.856985900018312 25.856985900018312 25.856985900018312 25.856985900018312 25.856985900018312 25.856985900018312 25.856985900018312 25.856985900018312 25.856985900018312 25.856985900018312 25.856985900018312 25.856985900018312 25.856985900018312 25.856985900018312 25.856985900018312 25.856985900018312 25.856985900018312 25.856985900018312 25.856985900018312 25.856985900018312 25.856985900018312 25.856985900018312 25.835011902581943 25.835011902581943 25.856985900018312 25.856985900018312 25.835011902581943 25.835011902581943 25.835011902581943 25.835011902581943 25.835011902581943 25.856985900018312 25.835011902581943 25.835011902581943 25.856985900018312 25.835011902581943 25.835011902581943 25.835011902581943 25.856985900018312 25.835011902581943 25.835011902581943 25.835011902581943 25.835011902581943 25.856985900018312 25.835011902581943 25.835011902581943 25.835011902581943 25.835011902581943 25.835011902581943 25.835011902581943 25.835011902581943 25.835011902581943 25.835011902581943 25.835011902581943 25.835011902581943 25.835011902581943 25.835011902581943 25.835011902581943 25.835011902581943 25.835011902581943 25.835011902581943 25.835011902581943 25.835011902581943 25.835011902581943 25.835011902581943 25.835011902581943 25.835011902581943 25.835011902581943 25.835011902581943 25.835011902581943 25.835011902581943 25.835011902581943 25.835011902581943 25.835011902581943 25.835011902581943 25.835011902581943 25.835011902581943 25.835011902581943 25.835011902581943 25.835011902581943 25.835011902581943 25.835011902581943 25.835011902581943 25.835011902581943 25.835011902581943 25.835011902581943 25.835011902581943 25.835011902581943 25.835011902581943 25.835011902581943 25.835011902581943 25.835011902581943 25.835011902581943 25.835011902581943 25.835011902581943 25.835011902581943 25.813037905145578 25.835011902581943 25.813037905145578 25.835011902581943 25.835011902581943 25.813037905145578 25.835011902581943 25.835011902581943 25.813037905145578 25.835011902581943 25.813037905145578 25.835011902581943 25.835011902581943 25.835011902581943 25.835011902581943 25.813037905145578 25.835011902581943 25.835011902581943 25.835011902581943 25.835011902581943 25.835011902581943 25.835011902581943 25.835011902581943 25.835011902581943 25.835011902581943 25.813037905145578 25.835011902581943 25.813037905145578 25.813037905145578 25.813037905145578 25.813037905145578 25.835011902581943 25.835011902581943 25.835011902581943 25.835011902581943 25.835011902581943 25.835011902581943 25.813037905145578 25.835011902581943 25.813037905145578 25.835011902581943 25.835011902581943 25.835011902581943 25.813037905145578 25.835011902581943 25.835011902581943 25.835011902581943 25.835011902581943 25.835011902581943 25.835011902581943 25.835011902581943 25.835011902581943 25.835011902581943 25.813037905145578 25.813037905145578 25.835011902581943 25.835011902581943 25.835011902581943 25.835011902581943 25.835011902581943 25.835011902581943 25.835011902581943 25.835011902581943 25.813037905145578 25.813037905145578 25.813037905145578 25.835011902581943 25.835011902581943 25.835011902581943 25.835011902581943 25.813037905145578 25.813037905145578 25.813037905145578 25.813037905145578 25.835011902581943 25.813037905145578 25.813037905145578 25.813037905145578 25.813037905145578 25.813037905145578 25.813037905145578 25.813037905145578 25.813037905145578 25.813037905145578 25.813037905145578 25.813037905145578 25.813037905145578 25.813037905145578 25.813037905145578 25.813037905145578 25.813037905145578 25.813037905145578 25.813037905145578 25.813037905145578 25.835011902581943 25.813037905145578 25.813037905145578 25.813037905145578 25.813037905145578 25.813037905145578 25.813037905145578 25.813037905145578 25.813037905145578 25.813037905145578 25.813037905145578 25.813037905145578 25.813037905145578 25.813037905145578 25.813037905145578 25.813037905145578 25.813037905145578 25.813037905145578 25.813037905145578 25.813037905145578 25.813037905145578 25.813037905145578 25.813037905145578 25.813037905145578 25.813037905145578 25.813037905145578 25.813037905145578 25.813037905145578 25.813037905145578 25.813037905145578 25.813037905145578 25.813037905145578 25.813037905145578 25.813037905145578 25.813037905145578 25.813037905145578 25.813037905145578 25.813037905145578 25.813037905145578 25.813037905145578 25.813037905145578 25.813037905145578 25.813037905145578 25.813037905145578 25.813037905145578 25.813037905145578 25.813037905145578 25.835011902581943 25.813037905145578 25.813037905145578 25.813037905145578 25.813037905145578 25.813037905145578 25.813037905145578 25.813037905145578 25.813037905145578 25.813037905145578 25.813037905145578 25.813037905145578 25.813037905145578 25.813037905145578 25.813037905145578 25.813037905145578 25.813037905145578 25.813037905145578 25.813037905145578 25.813037905145578 25.813037905145578 25.813037905145578 25.813037905145578 25.813037905145578 25.813037905145578 25.813037905145578 25.813037905145578 25.813037905145578 25.813037905145578 25.813037905145578 25.813037905145578 25.813037905145578 25.813037905145578 25.813037905145578 25.813037905145578 25.813037905145578 25.813037905145578 25.813037905145578 25.813037905145578 25.813037905145578 25.813037905145578 25.813037905145578 25.813037905145578 25.813037905145578 25.813037905145578 25.813037905145578 25.791063907709212 25.813037905145578 25.791063907709212 25.813037905145578 25.813037905145578 25.813037905145578 25.813037905145578 25.813037905145578 25.791063907709212 25.791063907709212 25.791063907709212 25.813037905145578 25.813037905145578 25.813037905145578 25.813037905145578 25.813037905145578 25.813037905145578 25.813037905145578 25.813037905145578 25.813037905145578 25.813037905145578 25.813037905145578 25.835011902581943 25.813037905145578 25.835011902581943 25.813037905145578 25.835011902581943 25.835011902581943 25.835011902581943 25.835011902581943 25.835011902581943 25.835011902581943 25.835011902581943 25.835011902581943 25.835011902581943 25.835011902581943 25.835011902581943 25.835011902581943 25.835011902581943 25.813037905145578 25.813037905145578 25.813037905145578 25.835011902581943 25.813037905145578 25.813037905145578 25.813037905145578 25.813037905145578 25.813037905145578 25.813037905145578 25.813037905145578 25.813037905145578 25.813037905145578 25.813037905145578 25.813037905145578 25.813037905145578 25.813037905145578 25.813037905145578 25.813037905145578 25.813037905145578 25.813037905145578 25.813037905145578 25.813037905145578 25.813037905145578 25.813037905145578 25.813037905145578 25.813037905145578 25.813037905145578 25.813037905145578 25.813037905145578 25.835011902581943 25.835011902581943 25.835011902581943 25.835011902581943 25.835011902581943 25.835011902581943 25.835011902581943 25.813037905145578 25.813037905145578 25.835011902581943 25.835011902581943 25.835011902581943 25.835011902581943 25.835011902581943 25.835011902581943 25.813037905145578 25.835011902581943 25.835011902581943 25.835011902581943 25.835011902581943 25.835011902581943 25.835011902581943 25.835011902581943 25.835011902581943 25.835011902581943 25.813037905145578 25.835011902581943 25.835011902581943 25.835011902581943 25.835011902581943 25.835011902581943 25.835011902581943 25.835011902581943 25.835011902581943 25.835011902581943 25.835011902581943 25.835011902581943 25.835011902581943 25.835011902581943 25.835011902581943 25.835011902581943 25.835011902581943 25.835011902581943 25.835011902581943 25.813037905145578 25.835011902581943 25.813037905145578 25.813037905145578 25.835011902581943 25.835011902581943 25.835011902581943 25.835011902581943 25.835011902581943 25.835011902581943 25.835011902581943 25.813037905145578 25.835011902581943 25.835011902581943 25.813037905145578 25.813037905145578 25.813037905145578 25.813037905145578 25.835011902581943 25.813037905145578 25.813037905145578 25.813037905145578 25.813037905145578 25.813037905145578 25.813037905145578 25.835011902581943 25.813037905145578 25.813037905145578 25.813037905145578 25.813037905145578 25.813037905145578 25.813037905145578 25.835011902581943 25.835011902581943 25.813037905145578 25.835011902581943 25.835011902581943 25.835011902581943 25.813037905145578 25.835011902581943 25.835011902581943 25.835011902581943 25.835011902581943 25.835011902581943 25.813037905145578 25.835011902581943 25.835011902581943 25.835011902581943 25.835011902581943 25.835011902581943 25.835011902581943 25.835011902581943 25.835011902581943 25.835011902581943 25.835011902581943 25.835011902581943 25.835011902581943 25.835011902581943 25.835011902581943 25.835011902581943 25.835011902581943 25.835011902581943 25.835011902581943 