29.0 29.0 29.0 29.0 29.0 29.0 29.0 29.0 29.0 29.0 29.0 29.0 29.0 29.0 29.0 29.0 29.0 29.0 29.0 29.0 29.0 29.0 29.0 29.0 29.0 29.0 29.0 29.0 29.0 29.0 29.0 29.0 29.0 29.0 29.0 29.0 29.0 29.0 29.0 29.0 29.0 29.0 29.0 29.0 29.0 29.0 29.0 29.0 29.0 29.0 29.030763596410914 29.0 29.0 29.0 29.0 29.0 29.0 29.0 29.0 29.0 29.0 29.0 29.0 29.0 29.0 29.0 29.0 29.0 29.0 29.0 29.0 29.0 29.0 29.0 29.0 29.0 29.0 29.030763596410914 29.0 29.0 29.0 29.0 29.0 29.0 29.0 29.0 29.0 29.0 29.030763596410914 29.0 29.0 29.0 29.0 29.0 29.0 29.0 29.0 29.0 29.0 29.0 29.0 29.0 29.0 29.0 29.0 29.0 29.0 29.0 29.0 29.0 29.0 29.0 29.0 29.0 29.0 29.0 29.0 29.0 29.0 29.0 29.0 29.0 29.0 29.0 29.0 29.0 29.0 29.0 29.0 29.0 29.0 29.0 29.0 29.0 29.0 29.0 29.0 29.0 29.0 29.0 29.0 29.0 29.0 29.0 29.0 29.0 29.0 29.0 29.0 29.0 29.0 29.0 29.0 29.0 29.0 29.0 29.0 29.0 29.0 29.0 29.0 29.0 29.0 29.0 29.0 29.0 29.0 29.0 29.0 29.0 29.0 29.030763596410914 29.0 29.0 29.0 29.0 29.0 29.0 29.0 29.0 29.0 29.0 29.0 29.0 29.0 29.0 29.0 29.0 29.0 29.0 29.0 29.0 29.0 29.0 29.0 29.0 29.030763596410914 29.0 29.0 29.0 29.0 29.0 29.0 29.0 29.0 29.0 29.0 29.0 29.0 29.0 29.0 29.0 29.0 29.0 29.0 29.0 29.0 29.0 29.0 29.0 29.0 29.0 29.0 29.0 29.0 29.0 29.0 29.0 29.0 29.0 29.0 29.0 29.0 29.0 29.0 29.0 29.0 29.0 29.0 29.0 29.0 29.0 29.0 29.0 29.0 29.0 29.0 29.0 29.0 29.0 29.0 29.0 29.0 29.0 29.0 29.0 29.0 29.0 29.0 29.0 29.0 29.0 29.0 29.0 29.0 29.0 29.0 29.0 29.0 29.0 29.0 29.0 29.0 29.0 29.0 29.0 29.0 29.0 29.0 29.0 29.0 29.0 29.0 29.0 29.0 29.0 29.0 29.0 29.0 29.0 29.0 29.0 29.0 29.0 29.0 29.0 29.0 29.0 29.0 29.0 29.0 29.0 29.0 29.0 29.0 29.0 29.0 29.0 29.0 29.0 29.0 29.0 29.0 29.0 29.0 29.0 29.0 29.0 29.0 29.0 29.0 29.0 29.0 29.0 29.030763596410914 29.0 29.0 29.0 29.0 29.0 29.0 29.0 29.0 29.0 29.0 29.0 29.0 29.0 29.0 29.0 29.0 29.0 29.0 29.0 29.0 29.0 29.0 29.0 29.0 29.0 29.030763596410914 29.0 29.0 29.0 29.0 29.0 29.0 29.0 29.0 29.0 29.0 29.0 29.0 29.0 29.0 29.0 29.0 29.0 29.0 29.0 29.0 29.0 29.0 29.0 29.0 29.0 29.0 29.0 29.0 29.0 29.0 29.0 29.0 29.0 29.0 29.0 29.0 29.0 29.0 29.0 29.0 29.0 29.0 29.0 29.0 29.0 29.0 29.0 29.0 29.0 29.0 29.0 29.0 29.0 29.0 29.0 29.0 29.0 29.0 29.0 29.0 29.0 29.0 29.0 29.0 29.0 29.0 29.0 29.0 29.0 29.0 29.0 29.0 29.0 29.0 29.0 29.0 29.0 29.0 29.0 29.0 29.0 29.0 29.030763596410914 29.0 29.0 29.0 29.0 29.0 29.0 29.0 29.0 29.0 29.030763596410914 29.0 29.0 29.0 29.0 29.0 29.0 29.0 29.0 29.0 29.0 29.0 29.0 29.0 29.0 29.0 29.0 29.0 29.0 29.0 29.0 29.0 29.0 29.0 29.0 29.0 29.0 29.0 29.0 29.0 29.0 29.0 29.0 29.0 29.0 29.0 29.0 29.0 29.0 29.0 29.0 29.0 29.0 29.0 29.0 29.0 29.0 29.0 29.0 29.0 29.0 29.0 29.0 29.0 29.0 29.0 29.0 29.0 29.0 29.0 29.0 29.0 29.0 29.0 29.0 29.0 29.0 29.0 29.0 29.0 29.0 29.0 29.0 29.0 29.0 29.0 29.0 29.0 29.0 29.0 29.0 29.0 29.0 29.0 29.0 29.0 29.0 29.0 29.030763596410914 29.0 29.0 29.0 29.0 29.0 29.0 29.0 29.0 29.0 29.0 29.0 29.0 29.0 29.0 29.0 29.0 29.0 29.0 29.0 29.0 29.0 29.0 29.0 29.0 29.0 29.0 29.0 29.0 29.0 29.0 29.0 29.0 29.0 29.0 29.0 29.0 29.0 29.0 29.0 29.0 29.0 29.0 29.0 29.0 29.0 29.0 29.0 29.0 29.0 29.0 29.0 29.0 29.0 29.0 29.0 29.0 29.0 29.0 29.0 29.0 29.0 29.0 29.0 29.0 29.0 29.0 29.0 29.0 29.0 29.0 29.030763596410914 29.0 29.0 29.0 29.0 29.0 29.0 29.0 29.0 29.0 29.0 29.0 29.0 29.030763596410914 29.030763596410914 29.030763596410914 29.061527192821828 29.061527192821828 29.061527192821828 29.09229078923274 29.09229078923274 29.09229078923274 29.123054385643655 29.15381798205457 29.15381798205457 29.15381798205457 29.184581578465483 29.184581578465483 29.24610877128731 29.276872367698225 29.369163156930966 29.39992675334188 29.49221754257462 29.58450833180736 29.646035524629188 29.73832631386193 29.861380699505585 29.98443508514924 30.107489470792896 30.23054385643655 30.38436183849112 30.47665262772386 30.538179820545686 30.5689434169566 30.599707013367514 30.630470609778428 30.691997802600255 30.753524995422083 30.81505218824391 30.907342977476652 30.96887017029848 31.030397363120308 31.06116095953122 31.06116095953122 31.06116095953122 31.091924555942136 31.091924555942136 31.153451748763963 31.184215345174877 31.27650613440762 31.399560520051274 31.522614905694926 31.614905694927668 31.70719648416041 31.79948727339315 31.95330525544772 32.107123237502286 32.23017762314594 32.414759201611425 32.568577183665994 32.72239516572056 32.93774034059696 33.2453763047061 33.33766709393884 33.55301226881524 33.76835744369163 34.01446621497894 34.26057498626625 34.475920161142646 34.783556125251785 35.09119208936092 35.36806445705915 35.64493682475737 35.952572788866505 36.29097234938656 36.66013550631752 37.02929866324849 37.398461820179456 37.82915216993224 38.25984251968504 38.629005676616 39.0596960263688 39.49038637612159 39.95184032228529 40.413294268449 40.90551181102362 41.36696575718733 42.16681926387108 42.59750961362388 43.274308734663975 43.95110785570408 44.381798205456874 45.05859732649698 45.643105658304336 46.043032411646216 46.56601355063175 46.904413111151804 47.36586705731551 47.7965574070683 48.073429774766524 48.411829335286576 48.84251968503936 48.96557407068302 49.18091924555942 49.334737227613985 49.51931880607947 49.55008240249039 49.61160959531221 49.61160959531221 49.642373191723124 49.61160959531221 49.61160959531221 49.61160959531221 49.61160959531221 49.61160959531221 49.61160959531221 49.61160959531221 49.580845998901296 49.580845998901296 49.51931880607947 49.48855520966856 49.427028016846734 49.39626442043581 49.365500824024906 49.365500824024906 49.334737227613985 49.334737227613985 49.365500824024906 49.334737227613985 49.365500824024906 49.365500824024906 49.365500824024906 49.365500824024906 49.39626442043581 49.39626442043581 49.427028016846734 49.45779161325764 49.48855520966856 49.51931880607947 49.55008240249039 49.61160959531221 49.70390038454495 49.76542757736678 49.82695477018861 49.85771836659953 49.888481963010435 49.95000915583226 49.980772752243176 50.01153634865409 50.01153634865409 50.042299945065004 50.042299945065004 50.042299945065004 50.042299945065004 50.042299945065004 50.042299945065004 50.042299945065004 50.042299945065004 50.042299945065004 50.042299945065004 50.042299945065004 50.042299945065004 50.042299945065004 50.042299945065004 50.042299945065004 50.042299945065004 50.042299945065004 50.042299945065004 50.042299945065004 50.042299945065004 50.042299945065004 50.042299945065004 50.042299945065004 50.042299945065004 50.042299945065004 50.042299945065004 50.042299945065004 50.042299945065004 50.042299945065004 50.042299945065004 50.042299945065004 50.042299945065004 50.042299945065004 50.042299945065004 50.042299945065004 50.042299945065004 50.042299945065004 50.042299945065004 50.042299945065004 50.042299945065004 50.042299945065004 50.042299945065004 50.042299945065004 50.01153634865409 50.042299945065004 50.042299945065004 50.042299945065004 50.042299945065004 50.042299945065004 50.07306354147592 50.10382713788683 50.16535433070866 50.19611792711957 50.22688152353049 50.2576451199414 50.288408716352315 50.288408716352315 50.31917231276323 50.34993590917414 50.34993590917414 50.380699505585056 50.380699505585056 50.380699505585056 50.380699505585056 50.41146310199597 50.41146310199597 50.380699505585056 50.41146310199597 50.41146310199597 50.41146310199597 50.41146310199597 50.380699505585056 50.41146310199597 50.41146310199597 50.41146310199597 50.380699505585056 50.380699505585056 50.380699505585056 50.41146310199597 50.41146310199597 50.41146310199597 50.41146310199597 50.41146310199597 50.41146310199597 50.41146310199597 50.41146310199597 50.41146310199597 50.41146310199597 50.41146310199597 50.41146310199597 50.41146310199597 50.41146310199597 50.41146310199597 50.41146310199597 50.41146310199597 50.41146310199597 50.41146310199597 50.41146310199597 50.41146310199597 50.41146310199597 50.41146310199597 50.41146310199597 50.41146310199597 50.442226698406884 50.41146310199597 50.41146310199597 50.41146310199597 50.41146310199597 50.41146310199597 50.41146310199597 50.41146310199597 50.41146310199597 50.41146310199597 50.41146310199597 50.41146310199597 50.41146310199597 50.41146310199597 50.41146310199597 50.41146310199597 50.41146310199597 50.41146310199597 50.41146310199597 50.442226698406884 50.4729902948178 50.50375389122871 50.534517487639626 50.56528108405054 50.596044680461446 50.62680827687237 50.62680827687237 50.65757187328328 50.62680827687237 50.62680827687237 50.62680827687237 50.62680827687237 50.62680827687237 50.62680827687237 50.62680827687237 50.62680827687237 50.62680827687237 50.65757187328328 50.62680827687237 50.65757187328328 50.65757187328328 50.65757187328328 50.62680827687237 50.65757187328328 50.65757187328328 50.62680827687237 50.62680827687237 50.62680827687237 50.62680827687237 50.596044680461446 50.534517487639626 50.380699505585056 50.19611792711957 50.042299945065004 49.79619117377769 49.61160959531221 49.30397363120308 48.96557407068302 48.719465299395715 48.25801135323201 48.011902581944696 47.7965574070683 47.36586705731551 47.05823109320637 46.750595129097235 46.41219556857718 46.16608679728987 45.735396447537084 45.3354696941952 45.05859732649698 44.6586705731551 44.35103460904596 43.88958066288225 43.42812671671855 43.0897271561985 42.68980040285662 42.32063724592565 42.013001281816514 41.64383812488555 41.39772935359824 40.90551181102362 40.56711225050357 40.444057864859914 40.01336751510712 39.674967954587075 39.55191356894342 39.121223219190625 38.8443508514924 38.567478483794176 38.22907892327412 37.98297015198681 37.58304339864493 37.152353048892145 36.84471708478301 36.41402673503021 36.106390770921074 35.67570042116829 35.24501007141549 34.87584691448453 34.56821095037539 34.41439296832082 34.26057498626625 34.075993407800766 33.95293902215711 33.829884636513455 33.73759384728072 33.614539461637065 33.49148507599341 33.368430690349754 33.30690349752793 33.12232191906244 32.968503937007874 32.84544955136422 32.660867972898735 32.507049990844166 32.260941219556855 32.014832448269544 31.830250869804065 31.64566929133858 31.522614905694926 31.307269730818533 31.184215345174877 31.06116095953122 30.938106573887566 30.87657938106574 30.81505218824391 30.72276139901117 30.630470609778428 30.47665262772386 30.261307452847465 30.199780260025637 30.169016663614723 30.13825306720381 30.107489470792896 30.045962277971068 29.98443508514924 29.922907892327412 29.83061710309467 29.769089910272843 29.73832631386193 29.73832631386193 29.73832631386193 29.73832631386193 29.707562717451015 29.6767991210401 29.646035524629188 29.646035524629188 29.615271928218274 29.615271928218274 29.58450833180736 29.58450833180736 29.58450833180736 29.553744735396446 29.553744735396446 29.522981138985532 29.522981138985532 29.522981138985532 29.522981138985532 29.522981138985532 29.49221754257462 29.49221754257462 29.49221754257462 29.49221754257462 29.49221754257462 29.461453946163708 29.461453946163708 29.461453946163708 29.461453946163708 29.461453946163708 29.461453946163708 29.461453946163708 29.461453946163708 29.461453946163708 29.430690349752794 29.430690349752794 29.430690349752794 29.430690349752794 29.430690349752794 29.430690349752794 29.430690349752794 29.430690349752794 29.430690349752794 29.430690349752794 29.461453946163708 29.430690349752794 29.430690349752794 29.430690349752794 29.430690349752794 29.430690349752794 29.430690349752794 29.430690349752794 29.430690349752794 29.430690349752794 29.430690349752794 29.430690349752794 29.430690349752794 29.39992675334188 29.430690349752794 29.430690349752794 29.39992675334188 29.430690349752794 29.39992675334188 29.430690349752794 29.39992675334188 29.39992675334188 29.39992675334188 29.39992675334188 29.39992675334188 29.39992675334188 29.39992675334188 29.39992675334188 29.39992675334188 29.39992675334188 29.39992675334188 29.39992675334188 29.39992675334188 29.39992675334188 29.39992675334188 29.39992675334188 29.39992675334188 29.39992675334188 29.39992675334188 29.39992675334188 29.39992675334188 29.39992675334188 29.39992675334188 29.39992675334188 29.39992675334188 29.39992675334188 29.39992675334188 29.39992675334188 29.39992675334188 29.39992675334188 29.39992675334188 29.39992675334188 29.39992675334188 29.39992675334188 29.39992675334188 29.39992675334188 29.39992675334188 29.39992675334188 29.39992675334188 29.39992675334188 29.39992675334188 29.39992675334188 29.39992675334188 29.39992675334188 29.39992675334188 29.39992675334188 29.39992675334188 29.39992675334188 29.39992675334188 29.39992675334188 29.39992675334188 29.39992675334188 29.39992675334188 29.39992675334188 29.39992675334188 29.39992675334188 29.39992675334188 29.39992675334188 29.39992675334188 29.39992675334188 29.39992675334188 29.39992675334188 29.39992675334188 29.39992675334188 29.39992675334188 29.39992675334188 29.39992675334188 29.39992675334188 29.39992675334188 29.39992675334188 29.39992675334188 29.39992675334188 29.39992675334188 29.39992675334188 29.39992675334188 29.39992675334188 29.39992675334188 29.39992675334188 29.39992675334188 29.39992675334188 29.39992675334188 29.39992675334188 29.39992675334188 29.39992675334188 29.39992675334188 29.39992675334188 29.39992675334188 29.39992675334188 29.39992675334188 29.39992675334188 29.39992675334188 29.39992675334188 29.39992675334188 29.39992675334188 29.39992675334188 29.39992675334188 29.39992675334188 29.39992675334188 29.39992675334188 29.39992675334188 29.39992675334188 29.39992675334188 29.39992675334188 29.39992675334188 29.39992675334188 29.39992675334188 29.39992675334188 29.39992675334188 29.39992675334188 29.39992675334188 29.39992675334188 29.39992675334188 29.39992675334188 29.369163156930966 29.39992675334188 29.39992675334188 29.39992675334188 29.39992675334188 29.39992675334188 29.369163156930966 29.39992675334188 29.39992675334188 29.369163156930966 29.39992675334188 29.39992675334188 29.39992675334188 29.39992675334188 29.39992675334188 29.39992675334188 29.39992675334188 29.369163156930966 29.39992675334188 29.39992675334188 29.39992675334188 29.39992675334188 29.369163156930966 29.39992675334188 29.39992675334188 29.39992675334188 29.39992675334188 29.39992675334188 29.369163156930966 29.369163156930966 29.39992675334188 29.39992675334188 29.369163156930966 29.369163156930966 29.369163156930966 29.39992675334188 29.39992675334188 29.39992675334188 29.369163156930966 29.39992675334188 29.39992675334188 29.39992675334188 29.39992675334188 29.369163156930966 29.39992675334188 29.369163156930966 29.369163156930966 29.39992675334188 29.39992675334188 29.39992675334188 29.39992675334188 29.39992675334188 29.39992675334188 29.39992675334188 29.39992675334188 29.39992675334188 29.39992675334188 29.39992675334188 29.369163156930966 29.39992675334188 29.39992675334188 29.39992675334188 29.39992675334188 29.39992675334188 29.39992675334188 29.39992675334188 29.39992675334188 29.39992675334188 29.39992675334188 29.39992675334188 29.39992675334188 29.39992675334188 29.430690349752794 29.430690349752794 29.461453946163708 29.461453946163708 29.461453946163708 29.49221754257462 29.49221754257462 29.49221754257462 29.522981138985532 29.522981138985532 29.553744735396446 29.553744735396446 29.553744735396446 29.553744735396446 29.58450833180736 29.58450833180736 29.6767991210401 29.707562717451015 29.73832631386193 29.799853506683757 29.861380699505585 29.8921442959165 29.922907892327412 29.953671488738326 30.045962277971068 30.107489470792896 30.169016663614723 30.199780260025637 30.322834645669293 30.445889031312948 30.538179820545686 30.630470609778428 30.691997802600255 30.753524995422083 30.845815784654825 31.030397363120308 31.091924555942136 31.21497894158579 31.307269730818533 31.399560520051274 31.522614905694926 31.64566929133858 31.79948727339315 31.984068851858634 32.168650430324114 32.44552279802234 32.72239516572056 32.906976744186046 33.214612708295185 33.39919428676067 33.7068302508698 34.075993407800766 34.41439296832082 35.029664896539096 35.39882805347006 35.706464017579194 36.106390770921074 36.444790331441126 36.93700787401575 37.61380699505585 37.9522065555759 38.44442409815052 38.93664164072514 39.21351400842337 39.79802234023072 40.136421900750776 40.65940303973631 41.12085698590002 41.459256546420065 41.92071049258377 42.35140084233657 42.62827321003479 42.99743636696576 43.24354513825307 43.5511811023622 43.88958066288225 44.10492583775865 44.41256180186779 44.84325215162058 45.02783373008606 45.30470609778429 45.52005127266068 46.0122688152353 46.28914118293353 46.68906793627541 47.05823109320637 47.45815784654825 47.67350302142465 48.104193371177445 48.38106573887566 48.780992492217536 49.1501556491485 49.427028016846734 49.82695477018861 50.10382713788683 50.534517487639626 50.96520783739241 51.27284380150155 51.67277055484343 52.19575169382897 52.44186046511628 52.718732832814496 52.96484160410181 53.303241164621866 53.580113532320084 53.79545870719648 54.16462186412745 54.41073063541476 54.59531221388024 54.77989379234572 54.90294817798937 54.99523896722212 55.05676616004395 55.087529756454856 55.11829335286578 55.11829335286578 55.11829335286578 55.11829335286578 55.11829335286578 55.11829335286578 55.11829335286578 55.11829335286578 55.087529756454856 55.087529756454856 55.05676616004395 55.05676616004395 55.026002563633035 54.99523896722212 54.9644753708112 54.933711774400294 54.933711774400294 54.90294817798937 54.872184581578466 54.872184581578466 54.872184581578466 54.872184581578466 54.872184581578466 54.872184581578466 54.872184581578466 54.872184581578466 54.872184581578466 54.872184581578466 54.872184581578466 54.841420985167545 54.81065738875664 54.77989379234572 54.74913019593481 54.7183665995239 54.68760300311298 54.626075810291155 54.59531221388024 54.53378502105841 54.5030214246475 54.47225782823658 54.41073063541476 54.379967039003844 54.379967039003844 54.34920344259293 54.34920344259293 54.31843984618202 54.31843984618202 54.31843984618202 54.31843984618202 54.31843984618202 54.31843984618202 54.31843984618202 54.31843984618202 54.31843984618202 54.31843984618202 54.31843984618202 54.31843984618202 54.31843984618202 54.31843984618202 54.31843984618202 54.31843984618202 54.31843984618202 54.31843984618202 54.31843984618202 54.31843984618202 54.31843984618202 54.2876762497711 54.2876762497711 54.25691265336019 54.25691265336019 54.226149056949275 54.226149056949275 54.226149056949275 54.226149056949275 54.226149056949275 54.226149056949275 54.226149056949275 54.19538546053836 54.19538546053836 54.19538546053836 54.226149056949275 54.19538546053836 54.19538546053836 54.19538546053836 54.19538546053836 54.16462186412745 54.16462186412745 54.16462186412745 54.10309467130563 54.10309467130563 54.072331074894706 54.072331074894706 54.10309467130563 54.072331074894706 54.072331074894706 54.072331074894706 54.072331074894706 54.10309467130563 54.10309467130563 54.072331074894706 54.072331074894706 54.072331074894706 54.072331074894706 54.10309467130563 54.072331074894706 54.072331074894706 54.072331074894706 54.072331074894706 54.072331074894706 54.072331074894706 54.072331074894706 54.0415674784838 54.01080388207288 53.980040285661964 53.94927668925105 53.918513092840136 53.918513092840136 53.918513092840136 53.918513092840136 53.918513092840136 53.918513092840136 53.918513092840136 53.918513092840136 53.918513092840136 53.918513092840136 53.94927668925105 53.94927668925105 53.918513092840136 53.94927668925105 53.918513092840136 53.918513092840136 53.94927668925105 53.918513092840136 53.918513092840136 53.94927668925105 53.918513092840136 53.918513092840136 53.94927668925105 53.918513092840136 53.918513092840136 53.94927668925105 53.918513092840136 53.94927668925105 53.94927668925105 53.918513092840136 53.918513092840136 53.94927668925105 53.918513092840136 53.918513092840136 53.94927668925105 53.918513092840136 53.918513092840136 53.94927668925105 53.918513092840136 53.918513092840136 53.88774949642922 53.88774949642922 53.88774949642922 53.88774949642922 53.88774949642922 53.88774949642922 53.88774949642922 53.88774949642922 53.88774949642922 53.88774949642922 53.88774949642922 53.88774949642922 53.88774949642922 53.88774949642922 53.88774949642922 53.88774949642922 53.88774949642922 53.88774949642922 53.88774949642922 53.88774949642922 53.88774949642922 53.88774949642922 53.88774949642922 53.88774949642922 53.88774949642922 53.88774949642922 53.88774949642922 53.88774949642922 53.826222303607395 53.79545870719648 53.76469511078557 53.73393151437466 53.70316791796374 53.70316791796374 53.70316791796374 53.70316791796374 53.70316791796374 53.70316791796374 53.70316791796374 53.70316791796374 53.70316791796374 53.73393151437466 53.73393151437466 53.73393151437466 53.73393151437466 53.76469511078557 53.76469511078557 53.76469511078557 53.76469511078557 53.76469511078557 53.76469511078557 53.76469511078557 53.76469511078557 53.76469511078557 53.76469511078557 53.76469511078557 53.76469511078557 53.76469511078557 53.76469511078557 53.76469511078557 53.76469511078557 53.76469511078557 53.76469511078557 53.76469511078557 53.76469511078557 53.76469511078557 53.76469511078557 53.76469511078557 53.76469511078557 53.76469511078557 53.76469511078557 53.76469511078557 53.79545870719648 53.76469511078557 53.76469511078557 53.76469511078557 53.73393151437466 53.73393151437466 53.67240432155283 53.64164072514191 53.610877128731005 53.580113532320084 53.518586339498256 53.518586339498256 53.45705914667643 53.42629555026552 53.42629555026552 53.3955319538546 53.3955319538546 53.3955319538546 53.3955319538546 53.42629555026552 53.3955319538546 53.42629555026552 53.3955319538546 53.42629555026552 53.42629555026552 53.42629555026552 53.42629555026552 53.42629555026552 53.45705914667643 53.45705914667643 53.45705914667643 53.42629555026552 53.45705914667643 53.42629555026552 53.364768357443694 53.303241164621866 53.18018677897821 53.08789598974546 52.96484160410181 52.84178721845816 52.78026002563632 52.53415125434902 52.34956967588353 52.19575169382897 52.011170115363484 51.826588536898 51.64200695843252 51.42666178355613 51.242080205090645 50.995971433803334 50.71909906610511 50.56528108405054 50.288408716352315 50.10382713788683 49.82695477018861 49.580845998901296 49.365500824024906 49.119392052737595 48.9040468778612 48.565647317341146 48.38106573887566 48.22724775682109 47.91961179271196 47.73503021424648 47.5812122321919 47.304339864493684 47.1197582860282 46.87364951474089 46.62754074345358 46.38143197216627 46.13532320087896 45.79692364035891 45.58157846548251 45.27394250137337 45.089360922907886 44.72019776597693 44.381798205456874 44.01263504852591 43.7665262772386 43.39736312030763 43.15125434902033 42.75132759567845 42.47445522798022 42.07452847463834 41.73612891411829 41.5207837392419 41.18238417872185 40.843984618201794 40.56711225050357 40.25947628639443 40.01336751510712 39.644204358176154 39.24427760483428 38.967405237136056 38.59824208020509 38.075260941219554 37.82915216993224 37.521516205823104 37.24464383812489 36.87548068119392 36.506317524262954 36.13715436733199 35.82951840322285 35.52188243911371 35.36806445705915 35.183482878593665 34.99890130012818 34.75279252884087 34.44515656473173 34.29133858267716 34.075993407800766 33.829884636513455 33.64530305804798 33.55301226881524 33.42995788317158 33.27613990111701 33.12232191906244 33.0300311298297 32.93774034059696 32.87621314777513 32.84544955136422 32.75315876213148 32.69163156930965 32.59934078007691 32.47628639443325 32.414759201611425 32.32246841237868 32.29170481596777 32.23017762314594 32.168650430324114 32.107123237502286 32.04559604468046 31.922541659036806 31.86101446621498 31.737960080571323 31.676432887749495 31.55337850210584 31.430324116462188 31.338033327229446 31.27650613440762 31.153451748763963 31.06116095953122 30.999633766709394 30.907342977476652 30.845815784654825 30.784288591832997 30.72276139901117 30.66123420618934 30.599707013367514 30.538179820545686 30.445889031312948 30.38436183849112 30.29207104925838 30.23054385643655 30.169016663614723 30.045962277971068 29.98443508514924 29.922907892327412 29.8921442959165 29.861380699505585 29.83061710309467 29.83061710309467 29.799853506683757 29.769089910272843 29.73832631386193 29.73832631386193 29.707562717451015 29.707562717451015 29.707562717451015 29.707562717451015 29.707562717451015 29.707562717451015 29.6767991210401 29.707562717451015 29.6767991210401 29.6767991210401 29.6767991210401 29.707562717451015 29.6767991210401 29.6767991210401 29.6767991210401 29.6767991210401 29.6767991210401 29.6767991210401 29.6767991210401 29.6767991210401 29.646035524629188 29.6767991210401 29.6767991210401 29.6767991210401 29.6767991210401 29.6767991210401 29.6767991210401 29.6767991210401 29.6767991210401 29.6767991210401 29.6767991210401 29.646035524629188 29.646035524629188 29.6767991210401 29.646035524629188 29.646035524629188 29.646035524629188 29.646035524629188 29.646035524629188 29.646035524629188 29.646035524629188 29.646035524629188 29.646035524629188 29.646035524629188 29.646035524629188 29.615271928218274 29.646035524629188 29.646035524629188 29.615271928218274 29.646035524629188 29.646035524629188 29.615271928218274 29.646035524629188 29.615271928218274 29.615271928218274 29.615271928218274 29.615271928218274 29.615271928218274 29.615271928218274 29.615271928218274 29.615271928218274 29.615271928218274 29.615271928218274 29.615271928218274 29.615271928218274 29.615271928218274 29.615271928218274 29.615271928218274 29.615271928218274 29.615271928218274 29.615271928218274 29.615271928218274 29.615271928218274 29.615271928218274 29.615271928218274 29.615271928218274 29.615271928218274 29.615271928218274 29.615271928218274 29.615271928218274 29.615271928218274 29.615271928218274 29.615271928218274 29.615271928218274 29.615271928218274 29.615271928218274 29.615271928218274 29.615271928218274 29.615271928218274 29.615271928218274 29.615271928218274 29.615271928218274 29.615271928218274 29.615271928218274 29.615271928218274 29.615271928218274 29.615271928218274 29.58450833180736 29.58450833180736 29.58450833180736 29.615271928218274 29.615271928218274 29.58450833180736 29.615271928218274 29.615271928218274 29.615271928218274 29.615271928218274 29.615271928218274 29.58450833180736 29.58450833180736 29.58450833180736 29.615271928218274 29.58450833180736 29.58450833180736 29.58450833180736 29.58450833180736 29.58450833180736 29.58450833180736 29.58450833180736 29.58450833180736 29.58450833180736 29.58450833180736 29.615271928218274 29.58450833180736 29.58450833180736 29.58450833180736 29.58450833180736 29.615271928218274 29.58450833180736 29.58450833180736 29.58450833180736 29.58450833180736 29.615271928218274 29.58450833180736 29.615271928218274 29.615271928218274 29.58450833180736 29.615271928218274 29.58450833180736 29.615271928218274 29.58450833180736 29.58450833180736 29.58450833180736 29.58450833180736 29.58450833180736 29.58450833180736 29.58450833180736 29.615271928218274 29.615271928218274 29.58450833180736 29.58450833180736 29.58450833180736 29.58450833180736 29.58450833180736 29.58450833180736 29.615271928218274 29.58450833180736 29.58450833180736 29.58450833180736 29.58450833180736 29.58450833180736 29.58450833180736 29.58450833180736 29.58450833180736 29.58450833180736 29.58450833180736 29.58450833180736 29.58450833180736 29.58450833180736 29.58450833180736 29.58450833180736 29.58450833180736 29.58450833180736 29.58450833180736 29.58450833180736 29.58450833180736 29.58450833180736 29.58450833180736 29.58450833180736 29.58450833180736 29.58450833180736 29.58450833180736 29.58450833180736 29.58450833180736 29.58450833180736 29.58450833180736 29.58450833180736 29.58450833180736 29.58450833180736 29.58450833180736 29.58450833180736 29.58450833180736 29.58450833180736 29.58450833180736 29.58450833180736 29.58450833180736 29.58450833180736 29.58450833180736 29.58450833180736 29.58450833180736 29.58450833180736 29.58450833180736 29.58450833180736 29.58450833180736 29.58450833180736 29.58450833180736 29.58450833180736 29.58450833180736 29.58450833180736 29.58450833180736 29.58450833180736 29.58450833180736 29.58450833180736 29.58450833180736 29.58450833180736 29.58450833180736 29.615271928218274 29.58450833180736 29.615271928218274 29.58450833180736 29.615271928218274 29.615271928218274 29.615271928218274 29.615271928218274 29.615271928218274 29.615271928218274 29.615271928218274 29.615271928218274 29.646035524629188 29.646035524629188 29.646035524629188 29.646035524629188 29.646035524629188 29.6767991210401 29.6767991210401 29.707562717451015 29.707562717451015 29.707562717451015 29.769089910272843 29.799853506683757 29.799853506683757 29.861380699505585 29.8921442959165 29.922907892327412 29.98443508514924 30.015198681560154 30.13825306720381 30.199780260025637 30.23054385643655 30.29207104925838 30.38436183849112 30.445889031312948 30.5689434169566 30.72276139901117 30.96887017029848 31.06116095953122 31.091924555942136 31.12268815235305 31.12268815235305 31.12268815235305 31.184215345174877 31.21497894158579 31.307269730818533 31.430324116462188 31.522614905694926 31.737960080571323 31.86101446621498 32.04559604468046 32.23017762314594 32.3532320087896 32.568577183665994 32.78392235854239 32.93774034059696 33.12232191906244 33.27613990111701 33.460721479582496 33.58377586522615 33.67606665445889 33.860648232924376 34.10675700421168 34.29133858267716 34.629738143197216 34.90661051089544 35.30653726423732 35.67570042116829 36.106390770921074 36.47555392785204 36.81395348837209 36.93700787401575 37.36769822376854 37.64457059146676 37.921442959164985 38.25984251968504 38.50595129097235 38.875114447903314 39.275041201245195 39.55191356894342 39.982603918696206 40.290239882805345 40.65940303973631 41.02856619666728 41.3054385643655 41.705365317707376 42.07452847463834 42.35140084233657 42.72056399926753 42.99743636696576 43.48965390954038 43.828053470060425 44.04339864493682 44.381798205456874 44.68943416956601 44.81248855520967 45.181651712140635 45.427760483427946 45.67386925471526 45.98150521882439 46.16608679728987 46.442959164988096 46.62754074345358 46.904413111151804 47.1197582860282 47.24281267167186 47.42739425013734 47.5812122321919 47.765793810657385 47.91961179271196 48.011902581944696 48.104193371177445 48.22724775682109 48.28877494964292 48.35030214246475 48.38106573887566 48.35030214246475 48.38106573887566 48.35030214246475 48.35030214246475 48.35030214246475 48.35030214246475 48.319538546053835 48.319538546053835 48.319538546053835 48.25801135323201 48.165720563999265 48.104193371177445 48.104193371177445 48.104193371177445 48.073429774766524 48.104193371177445 48.073429774766524 48.104193371177445 48.13495696758835 48.13495696758835 48.13495696758835 48.13495696758835 48.13495696758835 48.13495696758835 48.13495696758835 48.165720563999265 48.165720563999265 48.165720563999265 48.165720563999265 48.165720563999265 48.19648416041018 48.19648416041018 48.19648416041018 48.22724775682109 48.19648416041018 48.19648416041018 48.19648416041018 48.19648416041018 48.19648416041018 48.19648416041018 48.25801135323201 48.319538546053835 48.35030214246475 48.411829335286576 48.44259293169749 48.473356528108404 48.53488372093023 48.53488372093023 48.59641091375206 48.62717451016297 48.62717451016297 48.65793810657389 48.65793810657389 48.6887017029848 48.6887017029848 48.6887017029848 48.6887017029848 48.719465299395715 48.719465299395715 48.719465299395715 48.75022889580663 48.75022889580663 48.780992492217536 48.780992492217536 48.780992492217536 48.780992492217536 48.780992492217536 48.780992492217536 48.780992492217536 48.780992492217536 48.780992492217536 48.780992492217536 48.780992492217536 48.780992492217536 48.780992492217536 48.780992492217536 48.780992492217536 48.780992492217536 48.75022889580663 48.75022889580663 48.719465299395715 48.6887017029848 48.65793810657389 48.62717451016297 48.62717451016297 48.62717451016297 48.62717451016297 48.59641091375206 48.59641091375206 48.59641091375206 48.59641091375206 48.59641091375206 48.59641091375206 48.59641091375206 48.59641091375206 48.62717451016297 48.59641091375206 48.62717451016297 48.62717451016297 48.62717451016297 48.62717451016297 48.65793810657389 48.65793810657389 48.65793810657389 48.65793810657389 48.65793810657389 48.6887017029848 48.6887017029848 48.6887017029848 48.6887017029848 48.65793810657389 48.6887017029848 48.6887017029848 48.65793810657389 48.65793810657389 48.65793810657389 48.65793810657389 48.65793810657389 48.65793810657389 48.65793810657389 48.65793810657389 48.65793810657389 48.65793810657389 48.65793810657389 48.65793810657389 48.65793810657389 48.65793810657389 48.65793810657389 48.65793810657389 48.65793810657389 48.6887017029848 48.6887017029848 48.6887017029848 48.6887017029848 48.6887017029848 48.6887017029848 48.6887017029848 48.6887017029848 48.6887017029848 48.6887017029848 48.6887017029848 48.6887017029848 48.6887017029848 48.6887017029848 48.6887017029848 48.65793810657389 48.65793810657389 48.62717451016297 48.59641091375206 48.565647317341146 48.50412012451932 48.473356528108404 48.44259293169749 48.44259293169749 48.44259293169749 48.44259293169749 48.44259293169749 48.44259293169749 48.44259293169749 48.44259293169749 48.44259293169749 48.44259293169749 48.44259293169749 48.44259293169749 48.44259293169749 48.44259293169749 48.44259293169749 48.44259293169749 48.44259293169749 48.44259293169749 48.411829335286576 48.38106573887566 48.319538546053835 48.22724775682109 48.104193371177445 47.98113898553378 47.7965574070683 47.67350302142465 47.45815784654825 47.27357626808276 47.18128547885003 47.02746749679545 46.93517670756272 46.84288591832997 46.62754074345358 46.504486357809924 46.38143197216627 46.196850393700785 46.07379600805713 45.88921442959165 45.67386925471526 45.52005127266068 45.30470609778429 45.12012451931881 44.90477934444241 44.6586705731551 44.41256180186779 44.16645303058048 44.01263504852591 43.828053470060425 43.5511811023622 43.33583592748581 42.905145577733016 42.59750961362388 42.35140084233657 42.16681926387108 41.92071049258377 41.82841970335103 41.490020142830986 41.3054385643655 41.090093389489105 40.843984618201794 40.65940303973631 40.444057864859914 40.136421900750776 39.95184032228529 39.7364951474089 39.582677165354326 39.33656839406702 39.09045962277971 38.78282365867057 38.53671488738326 38.29060611609595 38.19831532686321 37.98297015198681 37.82915216993224 37.64457059146676 37.36769822376854 37.18311664530306 36.998535066837576 36.84471708478301 36.72166269913935 36.506317524262954 36.3832631386193 36.22944515656473 36.07562717451016 35.952572788866505 35.76799121040103 35.64493682475737 35.429591649880976 35.183482878593665 35.029664896539096 34.8143197216627 34.56821095037539 34.383629371909905 34.075993407800766 33.79912104010255 33.58377586522615 33.460721479582496 33.368430690349754 33.2453763047061 33.18384911188427 33.09155832265153 32.99926753341879 32.93774034059696 32.84544955136422 32.78392235854239 32.72239516572056 32.660867972898735 32.568577183665994 32.507049990844166 32.414759201611425 32.3532320087896 32.23017762314594 32.1378868339132 32.107123237502286 32.014832448269544 31.922541659036806 31.830250869804065 31.70719648416041 31.55337850210584 31.36879692364036 31.245742537996705 31.12268815235305 30.87657938106574 30.784288591832997 30.72276139901117 30.66123420618934 30.599707013367514 30.47665262772386 30.322834645669293 30.261307452847465 30.199780260025637 30.169016663614723 30.107489470792896 30.045962277971068 29.98443508514924 29.953671488738326 29.953671488738326 29.953671488738326 29.922907892327412 29.922907892327412 29.8921442959165 29.8921442959165 29.8921442959165 29.8921442959165 29.8921442959165 29.8921442959165 29.8921442959165 29.8921442959165 29.8921442959165 29.8921442959165 29.8921442959165 29.8921442959165 29.8921442959165 29.8921442959165 29.8921442959165 29.8921442959165 29.8921442959165 29.8921442959165 29.8921442959165 29.861380699505585 29.861380699505585 29.861380699505585 29.83061710309467 29.83061710309467 29.799853506683757 29.769089910272843 29.73832631386193 29.73832631386193 29.707562717451015 29.707562717451015 29.707562717451015 29.707562717451015 29.6767991210401 29.6767991210401 29.6767991210401 29.6767991210401 29.6767991210401 29.6767991210401 29.6767991210401 29.6767991210401 29.6767991210401 29.6767991210401 29.646035524629188 29.6767991210401 29.646035524629188 29.646035524629188 29.615271928218274 29.615271928218274 29.615271928218274 29.58450833180736 29.58450833180736 29.58450833180736 29.58450833180736 29.58450833180736 29.58450833180736 29.553744735396446 29.553744735396446 29.553744735396446 29.553744735396446 29.553744735396446 29.553744735396446 29.553744735396446 29.553744735396446 29.553744735396446 29.553744735396446 29.522981138985532 29.522981138985532 29.553744735396446 29.553744735396446 29.553744735396446 29.553744735396446 29.522981138985532 29.522981138985532 29.522981138985532 29.522981138985532 29.522981138985532 29.522981138985532 29.49221754257462 29.522981138985532 29.522981138985532 29.49221754257462 29.49221754257462 29.49221754257462 29.522981138985532 29.49221754257462 29.522981138985532 29.522981138985532 29.522981138985532 29.522981138985532 29.49221754257462 29.49221754257462 29.49221754257462 29.49221754257462 29.522981138985532 29.522981138985532 29.49221754257462 29.49221754257462 29.49221754257462 29.49221754257462 29.49221754257462 29.49221754257462 29.49221754257462 29.49221754257462 29.522981138985532 29.49221754257462 29.49221754257462 29.522981138985532 29.522981138985532 29.49221754257462 29.49221754257462 29.49221754257462 29.49221754257462 29.49221754257462 29.49221754257462 29.49221754257462 29.49221754257462 29.49221754257462 29.49221754257462 29.522981138985532 29.49221754257462 29.49221754257462 29.49221754257462 29.522981138985532 29.49221754257462 29.49221754257462 29.49221754257462 29.49221754257462 29.49221754257462 29.49221754257462 29.49221754257462 29.49221754257462 29.49221754257462 29.49221754257462 29.49221754257462 29.49221754257462 29.522981138985532 29.49221754257462 29.49221754257462 29.49221754257462 29.49221754257462 29.49221754257462 29.49221754257462 29.49221754257462 29.49221754257462 29.49221754257462 29.49221754257462 29.49221754257462 29.49221754257462 29.49221754257462 29.49221754257462 29.49221754257462 29.49221754257462 29.49221754257462 29.49221754257462 29.49221754257462 29.49221754257462 29.49221754257462 29.49221754257462 29.49221754257462 29.49221754257462 29.49221754257462 29.49221754257462 29.49221754257462 29.49221754257462 29.49221754257462 29.49221754257462 29.49221754257462 29.49221754257462 29.49221754257462 29.49221754257462 29.49221754257462 29.49221754257462 29.49221754257462 29.49221754257462 29.49221754257462 29.49221754257462 29.49221754257462 29.49221754257462 29.522981138985532 29.522981138985532 29.522981138985532 29.522981138985532 29.553744735396446 29.58450833180736 29.58450833180736 29.615271928218274 29.6767991210401 29.73832631386193 29.769089910272843 29.799853506683757 29.861380699505585 29.922907892327412 30.07672587438198 30.107489470792896 30.169016663614723 30.23054385643655 30.29207104925838 30.322834645669293 30.38436183849112 30.507416224134772 30.5689434169566 30.599707013367514 30.66123420618934 30.753524995422083 30.81505218824391 30.907342977476652 30.938106573887566 31.091924555942136 31.184215345174877 31.27650613440762 31.36879692364036 31.461087712873102 31.491851309284012 31.522614905694926 31.584142098516754 31.64566929133858 31.70719648416041 31.737960080571323 31.830250869804065 31.95330525544772 32.107123237502286 32.32246841237868 32.47628639443325 32.69163156930965 32.84544955136422 33.09155832265153 33.33766709393884 33.614539461637065 33.983702618568024 34.44515656473173 34.69126533601904 35.15271928218275 35.55264603552463 35.89104559604468 36.53708112067387 37.060062259659404 37.398461820179456 37.9522065555759 38.29060611609595 38.81358725508149 39.30580479765611 39.674967954587075 40.16718549716169 40.50558505768174 40.96703900384545 41.42849295000916 41.7668925105292 42.35140084233657 42.68980040285662 43.058963559787585 43.48965390954038 43.85881706647134 44.35103460904596 45.02783373008606 45.3354696941952 45.76616004394799 46.104559604468044 46.350668375755355 46.87364951474089 46.996703900384546 47.48892144295917 47.88884819630104 48.165720563999265 48.53488372093023 48.93481047427211 49.18091924555942 49.55008240249039 49.76542757736678 50.10382713788683 50.442226698406884 50.65757187328328 50.995971433803334 51.39589818714521 51.51895257278886 51.85735213330892 52.07269730818531 52.53415125434902 52.78026002563632 53.08789598974546 53.3955319538546 53.70316791796374 53.826222303607395 54.13385826771653 54.2876762497711 54.5030214246475 54.65683940670207 54.77989379234572 54.81065738875664 54.872184581578466 54.872184581578466 54.872184581578466 54.90294817798937 54.872184581578466 54.872184581578466 54.872184581578466 54.872184581578466 54.872184581578466 54.872184581578466 54.872184581578466 54.872184581578466 54.872184581578466 54.872184581578466 54.872184581578466 54.872184581578466 54.872184581578466 54.872184581578466 54.872184581578466 54.872184581578466 54.872184581578466 54.872184581578466 54.872184581578466 54.872184581578466 54.872184581578466 54.872184581578466 54.872184581578466 54.872184581578466 54.90294817798937 54.872184581578466 54.872184581578466 54.872184581578466 54.872184581578466 54.872184581578466 54.90294817798937 54.933711774400294 54.9644753708112 54.9644753708112 55.026002563633035 55.05676616004395 55.087529756454856 55.05676616004395 55.11829335286578 55.11829335286578 55.149056949276684 55.149056949276684 55.149056949276684 55.179820545687605 55.179820545687605 55.149056949276684 55.179820545687605 55.179820545687605 55.179820545687605 55.149056949276684 55.179820545687605 55.179820545687605 55.149056949276684 55.149056949276684 55.179820545687605 55.149056949276684 55.179820545687605 55.149056949276684 55.149056949276684 55.11829335286578 55.11829335286578 55.11829335286578 55.11829335286578 55.087529756454856 55.087529756454856 55.087529756454856 55.087529756454856 55.087529756454856 55.05676616004395 55.05676616004395 55.087529756454856 55.087529756454856 55.087529756454856 55.05676616004395 55.087529756454856 55.087529756454856 55.087529756454856 55.087529756454856 55.05676616004395 55.087529756454856 55.087529756454856 55.087529756454856 55.087529756454856 55.05676616004395 55.087529756454856 55.087529756454856 55.087529756454856 55.087529756454856 55.087529756454856 55.087529756454856 55.087529756454856 55.05676616004395 55.05676616004395 55.05676616004395 55.087529756454856 55.05676616004395 55.05676616004395 55.05676616004395 55.05676616004395 55.05676616004395 55.026002563633035 54.99523896722212 54.99523896722212 54.99523896722212 54.9644753708112 54.9644753708112 54.933711774400294 54.933711774400294 54.933711774400294 54.933711774400294 54.90294817798937 54.90294817798937 54.90294817798937 54.90294817798937 54.90294817798937 54.841420985167545 54.841420985167545 54.841420985167545 54.81065738875664 54.81065738875664 54.77989379234572 54.77989379234572 54.74913019593481 54.7183665995239 54.74913019593481 54.7183665995239 54.7183665995239 54.7183665995239 54.7183665995239 54.7183665995239 54.74913019593481 54.7183665995239 54.7183665995239 54.7183665995239 54.7183665995239 54.7183665995239 54.7183665995239 54.7183665995239 54.7183665995239 54.7183665995239 54.7183665995239 54.7183665995239 54.68760300311298 54.65683940670207 54.626075810291155 54.626075810291155 54.56454861746933 54.53378502105841 54.5030214246475 54.47225782823658 54.44149423182567 54.379967039003844 54.31843984618202 54.25691265336019 54.19538546053836 54.072331074894706 53.94927668925105 53.826222303607395 53.64164072514191 53.45705914667643 53.33400476103277 53.21095037538912 52.99560520051273 52.811023622047244 52.65720563999267 52.34956967588353 52.16498809741805 51.85735213330892 51.58047976561069 51.30360739791247 50.842153451748764 50.4729902948178 50.19611792711957 49.673136788134045 49.365500824024906 49.05786485991577 48.6887017029848 48.35030214246475 47.88884819630104 47.36586705731551 46.93517670756272 46.47372276139901 46.07379600805713 45.52005127266068 45.05859732649698 44.72019776597693 44.227980223402305 43.64347189159494 43.42812671671855 43.058963559787585 42.659036806445705 42.28987364951474 41.9822376854056 41.705365317707376 41.21314777513276 40.936275407434536 40.50558505768174 40.07489470792895 39.76725874381981 39.275041201245195 38.78282365867057 38.413660501739606 37.9522065555759 37.58304339864493 37.12158945248123 36.62937190990661 36.22944515656473 35.67570042116829 35.15271928218275 34.75279252884087 34.229811389855335 33.95293902215711 33.522248672404324 33.30690349752793 33.18384911188427 33.0300311298297 32.93774034059696 32.814685954953305 32.59934078007691 32.44552279802234 32.23017762314594 32.04559604468046 31.922541659036806 31.737960080571323 31.55337850210584 31.430324116462188 31.27650613440762 31.153451748763963 31.06116095953122 30.938106573887566 30.845815784654825 30.753524995422083 30.630470609778428 30.47665262772386 30.169016663614723 30.045962277971068 29.861380699505585 29.799853506683757 29.769089910272843 29.73832631386193 29.646035524629188 29.615271928218274 29.553744735396446 29.553744735396446 29.522981138985532 29.49221754257462 29.49221754257462 29.49221754257462 29.49221754257462 29.461453946163708 29.461453946163708 29.461453946163708 29.461453946163708 29.430690349752794 29.430690349752794 29.39992675334188 29.39992675334188 29.39992675334188 29.39992675334188 29.39992675334188 29.369163156930966 29.338399560520052 29.338399560520052 29.338399560520052 29.338399560520052 29.30763596410914 29.30763596410914 29.338399560520052 29.30763596410914 29.30763596410914 29.30763596410914 29.30763596410914 29.30763596410914 29.30763596410914 29.30763596410914 29.30763596410914 29.30763596410914 29.30763596410914 29.30763596410914 29.276872367698225 29.30763596410914 29.30763596410914 29.30763596410914 29.30763596410914 29.276872367698225 29.30763596410914 29.30763596410914 29.30763596410914 29.30763596410914 29.30763596410914 29.30763596410914 29.30763596410914 29.30763596410914 29.30763596410914 29.30763596410914 29.276872367698225 29.30763596410914 29.276872367698225 29.30763596410914 29.30763596410914 29.30763596410914 29.276872367698225 29.30763596410914 29.30763596410914 29.30763596410914 29.276872367698225 29.30763596410914 29.30763596410914 29.30763596410914 29.30763596410914 29.30763596410914 29.30763596410914 29.30763596410914 29.30763596410914 29.30763596410914 29.276872367698225 29.30763596410914 29.276872367698225 29.30763596410914 29.30763596410914 29.276872367698225 29.30763596410914 29.30763596410914 29.276872367698225 29.30763596410914 29.30763596410914 29.30763596410914 29.30763596410914 29.276872367698225 29.30763596410914 29.30763596410914 29.30763596410914 29.276872367698225 29.30763596410914 29.276872367698225 29.30763596410914 29.30763596410914 29.30763596410914 29.30763596410914 29.30763596410914 29.276872367698225 29.30763596410914 29.30763596410914 29.276872367698225 29.30763596410914 29.30763596410914 29.276872367698225 29.30763596410914 29.30763596410914 29.30763596410914 29.30763596410914 29.30763596410914 29.30763596410914 29.30763596410914 29.30763596410914 29.30763596410914 29.30763596410914 29.30763596410914 29.30763596410914 29.276872367698225 29.30763596410914 29.30763596410914 29.30763596410914 29.30763596410914 29.30763596410914 29.30763596410914 29.30763596410914 29.30763596410914 29.30763596410914 29.30763596410914 29.30763596410914 29.30763596410914 29.30763596410914 29.30763596410914 29.30763596410914 29.276872367698225 29.30763596410914 29.30763596410914 29.30763596410914 29.30763596410914 29.30763596410914 29.30763596410914 29.30763596410914 29.276872367698225 29.30763596410914 29.276872367698225 29.30763596410914 29.30763596410914 29.30763596410914 29.30763596410914 29.30763596410914 29.30763596410914 29.30763596410914 29.30763596410914 29.276872367698225 29.30763596410914 29.30763596410914 29.30763596410914 29.30763596410914 29.30763596410914 29.276872367698225 29.30763596410914 29.30763596410914 29.276872367698225 29.30763596410914 29.30763596410914 29.30763596410914 29.276872367698225 29.30763596410914 29.30763596410914 29.276872367698225 29.276872367698225 29.30763596410914 29.30763596410914 29.30763596410914 29.30763596410914 29.276872367698225 29.30763596410914 29.30763596410914 29.30763596410914 29.30763596410914 29.30763596410914 29.30763596410914 29.30763596410914 29.30763596410914 29.30763596410914 29.30763596410914 29.276872367698225 29.30763596410914 29.30763596410914 29.30763596410914 29.30763596410914 29.30763596410914 29.30763596410914 29.30763596410914 29.30763596410914 29.276872367698225 29.30763596410914 29.30763596410914 29.276872367698225 29.276872367698225 29.276872367698225 29.30763596410914 29.30763596410914 29.30763596410914 29.30763596410914 29.30763596410914 29.30763596410914 29.30763596410914 29.30763596410914 29.30763596410914 29.276872367698225 29.30763596410914 29.30763596410914 29.276872367698225 29.30763596410914 29.276872367698225 29.30763596410914 29.30763596410914 29.30763596410914 29.30763596410914 29.30763596410914 29.30763596410914 29.30763596410914 29.30763596410914 29.30763596410914 29.30763596410914 29.30763596410914 29.30763596410914 29.30763596410914 29.30763596410914 29.30763596410914 29.30763596410914 29.338399560520052 29.338399560520052 29.338399560520052 29.369163156930966 29.369163156930966 29.369163156930966 29.39992675334188 29.430690349752794 29.430690349752794 29.430690349752794 29.430690349752794 29.461453946163708 29.461453946163708 29.49221754257462 29.49221754257462 29.522981138985532 29.553744735396446 29.615271928218274 29.615271928218274 29.615271928218274 29.646035524629188 29.6767991210401 29.73832631386193 29.769089910272843 29.83061710309467 29.8921442959165 29.98443508514924 30.107489470792896 30.353598242080206 30.47665262772386 30.5689434169566 30.66123420618934 30.753524995422083 30.81505218824391 30.938106573887566 31.091924555942136 31.184215345174877 31.307269730818533 31.36879692364036 31.55337850210584 31.676432887749495 31.79948727339315 31.95330525544772 32.04559604468046 32.23017762314594 32.47628639443325 32.660867972898735 32.84544955136422 33.09155832265153 33.2453763047061 33.64530305804798 33.79912104010255 34.075993407800766 34.41439296832082 34.66050173960813 35.06042849295001 35.67570042116829 36.044863578099246 36.47555392785204 36.84471708478301 37.18311664530306 37.70609778428859 38.075260941219554 38.81358725508149 39.367331990477936 39.79802234023072 40.75169382896905 41.090093389489105 41.490020142830986 41.92071049258377 42.28987364951474 42.78209119208936 43.33583592748581 43.73576268082768 44.25874381981322 44.874015748031496 45.427760483427946 45.79692364035891 46.196850393700785 46.71983153268632 47.212049075260936 47.765793810657385 48.22724775682109 48.565647317341146 48.99633766709394 49.27321003479216 49.580845998901296 50.134590734297745 50.41146310199597 50.842153451748764 51.27284380150155 51.54971616919978 51.949642922541656 52.38033327229445 52.78026002563632 53.14942318256729 53.42629555026552 53.826222303607395 54.226149056949275 54.53378502105841 55.05676616004395 55.33363852774217 55.57974729902948 55.948910455960444 56.195019227247755 56.502655191356894 56.964109137520595 57.179454312397 57.517853872917044 57.70243545138253 57.88701702984801 58.19465299395715 58.317707379600805 58.44076176524446 58.563816150888115 58.62534334370994 58.65610694012086 58.71763413294268 58.71763413294268 58.71763413294268 58.7483977293536 58.71763413294268 58.7483977293536 58.71763413294268 58.71763413294268 58.71763413294268 58.71763413294268 58.68687053653177 58.68687053653177 58.65610694012086 58.62534334370994 58.59457974729903 58.563816150888115 58.533052554477194 58.533052554477194 58.533052554477194 58.50228895806629 58.50228895806629 58.50228895806629 58.50228895806629 58.47152536165537 58.47152536165537 58.44076176524446 58.44076176524446 58.44076176524446 58.44076176524446 58.44076176524446 58.44076176524446 58.44076176524446 58.44076176524446 58.44076176524446 58.44076176524446 58.44076176524446 58.44076176524446 58.44076176524446 58.44076176524446 58.44076176524446 58.44076176524446 58.44076176524446 58.44076176524446 58.44076176524446 58.44076176524446 58.40999816883354 58.37923457242263 58.34847097601172 58.317707379600805 58.317707379600805 58.28694378318989 58.28694378318989 58.28694378318989 58.28694378318989 58.25618018677898 58.25618018677898 58.28694378318989 58.25618018677898 58.28694378318989 58.25618018677898 58.28694378318989 58.28694378318989 58.28694378318989 58.28694378318989 58.28694378318989 58.28694378318989 58.28694378318989 58.28694378318989 58.28694378318989 58.317707379600805 58.317707379600805 58.28694378318989 58.28694378318989 58.28694378318989 58.28694378318989 58.317707379600805 58.28694378318989 58.28694378318989 58.28694378318989 58.28694378318989 58.28694378318989 58.28694378318989 58.28694378318989 58.28694378318989 58.28694378318989 58.28694378318989 58.28694378318989 58.28694378318989 58.28694378318989 58.28694378318989 58.28694378318989 58.28694378318989 58.28694378318989 58.28694378318989 58.25618018677898 58.22541659036806 58.22541659036806 58.22541659036806 58.22541659036806 58.22541659036806 58.22541659036806 58.22541659036806 58.22541659036806 58.22541659036806 58.22541659036806 58.25618018677898 58.25618018677898 58.25618018677898 58.25618018677898 58.28694378318989 58.28694378318989 58.28694378318989 58.317707379600805 58.317707379600805 58.317707379600805 58.317707379600805 58.317707379600805 58.317707379600805 58.317707379600805 58.317707379600805 58.317707379600805 58.317707379600805 58.317707379600805 58.317707379600805 58.317707379600805 58.317707379600805 58.317707379600805 58.317707379600805 58.317707379600805 58.317707379600805 58.317707379600805 58.317707379600805 58.317707379600805 58.317707379600805 58.34847097601172 58.317707379600805 58.317707379600805 58.317707379600805 58.317707379600805 58.317707379600805 58.317707379600805 58.317707379600805 58.317707379600805 58.317707379600805 58.317707379600805 58.317707379600805 58.317707379600805 58.317707379600805 58.317707379600805 58.317707379600805 58.317707379600805 58.34847097601172 58.317707379600805 58.34847097601172 58.34847097601172 58.317707379600805 58.34847097601172 58.34847097601172 58.317707379600805 58.34847097601172 58.317707379600805 58.34847097601172 58.317707379600805 58.34847097601172 58.34847097601172 58.34847097601172 58.317707379600805 58.317707379600805 58.317707379600805 58.34847097601172 58.34847097601172 58.34847097601172 58.37923457242263 58.34847097601172 58.34847097601172 58.37923457242263 58.37923457242263 58.37923457242263 58.37923457242263 58.37923457242263 58.37923457242263 58.37923457242263 58.37923457242263 58.37923457242263 58.37923457242263 58.37923457242263 58.40999816883354 58.40999816883354 58.40999816883354 58.40999816883354 58.44076176524446 58.50228895806629 58.563816150888115 58.62534334370994 58.65610694012086 58.71763413294268 58.7483977293536 58.779161325764505 58.84068851858633 58.87145211499725 58.90221571140816 58.93297930781908 58.93297930781908 58.93297930781908 58.93297930781908 58.93297930781908 58.93297930781908 58.93297930781908 58.93297930781908 58.93297930781908 58.93297930781908 58.93297930781908 58.90221571140816 58.93297930781908 58.90221571140816 58.93297930781908 58.93297930781908 58.90221571140816 58.90221571140816 58.93297930781908 58.90221571140816 58.90221571140816 58.90221571140816 58.90221571140816 58.90221571140816 58.93297930781908 58.90221571140816 58.93297930781908 58.93297930781908 58.93297930781908 58.90221571140816 58.93297930781908 58.93297930781908 58.90221571140816 58.90221571140816 58.90221571140816 58.90221571140816 58.87145211499725 58.87145211499725 58.84068851858633 58.84068851858633 58.809924922175426 58.809924922175426 58.779161325764505 58.7483977293536 58.7483977293536 58.71763413294268 58.71763413294268 58.71763413294268 58.71763413294268 58.71763413294268 58.68687053653177 58.68687053653177 58.68687053653177 58.68687053653177 58.68687053653177 58.68687053653177 58.68687053653177 58.68687053653177 58.68687053653177 58.68687053653177 58.71763413294268 58.68687053653177 58.71763413294268 58.68687053653177 58.68687053653177 58.68687053653177 58.68687053653177 58.65610694012086 58.62534334370994 58.59457974729903 58.533052554477194 58.47152536165537 58.37923457242263 58.34847097601172 58.22541659036806 58.13312580113532 58.010071415491666 57.917780626258924 57.79472624061527 57.67167185497162 57.517853872917044 57.39479948727339 57.117927119575164 56.93334554110969 56.77952755905512 56.56418238417872 56.37960080571324 56.10272843801501 55.73356528108405 55.51822010620765 55.179820545687605 54.933711774400294 54.59531221388024 54.25691265336019 54.01080388207288 53.64164072514191 53.24171397180004 52.9340780076909 52.47262406152719 52.13422450100714 51.457425379967034 51.11902581944699 50.74986266251602 50.19611792711957 49.45779161325764 49.27321003479216 48.53488372093023 48.011902581944696 47.519685039370074 47.1197582860282 46.53524995422084 46.0122688152353 45.48928767624977 45.12012451931881 44.627906976744185 44.25874381981322 43.79728987364952 43.366599523896724 43.058963559787585 42.659036806445705 42.22834645669291 41.92071049258377 41.55154733565281 41.27467496795458 40.90551181102362 40.536348654092656 40.25947628639443 39.890313129463465 39.367331990477936 39.121223219190625 38.78282365867057 38.53671488738326 38.22907892327412 38.04449734480864 37.82915216993224 37.42922541659037 37.21388024171397 36.998535066837576 36.752426295550265 36.56784471708478 36.32173594579747 36.07562717451016 35.89104559604468 35.67570042116829 35.491118842702804 35.24501007141549 34.84508331807361 34.629738143197216 34.44515656473173 34.19904779344442 34.01446621497894 33.79912104010255 33.58377586522615 33.42995788317158 33.2453763047061 33.12232191906244 32.968503937007874 32.84544955136422 32.75315876213148 32.568577183665994 32.44552279802234 32.260941219556855 32.107123237502286 32.014832448269544 31.891778062625892 31.70719648416041 31.614905694927668 31.55337850210584 31.430324116462188 31.338033327229446 31.184215345174877 31.12268815235305 31.030397363120308 30.938106573887566 30.87657938106574 30.81505218824391 30.784288591832997 30.691997802600255 30.599707013367514 30.507416224134772 30.445889031312948 30.38436183849112 30.322834645669293 30.23054385643655 30.169016663614723 30.045962277971068 29.953671488738326 29.8921442959165 29.83061710309467 29.769089910272843 29.769089910272843 29.73832631386193 29.707562717451015 29.707562717451015 29.6767991210401 29.6767991210401 29.6767991210401 29.6767991210401 29.6767991210401 29.6767991210401 29.6767991210401 29.6767991210401 29.6767991210401 29.6767991210401 29.6767991210401 29.6767991210401 29.646035524629188 29.6767991210401 29.646035524629188 29.646035524629188 29.646035524629188 29.646035524629188 29.646035524629188 29.646035524629188 29.646035524629188 29.646035524629188 29.646035524629188 29.646035524629188 29.646035524629188 29.615271928218274 29.615271928218274 29.615271928218274 29.615271928218274 29.615271928218274 29.615271928218274 29.58450833180736 29.58450833180736 29.58450833180736 29.553744735396446 29.553744735396446 29.553744735396446 29.553744735396446 29.553744735396446 29.522981138985532 29.522981138985532 29.522981138985532 29.522981138985532 29.522981138985532 29.49221754257462 29.522981138985532 29.522981138985532 29.522981138985532 29.522981138985532 29.522981138985532 29.49221754257462 29.522981138985532 29.522981138985532 29.522981138985532 29.522981138985532 29.522981138985532 29.49221754257462 29.522981138985532 29.49221754257462 29.49221754257462 29.522981138985532 29.522981138985532 29.522981138985532 29.49221754257462 29.49221754257462 29.522981138985532 29.522981138985532 29.49221754257462 29.522981138985532 29.49221754257462 29.49221754257462 29.49221754257462 29.522981138985532 29.49221754257462 29.49221754257462 29.49221754257462 29.49221754257462 29.49221754257462 29.49221754257462 29.49221754257462 29.522981138985532 29.49221754257462 29.49221754257462 29.49221754257462 29.522981138985532 29.49221754257462 29.49221754257462 29.49221754257462 29.49221754257462 29.49221754257462 29.49221754257462 29.49221754257462 29.49221754257462 29.49221754257462 29.49221754257462 29.49221754257462 29.49221754257462 29.49221754257462 29.522981138985532 29.49221754257462 29.49221754257462 29.522981138985532 29.49221754257462 29.49221754257462 29.49221754257462 29.49221754257462 29.49221754257462 29.49221754257462 29.49221754257462 29.49221754257462 29.49221754257462 29.49221754257462 29.49221754257462 29.49221754257462 29.522981138985532 29.522981138985532 29.49221754257462 29.49221754257462 29.49221754257462 29.49221754257462 29.49221754257462 29.49221754257462 29.49221754257462 29.49221754257462 29.49221754257462 29.49221754257462 29.522981138985532 29.49221754257462 29.49221754257462 29.49221754257462 29.49221754257462 29.522981138985532 29.49221754257462 29.49221754257462 29.49221754257462 29.49221754257462 29.49221754257462 29.49221754257462 29.49221754257462 29.522981138985532 29.49221754257462 29.49221754257462 29.49221754257462 29.522981138985532 29.49221754257462 29.49221754257462 29.49221754257462 29.49221754257462 29.49221754257462 29.522981138985532 29.49221754257462 29.49221754257462 29.49221754257462 29.49221754257462 29.49221754257462 29.49221754257462 29.49221754257462 29.49221754257462 29.49221754257462 29.49221754257462 29.49221754257462 29.49221754257462 29.49221754257462 29.49221754257462 29.522981138985532 29.49221754257462 29.49221754257462 29.49221754257462 29.49221754257462 29.49221754257462 29.49221754257462 29.49221754257462 29.49221754257462 29.49221754257462 29.49221754257462 29.49221754257462 29.49221754257462 29.522981138985532 29.49221754257462 29.49221754257462 29.49221754257462 29.49221754257462 29.49221754257462 29.49221754257462 29.49221754257462 29.49221754257462 29.522981138985532 29.522981138985532 29.522981138985532 29.49221754257462 29.522981138985532 29.522981138985532 29.522981138985532 29.522981138985532 29.522981138985532 29.522981138985532 29.522981138985532 29.522981138985532 29.522981138985532 29.522981138985532 29.522981138985532 29.522981138985532 29.553744735396446 29.553744735396446 29.553744735396446 29.58450833180736 29.58450833180736 29.58450833180736 29.615271928218274 29.615271928218274 29.646035524629188 29.646035524629188 29.707562717451015 29.73832631386193 29.799853506683757 29.8921442959165 29.953671488738326 30.169016663614723 30.29207104925838 30.47665262772386 30.691997802600255 30.938106573887566 31.091924555942136 31.27650613440762 31.36879692364036 31.584142098516754 31.70719648416041 31.922541659036806 32.168650430324114 32.3532320087896 32.63010437648782 32.968503937007874 33.2453763047061 33.460721479582496 33.67606665445889 33.95293902215711 34.29133858267716 34.56821095037539 34.96813770371727 35.429591649880976 35.737227613990115 36.22944515656473 36.56784471708478 37.060062259659404 37.521516205823104 37.9522065555759 38.35213330891778 38.69053286943783 39.18275041201245 39.61344076176525 40.01336751510712 40.50558505768174 41.21314777513276 41.58231093206372 42.105292071049256 42.32063724592565 42.78209119208936 43.274308734663975 43.67423548800586 44.19721662699139 44.6586705731551 44.96630653726424 45.396996887017025 45.735396447537084 46.196850393700785 46.658304339864486 46.996703900384546 47.42739425013734 47.85808459989013 48.22724775682109 48.75022889580663 49.05786485991577 49.48855520966856 49.79619117377769 50.07306354147592 50.442226698406884 50.78062625892693 51.149789415857896 51.42666178355613 51.64200695843252 51.91887932613075 52.103460904596226 52.31880607947262 52.59567844717085 52.84178721845816 53.026368796923634 53.27247756821095 53.42629555026552 53.610877128731005 53.826222303607395 53.980040285661964 54.226149056949275 54.5030214246475 54.74913019593481 55.11829335286578 55.48745650979674 55.85661966672771 56.0719648416041 56.28731001648049 56.53341878776781 56.748763962644205 56.93334554110969 57.117927119575164 57.210217908807905 57.36403589086248 57.48709027650613 57.57938106573887 57.6409082585607 57.67167185497162 57.70243545138253 57.73319904779344 57.763962644204355 57.763962644204355 57.763962644204355 57.79472624061527 57.763962644204355 57.763962644204355 57.763962644204355 57.73319904779344 57.73319904779344 57.70243545138253 57.6409082585607 57.61014466214979 57.54861746932796 57.54861746932796 57.54861746932796 57.517853872917044 57.48709027650613 57.4255630836843 57.39479948727339 57.36403589086248 57.27174510162973 57.27174510162973 57.210217908807905 57.210217908807905 57.179454312397 57.14869071598608 57.117927119575164 57.056399926753336 57.02563633034242 56.994872733931516 56.964109137520595 56.93334554110969 56.964109137520595 56.93334554110969 56.93334554110969 56.93334554110969 56.93334554110969 56.93334554110969 56.93334554110969 56.93334554110969 56.964109137520595 56.964109137520595 56.964109137520595 56.964109137520595 56.994872733931516 56.994872733931516 56.994872733931516 57.02563633034242 57.02563633034242 57.02563633034242 57.056399926753336 57.056399926753336 57.08716352316425 57.08716352316425 57.08716352316425 57.08716352316425 57.08716352316425 57.08716352316425 57.08716352316425 57.117927119575164 57.117927119575164 57.117927119575164 57.117927119575164 57.08716352316425 57.117927119575164 57.117927119575164 57.117927119575164 57.117927119575164 57.117927119575164 57.117927119575164 57.08716352316425 57.117927119575164 57.117927119575164 57.08716352316425 57.08716352316425 57.08716352316425 57.117927119575164 57.117927119575164 57.117927119575164 57.117927119575164 57.08716352316425 57.117927119575164 57.117927119575164 57.117927119575164 57.117927119575164 57.14869071598608 57.210217908807905 57.210217908807905 57.240981505218826 57.27174510162973 57.302508698040654 57.302508698040654 57.302508698040654 57.302508698040654 57.302508698040654 57.33327229445156 57.33327229445156 57.302508698040654 57.33327229445156 57.33327229445156 57.33327229445156 57.302508698040654 57.33327229445156 57.33327229445156 57.33327229445156 57.33327229445156 57.33327229445156 57.33327229445156 57.33327229445156 57.36403589086248 57.39479948727339 57.39479948727339 57.4255630836843 57.456326680095216 57.456326680095216 57.48709027650613 57.517853872917044 57.517853872917044 57.517853872917044 57.517853872917044 57.517853872917044 57.54861746932796 57.54861746932796 57.517853872917044 57.517853872917044 57.517853872917044 57.517853872917044 57.517853872917044 57.57938106573887 57.61014466214979 57.6409082585607 57.70243545138253 57.73319904779344 57.763962644204355 57.82548983702618 57.8562534334371 57.88701702984801 57.917780626258924 57.94854422266984 57.97930781908075 58.010071415491666 58.010071415491666 58.010071415491666 58.04083501190259 58.04083501190259 58.04083501190259 58.04083501190259 58.04083501190259 58.04083501190259 58.04083501190259 58.04083501190259 58.010071415491666 58.010071415491666 58.04083501190259 58.04083501190259 58.04083501190259 58.04083501190259 58.04083501190259 58.04083501190259 58.04083501190259 58.04083501190259 58.04083501190259 58.04083501190259 58.04083501190259 58.010071415491666 58.04083501190259 58.04083501190259 58.04083501190259 58.04083501190259 58.04083501190259 58.04083501190259 58.04083501190259 58.04083501190259 58.04083501190259 58.04083501190259 58.04083501190259 58.04083501190259 58.04083501190259 58.04083501190259 58.04083501190259 58.04083501190259 58.04083501190259 58.04083501190259 58.04083501190259 58.04083501190259 58.04083501190259 58.04083501190259 58.04083501190259 58.04083501190259 58.04083501190259 58.04083501190259 58.071598608313494 58.1023622047244 58.1023622047244 58.13312580113532 58.13312580113532 58.163889397546235 58.163889397546235 58.163889397546235 58.19465299395715 58.19465299395715 58.22541659036806 58.22541659036806 58.22541659036806 58.22541659036806 58.22541659036806 58.22541659036806 58.22541659036806 58.22541659036806 58.22541659036806 58.22541659036806 58.22541659036806 58.22541659036806 58.22541659036806 58.19465299395715 58.19465299395715 58.19465299395715 58.13312580113532 58.1023622047244 58.04083501190259 58.010071415491666 58.010071415491666 57.97930781908075 58.010071415491666 57.97930781908075 57.97930781908075 57.97930781908075 58.010071415491666 57.97930781908075 57.97930781908075 57.94854422266984 57.88701702984801 57.79472624061527 57.67167185497162 57.54861746932796 57.39479948727339 57.302508698040654 57.179454312397 57.08716352316425 56.964109137520595 56.77952755905512 56.56418238417872 56.348837209302324 56.13349203442593 55.948910455960444 55.70280168467313 55.54898370261857 55.395165720563995 55.05676616004395 54.872184581578466 54.59531221388024 54.34920344259293 54.19538546053836 53.94927668925105 53.70316791796374 53.48782274308734 53.21095037538912 52.99560520051273 52.65720563999267 52.22651529023988 51.98040651895257 51.64200695843252 51.33437099432338 50.995971433803334 50.442226698406884 50.07306354147592 49.30397363120308 48.65793810657389 48.22724775682109 47.61197582860282 47.02746749679545 46.81212232191906 46.07379600805713 45.70463285112616 45.24317890496246 44.81248855520967 44.535616187511444 44.135689434169564 43.581944698773114 43.45889031312946 43.0897271561985 42.812854788500275 42.38216443874748 41.951474088994686 41.55154733565281 41.15162058231093 40.75169382896905 40.6286394433254 40.22871268998352 39.95184032228529 39.45962277971067 39.121223219190625 38.90587804431423 38.629005676616 38.35213330891778 38.25984251968504 37.9522065555759 37.798388573521336 37.4907526094122 37.21388024171397 36.96777147042666 36.598608313495696 36.352499542208385 35.952572788866505 35.583409631935545 35.30653726423732 34.87584691448453 34.56821095037539 34.35286577549899 33.95293902215711 33.76835744369163 33.614539461637065 33.42995788317158 33.2453763047061 33.09155832265153 32.93774034059696 32.814685954953305 32.63010437648782 32.47628639443325 32.260941219556855 32.07635964109137 31.95330525544772 31.830250869804065 31.70719648416041 31.676432887749495 31.614905694927668 31.584142098516754 31.55337850210584 31.491851309284012 31.461087712873102 31.399560520051274 31.27650613440762 31.21497894158579 31.184215345174877 31.12268815235305 31.06116095953122 30.999633766709394 30.96887017029848 30.845815784654825 30.753524995422083 30.691997802600255 30.5689434169566 30.507416224134772 30.38436183849112 30.29207104925838 30.23054385643655 30.107489470792896 29.98443508514924 29.922907892327412 29.861380699505585 29.799853506683757 29.769089910272843 29.707562717451015 29.6767991210401 29.6767991210401 29.6767991210401 29.646035524629188 29.646035524629188 29.646035524629188 29.646035524629188 29.646035524629188 29.646035524629188 29.646035524629188 29.646035524629188 29.646035524629188 29.646035524629188 29.646035524629188 29.646035524629188 29.646035524629188 29.615271928218274 29.646035524629188 29.615271928218274 29.646035524629188 29.646035524629188 29.615271928218274 29.646035524629188 29.615271928218274 29.615271928218274 29.646035524629188 29.615271928218274 29.615271928218274 29.615271928218274 29.615271928218274 29.615271928218274 29.646035524629188 29.615271928218274 29.615271928218274 29.615271928218274 29.615271928218274 29.615271928218274 29.615271928218274 29.615271928218274 29.615271928218274 29.615271928218274 29.615271928218274 29.615271928218274 29.646035524629188 29.615271928218274 29.615271928218274 29.615271928218274 29.615271928218274 29.615271928218274 29.615271928218274 29.615271928218274 29.615271928218274 29.615271928218274 29.615271928218274 29.615271928218274 29.615271928218274 29.615271928218274 29.615271928218274 29.615271928218274 29.615271928218274 29.615271928218274 29.615271928218274 29.646035524629188 29.615271928218274 29.615271928218274 29.615271928218274 29.615271928218274 29.615271928218274 29.615271928218274 29.615271928218274 29.615271928218274 29.615271928218274 29.615271928218274 29.615271928218274 29.615271928218274 29.615271928218274 29.615271928218274 29.615271928218274 29.615271928218274 29.615271928218274 29.615271928218274 29.615271928218274 29.615271928218274 29.615271928218274 29.615271928218274 29.615271928218274 29.615271928218274 29.615271928218274 29.615271928218274 29.615271928218274 29.58450833180736 29.615271928218274 29.615271928218274 29.615271928218274 29.615271928218274 29.615271928218274 29.58450833180736 29.615271928218274 29.615271928218274 29.58450833180736 29.615271928218274 29.615271928218274 29.58450833180736 29.58450833180736 29.615271928218274 29.58450833180736 29.58450833180736 29.615271928218274 29.615271928218274 29.58450833180736 29.58450833180736 29.58450833180736 29.58450833180736 29.58450833180736 29.58450833180736 29.58450833180736 29.553744735396446 29.58450833180736 29.58450833180736 29.58450833180736 29.553744735396446 29.553744735396446 29.553744735396446 29.553744735396446 29.553744735396446 29.553744735396446 29.553744735396446 29.553744735396446 29.553744735396446 29.553744735396446 29.553744735396446 29.553744735396446 29.553744735396446 29.553744735396446 29.553744735396446 29.553744735396446 29.553744735396446 29.553744735396446 29.553744735396446 29.553744735396446 29.553744735396446 29.553744735396446 29.522981138985532 29.553744735396446 29.553744735396446 29.553744735396446 29.553744735396446 29.553744735396446 29.553744735396446 29.553744735396446 29.553744735396446 29.553744735396446 29.522981138985532 29.553744735396446 29.553744735396446 29.522981138985532 29.553744735396446 29.553744735396446 29.553744735396446 29.553744735396446 29.553744735396446 29.553744735396446 29.553744735396446 29.553744735396446 29.553744735396446 29.553744735396446 29.553744735396446 29.522981138985532 29.553744735396446 29.553744735396446 29.553744735396446 29.553744735396446 29.553744735396446 29.553744735396446 29.522981138985532 29.553744735396446 29.553744735396446 29.553744735396446 29.553744735396446 29.553744735396446 29.522981138985532 29.553744735396446 29.553744735396446 29.553744735396446 29.553744735396446 29.553744735396446 29.553744735396446 29.553744735396446 29.553744735396446 29.553744735396446 29.553744735396446 29.553744735396446 29.553744735396446 29.553744735396446 29.553744735396446 29.553744735396446 29.553744735396446 29.553744735396446 29.553744735396446 29.553744735396446 29.553744735396446 29.553744735396446 29.553744735396446 29.553744735396446 29.553744735396446 29.553744735396446 29.553744735396446 29.553744735396446 29.553744735396446 29.553744735396446 29.553744735396446 29.553744735396446 29.553744735396446 29.553744735396446 29.553744735396446 29.553744735396446 29.553744735396446 29.553744735396446 29.553744735396446 29.553744735396446 29.553744735396446 29.553744735396446 29.553744735396446 29.553744735396446 29.553744735396446 29.553744735396446 29.553744735396446 29.553744735396446 29.553744735396446 29.553744735396446 29.553744735396446 29.553744735396446 29.58450833180736 29.58450833180736 29.58450833180736 29.58450833180736 29.58450833180736 29.58450833180736 29.58450833180736 29.615271928218274 29.615271928218274 29.615271928218274 29.615271928218274 29.646035524629188 29.646035524629188 29.646035524629188 29.6767991210401 29.6767991210401 29.707562717451015 29.707562717451015 29.73832631386193 29.769089910272843 29.769089910272843 29.769089910272843 29.799853506683757 29.799853506683757 29.799853506683757 29.83061710309467 29.83061710309467 29.83061710309467 29.83061710309467 29.861380699505585 29.8921442959165 29.922907892327412 29.922907892327412 29.98443508514924 30.045962277971068 30.13825306720381 30.199780260025637 30.261307452847465 30.353598242080206 30.47665262772386 30.630470609778428 30.753524995422083 30.999633766709394 31.12268815235305 31.21497894158579 31.245742537996705 31.338033327229446 31.491851309284012 31.584142098516754 31.70719648416041 31.79948727339315 31.95330525544772 32.04559604468046 32.19941402673503 32.32246841237868 32.507049990844166 32.75315876213148 32.968503937007874 33.2453763047061 33.522248672404324 33.73759384728072 34.10675700421168 34.32210217908808 34.69126533601904 35.12195568577184 35.46035524629189 35.706464017579194 36.106390770921074 36.3832631386193 36.78318989196118 37.24464383812489 37.70609778428859 38.13678813404138 38.44442409815052 38.875114447903314 39.30580479765611 39.582677165354326 40.01336751510712 40.290239882805345 40.72093023255814 41.12085698590002 41.39772935359824 41.92071049258377 42.22834645669291 42.505218824391136 42.905145577733016 43.21278154184215 43.64347189159494 44.25874381981322 44.56637978392236 45.089360922907886 45.52005127266068 45.88921442959165 46.31990477934444 46.93517670756272 47.45815784654825 47.95037538912287 48.28877494964292 48.75022889580663 49.027101263504846 49.61160959531221 49.888481963010435 50.16535433070866 50.56528108405054 50.87291704815968 51.11902581944699 51.39589818714521 51.67277055484343 51.91887932613075 52.0419337117744 52.19575169382897 52.411096868705364 52.59567844717085 52.811023622047244 52.96484160410181 53.08789598974546 53.18018677897821 53.24171397180004 53.303241164621866 53.364768357443694 53.3955319538546 53.42629555026552 53.42629555026552 53.45705914667643 53.45705914667643 53.45705914667643 53.45705914667643 53.48782274308734 53.45705914667643 53.48782274308734 53.48782274308734 53.45705914667643 53.45705914667643 53.45705914667643 53.48782274308734 53.45705914667643 53.45705914667643 53.45705914667643 53.45705914667643 53.45705914667643 53.45705914667643 53.45705914667643 53.45705914667643 53.45705914667643 53.45705914667643 53.42629555026552 53.42629555026552 53.3955319538546 53.33400476103277 53.303241164621866 53.27247756821095 53.21095037538912 53.18018677897821 53.14942318256729 53.118659586156376 53.14942318256729 53.118659586156376 53.118659586156376 53.118659586156376 53.14942318256729 53.14942318256729 53.14942318256729 53.14942318256729 53.14942318256729 53.14942318256729 53.14942318256729 53.14942318256729 53.14942318256729 53.14942318256729 53.14942318256729 53.118659586156376 53.14942318256729 53.14942318256729 53.14942318256729 53.14942318256729 53.14942318256729 53.14942318256729 53.14942318256729 53.14942318256729 53.14942318256729 53.14942318256729 53.14942318256729 53.14942318256729 53.14942318256729 53.14942318256729 53.14942318256729 53.14942318256729 53.118659586156376 53.118659586156376 53.14942318256729 53.14942318256729 53.14942318256729 53.118659586156376 53.14942318256729 53.14942318256729 53.118659586156376 53.14942318256729 53.14942318256729 53.14942318256729 53.14942318256729 53.14942318256729 53.14942318256729 53.14942318256729 53.14942318256729 53.14942318256729 53.14942318256729 53.14942318256729 53.18018677897821 53.14942318256729 53.14942318256729 53.14942318256729 53.14942318256729 53.18018677897821 53.14942318256729 53.14942318256729 53.14942318256729 53.18018677897821 53.14942318256729 53.14942318256729 53.14942318256729 53.14942318256729 53.14942318256729 53.14942318256729 53.14942318256729 53.14942318256729 53.14942318256729 53.118659586156376 53.118659586156376 53.118659586156376 53.118659586156376 53.14942318256729 53.118659586156376 53.118659586156376 53.118659586156376 53.118659586156376 53.118659586156376 53.08789598974546 53.08789598974546 53.057132393334555 53.026368796923634 53.026368796923634 52.99560520051273 52.96484160410181 52.96484160410181 52.96484160410181 52.96484160410181 52.96484160410181 52.96484160410181 52.96484160410181 52.96484160410181 52.96484160410181 52.96484160410181 52.96484160410181 52.96484160410181 52.96484160410181 52.99560520051273 52.99560520051273 52.99560520051273 53.026368796923634 52.99560520051273 52.99560520051273 52.99560520051273 52.99560520051273 52.99560520051273 52.99560520051273 52.99560520051273 52.99560520051273 52.99560520051273 52.99560520051273 52.99560520051273 52.99560520051273 52.99560520051273 52.99560520051273 52.99560520051273 52.96484160410181 52.96484160410181 52.96484160410181 52.903314411279986 52.84178721845816 52.78026002563632 52.74949642922542 52.65720563999267 52.62644204358176 52.56491485075993 52.53415125434902 52.47262406152719 52.38033327229445 52.31880607947262 52.288042483061716 52.16498809741805 52.103460904596226 52.011170115363484 51.85735213330892 51.76506134407617 51.58047976561069 51.39589818714521 51.30360739791247 51.08826222303607 50.934444240981506 50.596044680461446 50.34993590917414 50.134590734297745 49.85771836659953 49.55008240249039 49.365500824024906 49.027101263504846 48.780992492217536 48.44259293169749 48.073429774766524 47.82732100347921 47.45815784654825 46.965940303973625 46.81212232191906 46.442959164988096 46.16608679728987 45.79692364035891 45.396996887017025 45.02783373008606 44.68943416956601 44.381798205456874 44.227980223402305 43.95110785570408 43.7665262772386 43.45889031312946 43.028199963376665 42.812854788500275 42.505218824391136 42.28987364951474 42.07452847463834 41.705365317707376 41.5207837392419 41.21314777513276 40.90551181102362 40.65940303973631 40.25947628639443 39.982603918696206 39.55191356894342 39.15198681560154 38.875114447903314 38.475187694561434 38.075260941219554 37.798388573521336 37.2754074345358 36.998535066837576 36.69089910272844 36.444790331441126 36.044863578099246 35.76799121040103 35.52188243911371 35.337300860648234 35.15271928218275 35.029664896539096 34.90661051089544 34.783556125251785 34.66050173960813 34.475920161142646 34.32210217908808 34.26057498626625 34.10675700421168 34.01446621497894 33.860648232924376 33.67606665445889 33.58377586522615 33.460721479582496 33.2453763047061 33.12232191906244 32.99926753341879 32.814685954953305 32.63010437648782 32.507049990844166 32.260941219556855 32.014832448269544 31.830250869804065 31.70719648416041 31.584142098516754 31.491851309284012 31.399560520051274 31.338033327229446 31.307269730818533 31.245742537996705 31.153451748763963 31.091924555942136 30.938106573887566 30.81505218824391 30.72276139901117 30.599707013367514 30.47665262772386 30.353598242080206 30.29207104925838 30.169016663614723 30.07672587438198 29.98443508514924 29.8921442959165 29.83061710309467 29.769089910272843 29.73832631386193 29.73832631386193 29.707562717451015 29.707562717451015 29.6767991210401 29.6767991210401 29.6767991210401 29.6767991210401 29.6767991210401 29.646035524629188 29.6767991210401 29.646035524629188 29.646035524629188 29.646035524629188 29.646035524629188 29.615271928218274 29.646035524629188 29.646035524629188 29.615271928218274 29.615271928218274 29.615271928218274 29.615271928218274 29.615271928218274 29.615271928218274 29.615271928218274 29.615271928218274 29.615271928218274 29.615271928218274 29.615271928218274 29.615271928218274 29.615271928218274 29.615271928218274 29.615271928218274 29.615271928218274 29.615271928218274 29.615271928218274 29.615271928218274 29.615271928218274 29.615271928218274 29.615271928218274 29.615271928218274 29.615271928218274 29.615271928218274 29.615271928218274 29.615271928218274 29.615271928218274 29.615271928218274 29.615271928218274 29.615271928218274 29.615271928218274 29.615271928218274 29.615271928218274 29.615271928218274 29.615271928218274 29.615271928218274 29.615271928218274 29.615271928218274 29.615271928218274 29.615271928218274 29.615271928218274 29.615271928218274 29.615271928218274 29.615271928218274 29.615271928218274 29.615271928218274 29.615271928218274 29.615271928218274 29.615271928218274 29.58450833180736 29.58450833180736 29.615271928218274 29.58450833180736 29.58450833180736 29.58450833180736 29.615271928218274 29.615271928218274 29.58450833180736 29.58450833180736 29.615271928218274 29.58450833180736 29.615271928218274 29.58450833180736 29.58450833180736 29.58450833180736 29.615271928218274 29.58450833180736 29.58450833180736 29.58450833180736 29.58450833180736 29.58450833180736 29.615271928218274 29.58450833180736 29.58450833180736 29.58450833180736 29.58450833180736 29.58450833180736 29.58450833180736 29.615271928218274 29.58450833180736 29.58450833180736 29.58450833180736 29.58450833180736 29.615271928218274 29.615271928218274 29.58450833180736 29.58450833180736 29.615271928218274 29.615271928218274 29.58450833180736 29.58450833180736 29.615271928218274 29.615271928218274 29.58450833180736 29.58450833180736 29.58450833180736 29.58450833180736 29.58450833180736 29.615271928218274 29.58450833180736 29.615271928218274 29.58450833180736 29.58450833180736 29.615271928218274 29.58450833180736 29.58450833180736 29.58450833180736 29.58450833180736 29.58450833180736 29.58450833180736 29.58450833180736 29.58450833180736 29.615271928218274 29.58450833180736 29.58450833180736 29.615271928218274 29.58450833180736 29.58450833180736 29.58450833180736 29.58450833180736 29.58450833180736 29.58450833180736 29.615271928218274 29.58450833180736 29.58450833180736 29.58450833180736 29.615271928218274 29.58450833180736 29.58450833180736 29.58450833180736 29.58450833180736 29.615271928218274 29.58450833180736 29.58450833180736 29.58450833180736 29.58450833180736 29.58450833180736 29.58450833180736 29.58450833180736 29.58450833180736 29.58450833180736 29.58450833180736 29.58450833180736 29.58450833180736 29.58450833180736 29.58450833180736 29.58450833180736 29.58450833180736 29.58450833180736 29.58450833180736 29.58450833180736 29.58450833180736 29.58450833180736 29.58450833180736 29.58450833180736 29.58450833180736 29.58450833180736 29.58450833180736 29.58450833180736 29.58450833180736 29.58450833180736 29.58450833180736 29.58450833180736 29.58450833180736 29.58450833180736 29.58450833180736 29.58450833180736 29.58450833180736 29.58450833180736 29.58450833180736 29.58450833180736 29.58450833180736 29.58450833180736 29.58450833180736 29.58450833180736 29.58450833180736 29.58450833180736 29.58450833180736 29.58450833180736 29.58450833180736 29.58450833180736 29.58450833180736 29.58450833180736 29.58450833180736 29.58450833180736 29.58450833180736 29.58450833180736 29.58450833180736 29.58450833180736 29.58450833180736 29.58450833180736 29.58450833180736 29.58450833180736 29.58450833180736 29.58450833180736 29.58450833180736 29.58450833180736 29.58450833180736 29.58450833180736 29.58450833180736 29.58450833180736 29.58450833180736 29.58450833180736 29.58450833180736 29.58450833180736 29.58450833180736 29.58450833180736 29.58450833180736 29.58450833180736 29.58450833180736 29.58450833180736 29.58450833180736 29.58450833180736 29.58450833180736 29.58450833180736 29.58450833180736 29.58450833180736 29.58450833180736 29.58450833180736 29.58450833180736 29.58450833180736 29.58450833180736 29.58450833180736 29.58450833180736 29.58450833180736 29.58450833180736 29.58450833180736 29.58450833180736 29.58450833180736 29.58450833180736 29.58450833180736 29.58450833180736 29.58450833180736 29.58450833180736 29.58450833180736 29.58450833180736 29.58450833180736 29.58450833180736 29.58450833180736 29.58450833180736 29.58450833180736 29.58450833180736 29.58450833180736 29.58450833180736 29.58450833180736 29.58450833180736 29.58450833180736 29.58450833180736 29.58450833180736 29.58450833180736 29.58450833180736 29.58450833180736 29.58450833180736 29.58450833180736 29.58450833180736 29.58450833180736 29.58450833180736 29.58450833180736 29.58450833180736 29.58450833180736 29.58450833180736 29.58450833180736 29.58450833180736 29.58450833180736 29.58450833180736 29.58450833180736 29.58450833180736 29.615271928218274 29.615271928218274 29.615271928218274 29.615271928218274 29.615271928218274 29.615271928218274 29.615271928218274 29.615271928218274 29.646035524629188 29.646035524629188 29.646035524629188 29.6767991210401 29.6767991210401 29.6767991210401 29.707562717451015 29.707562717451015 29.707562717451015 29.73832631386193 29.769089910272843 29.799853506683757 29.83061710309467 29.861380699505585 29.922907892327412 29.98443508514924 30.07672587438198 30.107489470792896 30.13825306720381 30.169016663614723 30.199780260025637 30.261307452847465 30.322834645669293 30.353598242080206 30.507416224134772 30.630470609778428 30.691997802600255 30.81505218824391 30.907342977476652 30.96887017029848 31.030397363120308 31.091924555942136 31.153451748763963 31.27650613440762 31.36879692364036 31.584142098516754 31.676432887749495 31.830250869804065 31.95330525544772 32.04559604468046 32.23017762314594 32.44552279802234 32.69163156930965 32.93774034059696 33.12232191906244 33.460721479582496 33.67606665445889 34.04522981138985 34.35286577549899 34.5989745467863 34.75279252884087 34.90661051089544 34.99890130012818 35.12195568577184 35.27577366782641 35.46035524629189 35.706464017579194 35.98333638527742 36.198681560153815 36.47555392785204 36.72166269913935 37.09082585607032 37.306171030946714 37.521516205823104 37.82915216993224 38.167551730452296 38.50595129097235 38.8443508514924 39.09045962277971 39.49038637612159 39.82878593664164 40.1979490935726 40.6286394433254 40.90551181102362 41.36696575718733 41.73612891411829 42.013001281816514 42.412928035158394 42.78209119208936 43.0897271561985 43.42812671671855 43.67423548800586 44.01263504852591 44.4433253982787 44.72019776597693 44.90477934444241 45.15088811572972 45.3354696941952 45.61234206189343 45.79692364035891 46.16608679728987 46.47372276139901 46.68906793627541 46.965940303973625 47.27357626808276 47.45815784654825 47.73503021424648 47.95037538912287 48.22724775682109 48.50412012451932 48.6887017029848 49.05786485991577 49.21168284197033 49.427028016846734 49.673136788134045 49.85771836659953 50.134590734297745 50.4729902948178 50.71909906610511 50.903680644570585 51.05749862662516 51.211316608679724 51.42666178355613 51.64200695843252 51.85735213330892 52.07269730818531 52.22651529023988 52.44186046511628 52.62644204358176 52.811023622047244 52.99560520051273 53.14942318256729 53.364768357443694 53.580113532320084 53.73393151437466 53.918513092840136 54.01080388207288 54.10309467130563 54.19538546053836 54.25691265336019 54.34920344259293 54.41073063541476 54.44149423182567 54.47225782823658 54.47225782823658 54.53378502105841 54.56454861746933 54.626075810291155 54.7183665995239 54.77989379234572 54.841420985167545 54.90294817798937 54.933711774400294 54.99523896722212 55.026002563633035 55.05676616004395 55.087529756454856 55.087529756454856 55.087529756454856 55.087529756454856 55.087529756454856 55.087529756454856 55.087529756454856 55.087529756454856 55.087529756454856 55.087529756454856 55.087529756454856 55.087529756454856 55.087529756454856 55.087529756454856 55.05676616004395 55.05676616004395 55.05676616004395 55.05676616004395 55.05676616004395 55.05676616004395 55.05676616004395 55.05676616004395 55.05676616004395 55.05676616004395 55.026002563633035 55.026002563633035 55.026002563633035 55.05676616004395 55.026002563633035 54.99523896722212 54.99523896722212 54.99523896722212 54.99523896722212 54.9644753708112 54.9644753708112 54.9644753708112 54.933711774400294 54.933711774400294 54.933711774400294 54.90294817798937 54.90294817798937 54.90294817798937 54.90294817798937 54.90294817798937 54.90294817798937 54.90294817798937 54.872184581578466 54.872184581578466 54.841420985167545 54.841420985167545 54.841420985167545 54.841420985167545 54.81065738875664 54.841420985167545 54.81065738875664 54.81065738875664 54.77989379234572 54.77989379234572 54.7183665995239 54.68760300311298 54.626075810291155 54.53378502105841 54.5030214246475 54.47225782823658 54.41073063541476 54.41073063541476 54.379967039003844 54.379967039003844 54.34920344259293 54.34920344259293 54.31843984618202 54.31843984618202 54.31843984618202 54.31843984618202 54.34920344259293 54.31843984618202 54.34920344259293 54.31843984618202 54.31843984618202 54.31843984618202 54.31843984618202 54.34920344259293 54.34920344259293 54.34920344259293 54.34920344259293 54.34920344259293 54.34920344259293 54.34920344259293 54.34920344259293 54.34920344259293 54.34920344259293 54.34920344259293 54.34920344259293 54.34920344259293 54.34920344259293 54.34920344259293 54.34920344259293 54.34920344259293 54.34920344259293 54.34920344259293 54.34920344259293 54.34920344259293 54.34920344259293 54.34920344259293 54.34920344259293 54.34920344259293 54.379967039003844 54.34920344259293 54.34920344259293 54.34920344259293 54.379967039003844 54.34920344259293 54.34920344259293 54.379967039003844 54.379967039003844 54.34920344259293 54.34920344259293 54.379967039003844 54.34920344259293 54.379967039003844 54.34920344259293 54.379967039003844 54.34920344259293 54.34920344259293 54.34920344259293 54.34920344259293 54.34920344259293 54.34920344259293 54.34920344259293 54.34920344259293 54.34920344259293 54.34920344259293 54.34920344259293 54.31843984618202 54.34920344259293 54.31843984618202 54.31843984618202 54.31843984618202 54.31843984618202 54.31843984618202 54.31843984618202 54.31843984618202 54.31843984618202 54.31843984618202 54.31843984618202 54.31843984618202 54.31843984618202 54.31843984618202 54.31843984618202 54.31843984618202 54.31843984618202 54.31843984618202 54.31843984618202 54.31843984618202 54.31843984618202 54.2876762497711 54.2876762497711 54.2876762497711 54.25691265336019 54.226149056949275 54.16462186412745 54.13385826771653 54.0415674784838 54.01080388207288 53.94927668925105 53.88774949642922 53.826222303607395 53.79545870719648 53.76469511078557 53.76469511078557 53.76469511078557 53.73393151437466 53.73393151437466 53.73393151437466 53.70316791796374 53.70316791796374 53.70316791796374 53.67240432155283 53.64164072514191 53.610877128731005 53.518586339498256 53.45705914667643 53.364768357443694 53.21095037538912 53.057132393334555 52.96484160410181 52.62644204358176 52.47262406152719 52.257278886650795 51.91887932613075 51.58047976561069 51.242080205090645 50.903680644570585 50.78062625892693 50.442226698406884 50.22688152353049 49.79619117377769 49.48855520966856 49.27321003479216 49.027101263504846 48.780992492217536 48.59641091375206 48.38106573887566 48.13495696758835 47.91961179271196 47.61197582860282 47.39663065372642 47.08899468961728 46.68906793627541 46.41219556857718 46.2276139901117 46.0122688152353 45.79692364035891 45.45852407983885 45.21241530855154 44.781724958798755 44.474088994689616 44.32027101263505 44.04339864493682 43.70499908441677 43.39736312030763 42.99743636696576 42.72056399926753 42.35140084233657 42.07452847463834 41.64383812488555 41.18238417872185 40.78245742537997 40.444057864859914 40.01336751510712 39.70573155099798 39.24427760483428 38.967405237136056 38.567478483794176 38.10602453763047 37.798388573521336 37.33693462735763 36.81395348837209 36.53708112067387 36.26020875297564 36.07562717451016 35.76799121040103 35.583409631935545 35.24501007141549 34.96813770371727 34.66050173960813 34.475920161142646 34.26057498626625 34.137520600622594 33.983702618568024 33.829884636513455 33.64530305804798 33.522248672404324 33.368430690349754 33.2453763047061 33.060794726240616 32.99926753341879 32.87621314777513 32.75315876213148 32.660867972898735 32.53781358725508 32.32246841237868 32.168650430324114 31.984068851858634 31.891778062625892 31.79948727339315 31.768723676982237 31.676432887749495 31.584142098516754 31.461087712873102 31.36879692364036 31.27650613440762 31.21497894158579 31.153451748763963 31.091924555942136 31.06116095953122 30.999633766709394 30.87657938106574 30.784288591832997 30.630470609778428 30.538179820545686 30.445889031312948 30.322834645669293 30.23054385643655 30.169016663614723 30.07672587438198 30.045962277971068 30.015198681560154 30.015198681560154 29.98443508514924 29.98443508514924 29.953671488738326 29.953671488738326 29.953671488738326 29.953671488738326 29.953671488738326 29.953671488738326 29.953671488738326 29.953671488738326 29.953671488738326 29.922907892327412 29.922907892327412 29.922907892327412 29.922907892327412 29.8921442959165 29.8921442959165 29.8921442959165 29.8921442959165 29.8921442959165 29.8921442959165 29.8921442959165 29.8921442959165 29.8921442959165 29.8921442959165 29.8921442959165 29.8921442959165 29.861380699505585 29.861380699505585 29.861380699505585 29.83061710309467 29.83061710309467 29.83061710309467 29.799853506683757 29.799853506683757 29.799853506683757 29.799853506683757 29.799853506683757 29.799853506683757 29.799853506683757 29.799853506683757 29.799853506683757 29.799853506683757 29.799853506683757 29.799853506683757 29.799853506683757 29.799853506683757 29.769089910272843 29.769089910272843 29.769089910272843 29.769089910272843 29.769089910272843 29.769089910272843 29.769089910272843 29.769089910272843 29.73832631386193 29.769089910272843 29.769089910272843 29.769089910272843 29.769089910272843 29.769089910272843 29.769089910272843 29.769089910272843 29.769089910272843 29.769089910272843 29.769089910272843 29.73832631386193 29.769089910272843 29.73832631386193 29.769089910272843 29.769089910272843 29.769089910272843 29.73832631386193 29.769089910272843 29.73832631386193 29.73832631386193 29.73832631386193 29.769089910272843 29.73832631386193 29.73832631386193 29.707562717451015 29.73832631386193 29.73832631386193 29.707562717451015 29.707562717451015 29.707562717451015 29.707562717451015 29.707562717451015 29.707562717451015 29.707562717451015 29.707562717451015 29.707562717451015 29.707562717451015 29.707562717451015 29.707562717451015 29.707562717451015 29.707562717451015 29.707562717451015 29.707562717451015 29.707562717451015 29.707562717451015 29.707562717451015 29.707562717451015 29.707562717451015 29.707562717451015 29.707562717451015 29.6767991210401 29.6767991210401 29.707562717451015 29.6767991210401 29.707562717451015 29.707562717451015 29.6767991210401 29.6767991210401 29.707562717451015 29.6767991210401 29.6767991210401 29.6767991210401 29.6767991210401 29.6767991210401 29.6767991210401 29.6767991210401 29.707562717451015 29.6767991210401 29.6767991210401 29.6767991210401 29.707562717451015 29.707562717451015 29.707562717451015 29.6767991210401 29.6767991210401 29.6767991210401 29.6767991210401 29.6767991210401 29.6767991210401 29.707562717451015 29.6767991210401 29.6767991210401 29.6767991210401 29.6767991210401 29.6767991210401 29.6767991210401 29.6767991210401 29.6767991210401 29.6767991210401 29.6767991210401 29.6767991210401 29.6767991210401 29.6767991210401 29.6767991210401 29.6767991210401 29.6767991210401 29.6767991210401 29.6767991210401 29.6767991210401 29.6767991210401 29.6767991210401 29.6767991210401 29.6767991210401 29.6767991210401 29.646035524629188 29.646035524629188 29.6767991210401 29.646035524629188 29.646035524629188 29.6767991210401 29.646035524629188 29.6767991210401 29.6767991210401 29.646035524629188 29.646035524629188 29.646035524629188 29.646035524629188 29.646035524629188 29.646035524629188 29.646035524629188 29.6767991210401 29.646035524629188 29.646035524629188 29.646035524629188 29.646035524629188 29.646035524629188 29.646035524629188 29.646035524629188 29.646035524629188 29.646035524629188 29.646035524629188 29.646035524629188 29.646035524629188 29.646035524629188 29.646035524629188 29.646035524629188 29.646035524629188 29.646035524629188 29.646035524629188 29.646035524629188 29.646035524629188 29.646035524629188 29.646035524629188 29.646035524629188 29.646035524629188 29.646035524629188 29.646035524629188 29.646035524629188 29.646035524629188 29.646035524629188 29.646035524629188 29.6767991210401 29.646035524629188 29.646035524629188 29.646035524629188 29.646035524629188 29.646035524629188 29.646035524629188 29.646035524629188 29.646035524629188 29.646035524629188 29.646035524629188 29.646035524629188 29.646035524629188 29.6767991210401 29.646035524629188 29.646035524629188 29.646035524629188 29.646035524629188 29.646035524629188 29.646035524629188 29.646035524629188 29.646035524629188 29.646035524629188 29.646035524629188 29.646035524629188 29.646035524629188 29.646035524629188 29.646035524629188 29.646035524629188 29.646035524629188 29.646035524629188 29.646035524629188 29.646035524629188 29.646035524629188 29.646035524629188 29.646035524629188 29.646035524629188 29.646035524629188 29.646035524629188 29.646035524629188 29.646035524629188 29.646035524629188 29.646035524629188 29.646035524629188 29.646035524629188 29.646035524629188 29.646035524629188 29.646035524629188 29.646035524629188 29.646035524629188 29.646035524629188 29.646035524629188 29.646035524629188 29.646035524629188 29.646035524629188 29.646035524629188 29.646035524629188 29.646035524629188 29.646035524629188 29.646035524629188 29.615271928218274 29.646035524629188 29.646035524629188 29.646035524629188 29.646035524629188 29.646035524629188 29.646035524629188 29.646035524629188 29.646035524629188 29.646035524629188 29.646035524629188 29.646035524629188 29.646035524629188 29.646035524629188 29.646035524629188 29.646035524629188 29.646035524629188 29.646035524629188 29.646035524629188 29.646035524629188 29.646035524629188 29.646035524629188 29.646035524629188 29.646035524629188 29.646035524629188 29.646035524629188 29.646035524629188 29.646035524629188 29.646035524629188 29.646035524629188 29.646035524629188 29.646035524629188 29.646035524629188 29.646035524629188 29.646035524629188 29.646035524629188 29.646035524629188 29.646035524629188 29.646035524629188 29.646035524629188 29.646035524629188 29.646035524629188 29.646035524629188 29.646035524629188 29.646035524629188 29.646035524629188 29.646035524629188 29.646035524629188 29.646035524629188 29.646035524629188 29.646035524629188 29.646035524629188 29.646035524629188 29.646035524629188 29.646035524629188 29.646035524629188 29.646035524629188 29.646035524629188 29.646035524629188 29.646035524629188 29.646035524629188 29.646035524629188 29.646035524629188 29.646035524629188 29.646035524629188 29.646035524629188 29.646035524629188 29.646035524629188 29.646035524629188 29.646035524629188 29.6767991210401 29.6767991210401 29.6767991210401 29.6767991210401 29.6767991210401 29.6767991210401 29.6767991210401 29.6767991210401 29.6767991210401 29.707562717451015 29.707562717451015 29.707562717451015 29.707562717451015 29.707562717451015 29.73832631386193 29.73832631386193 29.73832631386193 29.73832631386193 29.73832631386193 29.73832631386193 29.73832631386193 29.769089910272843 29.769089910272843 29.769089910272843 29.769089910272843 29.799853506683757 29.799853506683757 29.83061710309467 29.83061710309467 29.861380699505585 29.861380699505585 29.8921442959165 29.922907892327412 29.922907892327412 29.953671488738326 29.98443508514924 30.015198681560154 30.045962277971068 30.07672587438198 30.07672587438198 30.07672587438198 30.107489470792896 30.107489470792896 30.13825306720381 30.169016663614723 30.23054385643655 30.261307452847465 30.29207104925838 30.38436183849112 30.47665262772386 30.599707013367514 30.72276139901117 30.845815784654825 30.938106573887566 31.030397363120308 31.091924555942136 31.21497894158579 31.27650613440762 31.430324116462188 31.584142098516754 31.676432887749495 31.86101446621498 32.014832448269544 32.168650430324114 32.29170481596777 32.44552279802234 32.63010437648782 32.906976744186046 33.09155832265153 33.42995788317158 33.76835744369163 34.04522981138985 34.29133858267716 34.56821095037539 34.96813770371727 35.337300860648234 35.583409631935545 35.98333638527742 36.3832631386193 36.66013550631752 37.09082585607032 37.398461820179456 37.859915766343164 38.321369712506865 38.69053286943783 39.09045962277971 39.582677165354326 39.890313129463465 40.290239882805345 40.690166636147225 41.090093389489105 41.5207837392419 41.85918329976195 42.44369163156931 42.75132759567845 43.058963559787585 43.5511811023622 43.79728987364952 44.16645303058048 44.535616187511444 44.84325215162058 45.24317890496246 45.52005127266068 45.98150521882439 46.41219556857718 46.71983153268632 47.15052188243911 47.5812122321919 47.95037538912287 48.25801135323201 48.50412012451932 49.027101263504846 49.27321003479216 49.580845998901296 49.888481963010435 50.31917231276323 50.50375389122871 50.934444240981506 51.211316608679724 51.61124336202161 51.949642922541656 52.257278886650795 52.59567844717085 52.903314411279986 53.118659586156376 53.364768357443694 53.54934993590917 53.79545870719648 54.072331074894706 54.25691265336019 54.53378502105841 54.81065738875664 55.026002563633035 55.36440212415309 55.45669291338582 55.70280168467313 55.97967405237136 56.13349203442593 56.31807361289141 56.53341878776781 56.62570957700055 56.718000366233284 56.748763962644205 56.77952755905512 56.77952755905512 56.77952755905512 56.748763962644205 56.748763962644205 56.748763962644205 56.748763962644205 56.748763962644205 56.718000366233284 56.718000366233284 56.718000366233284 56.656473173411456 56.656473173411456 56.62570957700055 56.56418238417872 56.56418238417872 56.56418238417872 56.56418238417872 56.56418238417872 56.56418238417872 56.56418238417872 56.56418238417872 56.56418238417872 56.56418238417872 56.56418238417872 56.56418238417872 56.59494598058963 56.59494598058963 56.59494598058963 56.59494598058963 56.59494598058963 56.59494598058963 56.59494598058963 56.59494598058963 56.59494598058963 56.59494598058963 56.59494598058963 56.59494598058963 56.59494598058963 56.59494598058963 56.56418238417872 56.56418238417872 56.56418238417872 56.56418238417872 56.56418238417872 56.56418238417872 56.53341878776781 56.53341878776781 56.502655191356894 56.47189159494598 56.47189159494598 56.47189159494598 56.47189159494598 56.441127998535066 56.37960080571324 56.348837209302324 56.31807361289141 56.31807361289141 56.31807361289141 56.31807361289141 56.31807361289141 56.31807361289141 56.31807361289141 56.31807361289141 56.31807361289141 56.31807361289141 56.31807361289141 56.31807361289141 56.31807361289141 56.31807361289141 56.31807361289141 56.31807361289141 56.31807361289141 56.31807361289141 56.31807361289141 56.31807361289141 56.31807361289141 56.31807361289141 56.31807361289141 56.31807361289141 56.31807361289141 56.31807361289141 56.31807361289141 56.31807361289141 56.31807361289141 56.31807361289141 56.31807361289141 56.31807361289141 56.31807361289141 56.31807361289141 56.31807361289141 56.31807361289141 56.31807361289141 56.31807361289141 56.31807361289141 56.31807361289141 56.31807361289141 56.31807361289141 56.31807361289141 56.31807361289141 56.31807361289141 56.31807361289141 56.31807361289141 56.31807361289141 56.31807361289141 56.31807361289141 56.348837209302324 56.31807361289141 56.31807361289141 56.31807361289141 56.31807361289141 56.31807361289141 56.31807361289141 56.31807361289141 56.31807361289141 56.348837209302324 56.348837209302324 56.31807361289141 56.348837209302324 56.348837209302324 56.31807361289141 56.31807361289141 56.348837209302324 56.31807361289141 56.31807361289141 56.348837209302324 56.31807361289141 56.31807361289141 56.31807361289141 56.25654642006958 56.225782823658676 56.16425563083684 56.10272843801501 56.0719648416041 56.041201245193186 55.97967405237136 55.948910455960444 55.88738326313862 55.88738326313862 55.85661966672771 55.88738326313862 55.88738326313862 55.88738326313862 55.88738326313862 55.88738326313862 55.88738326313862 55.88738326313862 55.88738326313862 55.91814685954953 55.88738326313862 55.91814685954953 55.91814685954953 55.91814685954953 55.91814685954953 55.91814685954953 55.91814685954953 55.91814685954953 55.91814685954953 55.91814685954953 55.91814685954953 55.91814685954953 55.91814685954953 55.88738326313862 55.82585607031679 55.79509247390588 55.76432887749496 55.76432887749496 55.73356528108405 55.70280168467313 55.67203808826222 55.641274491851306 55.61051089544039 55.57974729902948 55.54898370261857 55.48745650979674 55.395165720563995 55.33363852774217 55.27211133492034 55.149056949276684 55.026002563633035 54.933711774400294 54.841420985167545 54.68760300311298 54.47225782823658 54.2876762497711 54.13385826771653 53.88774949642922 53.73393151437466 53.48782274308734 53.24171397180004 53.057132393334555 52.74949642922542 52.34956967588353 52.07269730818531 51.67277055484343 51.39589818714521 51.02673503021424 50.62680827687237 50.31917231276323 49.85771836659953 49.24244643838125 48.93481047427211 48.50412012451932 48.19648416041018 47.73503021424648 47.39663065372642 46.996703900384546 46.53524995422084 46.07379600805713 45.76616004394799 45.30470609778429 44.935542940853324 44.4433253982787 43.92034425929317 43.52041750595129 42.99743636696576 42.412928035158394 41.7668925105292 41.12085698590002 40.65940303973631 40.01336751510712 39.582677165354326 39.121223219190625 38.567478483794176 37.798388573521336 37.33693462735763 36.78318989196118 36.3832631386193 35.86028199963376 35.55264603552463 35.029664896539096 34.50668375755356 34.04522981138985 33.829884636513455 33.55301226881524 33.39919428676067 33.18384911188427 33.09155832265153 32.968503937007874 32.78392235854239 32.59934078007691 32.47628639443325 32.29170481596777 32.07635964109137 31.891778062625892 31.768723676982237 31.64566929133858 31.55337850210584 31.491851309284012 31.36879692364036 31.307269730818533 31.21497894158579 31.12268815235305 31.06116095953122 30.999633766709394 30.907342977476652 30.87657938106574 30.784288591832997 30.72276139901117 30.66123420618934 30.5689434169566 30.445889031312948 30.38436183849112 30.29207104925838 30.23054385643655 30.107489470792896 30.015198681560154 29.922907892327412 29.861380699505585 29.83061710309467 29.799853506683757 29.769089910272843 29.73832631386193 29.73832631386193 29.707562717451015 29.707562717451015 29.707562717451015 29.707562717451015 29.707562717451015 29.6767991210401 29.6767991210401 29.6767991210401 29.6767991210401 29.6767991210401 29.6767991210401 29.6767991210401 29.646035524629188 29.646035524629188 29.646035524629188 29.646035524629188 29.646035524629188 29.646035524629188 29.646035524629188 29.646035524629188 29.646035524629188 29.646035524629188 29.646035524629188 29.646035524629188 29.646035524629188 29.646035524629188 29.646035524629188 29.615271928218274 29.615271928218274 29.615271928218274 29.615271928218274 29.615271928218274 29.615271928218274 29.615271928218274 29.615271928218274 29.615271928218274 29.615271928218274 29.615271928218274 29.615271928218274 29.615271928218274 29.615271928218274 29.615271928218274 29.615271928218274 29.615271928218274 29.615271928218274 29.615271928218274 29.615271928218274 29.615271928218274 29.615271928218274 29.615271928218274 29.615271928218274 29.615271928218274 29.615271928218274 29.615271928218274 29.615271928218274 29.615271928218274 29.58450833180736 29.615271928218274 29.58450833180736 29.58450833180736 29.615271928218274 29.58450833180736 29.58450833180736 29.58450833180736 29.58450833180736 29.58450833180736 29.58450833180736 29.58450833180736 29.58450833180736 29.58450833180736 29.58450833180736 29.58450833180736 29.58450833180736 29.58450833180736 29.58450833180736 29.58450833180736 29.58450833180736 29.58450833180736 29.58450833180736 29.58450833180736 29.58450833180736 29.58450833180736 29.58450833180736 29.58450833180736 29.58450833180736 29.58450833180736 29.58450833180736 29.553744735396446 29.58450833180736 29.58450833180736 29.58450833180736 29.553744735396446 29.553744735396446 29.553744735396446 29.553744735396446 29.553744735396446 29.553744735396446 29.553744735396446 29.522981138985532 29.553744735396446 29.553744735396446 29.522981138985532 29.553744735396446 29.553744735396446 29.553744735396446 29.553744735396446 29.553744735396446 29.522981138985532 29.553744735396446 29.553744735396446 29.522981138985532 29.522981138985532 29.522981138985532 29.522981138985532 29.553744735396446 29.522981138985532 29.553744735396446 29.553744735396446 29.553744735396446 29.553744735396446 29.522981138985532 29.553744735396446 29.522981138985532 29.553744735396446 29.522981138985532 29.522981138985532 29.522981138985532 29.553744735396446 29.553744735396446 29.522981138985532 29.522981138985532 29.522981138985532 29.522981138985532 29.522981138985532 29.522981138985532 29.522981138985532 29.522981138985532 29.522981138985532 29.553744735396446 29.522981138985532 29.522981138985532 29.522981138985532 29.522981138985532 29.553744735396446 29.522981138985532 29.522981138985532 29.522981138985532 29.553744735396446 29.522981138985532 29.553744735396446 29.522981138985532 29.553744735396446 29.522981138985532 29.522981138985532 29.522981138985532 29.522981138985532 29.522981138985532 29.522981138985532 29.522981138985532 29.522981138985532 29.522981138985532 29.522981138985532 29.522981138985532 29.522981138985532 29.522981138985532 29.522981138985532 29.522981138985532 29.553744735396446 29.522981138985532 29.553744735396446 29.522981138985532 29.522981138985532 29.522981138985532 29.522981138985532 29.522981138985532 29.522981138985532 29.522981138985532 29.553744735396446 29.522981138985532 29.522981138985532 29.522981138985532 29.522981138985532 29.522981138985532 29.553744735396446 29.522981138985532 29.522981138985532 29.522981138985532 29.522981138985532 29.522981138985532 29.522981138985532 29.522981138985532 29.522981138985532 29.522981138985532 29.522981138985532 29.522981138985532 29.522981138985532 29.553744735396446 29.522981138985532 29.553744735396446 29.522981138985532 29.522981138985532 29.522981138985532 29.522981138985532 29.522981138985532 29.522981138985532 29.553744735396446 29.553744735396446 29.522981138985532 29.553744735396446 29.553744735396446 29.522981138985532 29.522981138985532 29.522981138985532 29.553744735396446 29.553744735396446 29.553744735396446 29.522981138985532 29.522981138985532 29.522981138985532 29.553744735396446 29.522981138985532 29.522981138985532 29.522981138985532 29.553744735396446 29.522981138985532 29.522981138985532 29.522981138985532 29.522981138985532 29.522981138985532 29.522981138985532 29.522981138985532 29.522981138985532 29.522981138985532 29.553744735396446 29.522981138985532 29.522981138985532 29.522981138985532 29.522981138985532 29.522981138985532 29.522981138985532 29.522981138985532 29.522981138985532 29.522981138985532 29.522981138985532 29.522981138985532 29.522981138985532 29.522981138985532 29.553744735396446 29.553744735396446 29.522981138985532 29.522981138985532 29.553744735396446 29.522981138985532 29.522981138985532 29.553744735396446 29.553744735396446 29.553744735396446 29.553744735396446 29.522981138985532 29.522981138985532 29.553744735396446 29.553744735396446 29.553744735396446 29.553744735396446 29.553744735396446 29.553744735396446 29.522981138985532 29.522981138985532 29.553744735396446 29.553744735396446 29.553744735396446 29.553744735396446 29.522981138985532 29.522981138985532 29.553744735396446 29.553744735396446 29.553744735396446 29.553744735396446 29.553744735396446 29.553744735396446 29.553744735396446 29.553744735396446 29.553744735396446 29.553744735396446 29.553744735396446 29.553744735396446 29.553744735396446 29.553744735396446 29.553744735396446 29.553744735396446 29.553744735396446 29.553744735396446 29.553744735396446 29.553744735396446 29.553744735396446 29.553744735396446 29.553744735396446 29.553744735396446 29.553744735396446 29.553744735396446 29.553744735396446 29.553744735396446 29.522981138985532 29.553744735396446 29.553744735396446 29.553744735396446 29.553744735396446 29.553744735396446 29.553744735396446 29.553744735396446 29.553744735396446 29.553744735396446 29.553744735396446 29.553744735396446 29.553744735396446 29.58450833180736 29.58450833180736 29.58450833180736 29.58450833180736 29.615271928218274 29.615271928218274 29.615271928218274 29.615271928218274 29.615271928218274 29.646035524629188 29.646035524629188 29.6767991210401 29.646035524629188 29.6767991210401 29.6767991210401 29.6767991210401 29.6767991210401 29.707562717451015 29.707562717451015 29.73832631386193 29.769089910272843 29.769089910272843 29.799853506683757 29.83061710309467 29.8921442959165 29.922907892327412 30.015198681560154 30.07672587438198 30.107489470792896 30.169016663614723 30.23054385643655 30.29207104925838 30.353598242080206 30.415125434902034 30.47665262772386 30.538179820545686 30.5689434169566 30.66123420618934 30.691997802600255 30.72276139901117 30.784288591832997 30.845815784654825 30.907342977476652 30.999633766709394 31.030397363120308 31.091924555942136 31.153451748763963 31.21497894158579 31.27650613440762 31.36879692364036 31.491851309284012 31.614905694927668 31.768723676982237 31.984068851858634 32.19941402673503 32.38399560520051 32.63010437648782 32.78392235854239 33.0300311298297 33.33766709393884 33.522248672404324 33.76835744369163 33.922175425746204 34.01446621497894 34.137520600622594 34.26057498626625 34.475920161142646 34.783556125251785 35.12195568577184 35.491118842702804 35.9218091924556 36.1679179637429 36.93700787401575 37.24464383812489 37.61380699505585 38.04449734480864 38.38289690532869 38.81358725508149 39.24427760483428 39.5211499725325 39.890313129463465 40.16718549716169 40.56711225050357 40.936275407434536 41.21314777513276 41.55154733565281 41.82841970335103 42.197582860282 42.566746017212964 42.84361838491119 43.24354513825307 43.64347189159494 43.88958066288225 44.4433253982787 44.781724958798755 45.089360922907886 45.396996887017025 45.79692364035891 46.13532320087896 46.47372276139901 46.71983153268632 47.05823109320637 47.27357626808276 47.5812122321919 47.91961179271196 48.13495696758835 48.44259293169749 48.780992492217536 49.027101263504846 49.365500824024906 49.580845998901296 49.91924555942135 50.22688152353049 50.4729902948178 50.842153451748764 51.149789415857896 51.33437099432338 51.58047976561069 51.76506134407617 51.98040651895257 52.13422450100714 52.34956967588353 52.53415125434902 52.68796923640359 52.811023622047244 52.99560520051273 53.14942318256729 53.24171397180004 53.364768357443694 53.45705914667643 53.518586339498256 53.610877128731005 53.64164072514191 53.70316791796374 53.76469511078557 53.76469511078557 53.79545870719648 53.79545870719648 53.826222303607395 53.826222303607395 53.85698590001831 53.85698590001831 53.88774949642922 53.88774949642922 53.918513092840136 53.918513092840136 53.94927668925105 53.980040285661964 54.01080388207288 54.072331074894706 54.10309467130563 54.16462186412745 54.19538546053836 54.25691265336019 54.34920344259293 54.41073063541476 54.47225782823658 54.56454861746933 54.59531221388024 54.65683940670207 54.68760300311298 54.68760300311298 54.7183665995239 54.7183665995239 54.74913019593481 54.74913019593481 54.7183665995239 54.74913019593481 54.74913019593481 54.74913019593481 54.74913019593481 54.74913019593481 54.74913019593481 54.74913019593481 54.74913019593481 54.74913019593481 54.74913019593481 54.74913019593481 54.74913019593481 54.74913019593481 54.74913019593481 54.74913019593481 54.74913019593481 54.74913019593481 54.74913019593481 54.77989379234572 54.74913019593481 54.74913019593481 54.74913019593481 54.74913019593481 54.74913019593481 54.74913019593481 54.7183665995239 54.74913019593481 54.7183665995239 54.7183665995239 54.7183665995239 54.7183665995239 54.7183665995239 54.7183665995239 54.7183665995239 54.7183665995239 54.7183665995239 54.7183665995239 54.7183665995239 54.7183665995239 54.7183665995239 54.7183665995239 54.74913019593481 54.74913019593481 54.74913019593481 54.7183665995239 54.7183665995239 54.7183665995239 54.7183665995239 54.7183665995239 54.7183665995239 54.7183665995239 54.74913019593481 54.7183665995239 54.7183665995239 54.7183665995239 54.74913019593481 54.7183665995239 54.7183665995239 54.7183665995239 54.7183665995239 54.7183665995239 54.7183665995239 54.7183665995239 54.7183665995239 54.7183665995239 54.7183665995239 