29.0 29.0 29.0 29.0 29.0 29.0 29.0 29.0 29.0 29.030763596410914 29.0 29.0 29.0 29.0 29.0 29.0 29.0 29.0 29.0 29.0 29.0 29.0 29.0 29.0 29.0 29.0 29.0 29.0 29.0 29.0 29.0 29.0 29.0 29.0 29.0 29.0 29.0 29.0 29.030763596410914 29.0 29.0 29.0 29.0 29.0 29.0 29.0 29.0 29.0 29.0 29.0 29.030763596410914 29.0 29.0 29.0 29.030763596410914 29.0 29.0 29.0 29.0 29.0 29.0 29.0 29.0 29.0 29.0 29.0 29.0 29.0 29.0 29.0 29.0 29.030763596410914 29.0 29.0 29.0 29.0 29.0 29.0 29.0 29.0 29.030763596410914 29.0 29.0 29.0 29.0 29.0 29.0 29.0 29.0 29.0 29.0 29.0 29.0 29.0 29.0 29.0 29.0 29.0 29.0 29.0 29.0 29.0 29.0 29.0 29.030763596410914 29.0 29.0 29.0 29.0 29.0 29.0 29.0 29.0 29.0 29.0 29.0 29.0 29.0 29.0 29.0 29.0 29.0 29.0 29.0 29.0 29.0 29.0 29.0 29.0 29.0 29.0 29.0 29.0 29.0 29.0 29.0 29.0 29.0 29.0 29.0 29.0 29.0 29.0 29.0 29.0 29.0 29.0 29.030763596410914 29.0 29.0 29.0 29.0 29.0 29.0 29.0 29.0 29.0 29.030763596410914 29.0 29.0 29.0 29.0 29.0 29.0 29.0 29.0 29.0 29.0 29.0 29.0 29.0 29.0 29.0 29.0 29.0 29.0 29.0 29.0 29.0 29.0 29.030763596410914 29.0 29.0 29.0 29.0 29.0 29.0 29.0 29.0 29.0 29.0 29.0 29.0 29.0 29.0 29.030763596410914 29.0 29.0 29.0 29.0 29.0 29.0 29.0 29.0 29.0 29.0 29.0 29.0 29.0 29.0 29.0 29.0 29.0 29.030763596410914 29.0 29.0 29.0 29.0 29.0 29.030763596410914 29.0 29.030763596410914 29.0 29.0 29.0 29.0 29.0 29.0 29.0 29.0 29.0 29.0 29.0 29.0 29.0 29.0 29.0 29.0 29.0 29.0 29.0 29.0 29.0 29.0 29.0 29.0 29.0 29.030763596410914 29.0 29.0 29.0 29.0 29.0 29.0 29.0 29.0 29.0 29.0 29.0 29.0 29.0 29.0 29.0 29.0 29.0 29.030763596410914 29.030763596410914 29.0 29.0 29.0 29.0 29.0 29.0 29.0 29.0 29.0 29.0 29.0 29.0 29.0 29.0 29.0 29.0 29.0 29.0 29.0 29.0 29.0 29.0 29.0 29.0 29.0 29.0 29.0 29.0 29.0 29.0 29.0 29.0 29.0 29.0 29.0 29.0 29.0 29.0 29.030763596410914 29.0 29.0 29.0 29.0 29.0 29.0 29.0 29.0 29.0 29.0 29.0 29.0 29.0 29.0 29.0 29.0 29.0 29.0 29.0 29.0 29.0 29.0 29.0 29.0 29.0 29.0 29.0 29.0 29.0 29.030763596410914 29.0 29.0 29.0 29.0 29.0 29.0 29.0 29.0 29.030763596410914 29.030763596410914 29.0 29.0 29.0 29.0 29.0 29.0 29.0 29.0 29.0 29.0 29.0 29.030763596410914 29.0 29.0 29.0 29.0 29.0 29.030763596410914 29.0 29.0 29.0 29.0 29.0 29.0 29.0 29.0 29.0 29.030763596410914 29.0 29.0 29.0 29.0 29.0 29.0 29.0 29.0 29.0 29.0 29.0 29.0 29.0 29.0 29.0 29.0 29.0 29.0 29.0 29.0 29.0 29.0 29.0 29.0 29.0 29.0 29.0 29.0 29.0 29.0 29.0 29.0 29.0 29.0 29.0 29.0 29.0 29.0 29.0 29.030763596410914 29.0 29.0 29.0 29.0 29.0 29.0 29.0 29.0 29.0 29.0 29.0 29.0 29.0 29.0 29.0 29.0 29.0 29.0 29.0 29.0 29.0 29.0 29.0 29.0 29.0 29.0 29.0 29.0 29.0 29.0 29.0 29.0 29.0 29.0 29.0 29.0 29.0 29.0 29.0 29.0 29.0 29.0 29.0 29.0 29.0 29.0 29.0 29.0 29.0 29.030763596410914 29.0 29.0 29.0 29.0 29.0 29.0 29.0 29.0 29.0 29.0 29.0 29.0 29.0 29.0 29.0 29.0 29.0 29.0 29.0 29.0 29.0 29.0 29.0 29.0 29.030763596410914 29.0 29.0 29.030763596410914 29.0 29.0 29.0 29.0 29.0 29.0 29.0 29.0 29.0 29.0 29.0 29.0 29.0 29.0 29.0 29.0 29.0 29.0 29.0 29.0 29.0 29.0 29.0 29.0 29.0 29.0 29.0 29.0 29.0 29.0 29.0 29.0 29.0 29.0 29.030763596410914 29.0 29.0 29.0 29.0 29.0 29.030763596410914 29.0 29.030763596410914 29.030763596410914 29.030763596410914 29.0 29.0 29.0 29.0 29.0 29.0 29.0 29.0 29.0 29.030763596410914 29.030763596410914 29.0 29.0 29.0 29.0 29.0 29.0 29.0 29.0 29.0 29.0 29.0 29.0 29.0 29.0 29.0 29.0 29.0 29.030763596410914 29.0 29.0 29.030763596410914 29.0 29.0 29.0 29.0 29.0 29.0 29.0 29.0 29.0 29.0 29.0 29.0 29.0 29.0 29.0 29.0 29.0 29.0 29.0 29.0 29.0 29.0 29.0 29.0 29.0 29.0 29.0 29.0 29.0 29.0 29.0 29.0 29.0 29.0 29.0 29.0 29.0 29.0 29.0 29.0 29.0 29.0 29.0 29.0 29.0 29.0 29.0 29.0 29.0 29.0 29.0 29.0 29.0 29.0 29.0 29.0 29.0 29.0 29.0 29.0 29.0 29.0 29.0 29.0 29.0 29.0 29.030763596410914 29.0 29.0 29.0 29.0 29.0 29.0 29.030763596410914 29.0 29.0 29.0 29.0 29.0 29.0 29.030763596410914 29.0 29.0 29.0 29.030763596410914 29.0 29.030763596410914 29.0 29.030763596410914 29.0 29.030763596410914 29.030763596410914 29.0 29.030763596410914 29.030763596410914 29.030763596410914 29.0 29.030763596410914 29.0 29.030763596410914 29.030763596410914 29.030763596410914 29.030763596410914 29.0 29.0 29.0 29.0 29.030763596410914 29.0 29.0 29.030763596410914 29.0 29.030763596410914 29.0 29.030763596410914 29.0 29.0 29.030763596410914 29.030763596410914 29.0 29.0 29.030763596410914 29.0 29.0 29.0 29.0 29.0 29.0 29.030763596410914 29.030763596410914 29.0 29.0 29.030763596410914 29.09229078923274 29.123054385643655 29.184581578465483 29.184581578465483 29.24610877128731 29.276872367698225 29.30763596410914 29.338399560520052 29.338399560520052 29.369163156930966 29.39992675334188 29.39992675334188 29.461453946163708 29.49221754257462 29.49221754257462 29.49221754257462 29.522981138985532 29.522981138985532 29.553744735396446 29.553744735396446 29.553744735396446 29.553744735396446 29.553744735396446 29.58450833180736 29.58450833180736 29.58450833180736 29.58450833180736 29.58450833180736 29.615271928218274 29.615271928218274 29.615271928218274 29.615271928218274 29.646035524629188 29.646035524629188 29.646035524629188 29.6767991210401 29.73832631386193 29.73832631386193 29.769089910272843 29.799853506683757 29.799853506683757 29.799853506683757 29.83061710309467 29.861380699505585 29.8921442959165 29.922907892327412 29.922907892327412 29.953671488738326 29.98443508514924 30.045962277971068 30.07672587438198 30.13825306720381 30.199780260025637 30.23054385643655 30.322834645669293 30.38436183849112 30.445889031312948 30.47665262772386 30.538179820545686 30.599707013367514 30.66123420618934 30.66123420618934 30.72276139901117 30.784288591832997 30.81505218824391 30.81505218824391 30.87657938106574 30.938106573887566 30.96887017029848 30.999633766709394 31.030397363120308 31.06116095953122 31.091924555942136 31.12268815235305 31.153451748763963 31.184215345174877 31.21497894158579 31.245742537996705 31.307269730818533 31.36879692364036 31.399560520051274 31.461087712873102 31.461087712873102 31.491851309284012 31.584142098516754 31.676432887749495 31.70719648416041 31.79948727339315 31.830250869804065 31.922541659036806 31.984068851858634 32.107123237502286 32.19941402673503 32.29170481596777 32.38399560520051 32.47628639443325 32.53781358725508 32.660867972898735 32.72239516572056 32.78392235854239 32.84544955136422 32.93774034059696 32.99926753341879 33.15308551547336 33.2453763047061 33.33766709393884 33.39919428676067 33.522248672404324 33.64530305804798 33.73759384728072 33.829884636513455 33.922175425746204 34.01446621497894 34.075993407800766 34.10675700421168 34.229811389855335 34.383629371909905 34.475920161142646 34.5989745467863 34.75279252884087 34.87584691448453 34.99890130012818 35.09119208936092 35.21424647500458 35.337300860648234 35.429591649880976 35.52188243911371 35.64493682475737 35.67570042116829 35.76799121040103 35.76799121040103 35.82951840322285 35.86028199963376 35.89104559604468 35.9218091924556 35.952572788866505 35.952572788866505 35.98333638527742 35.952572788866505 35.98333638527742 36.01409998168833 36.044863578099246 36.07562717451016 36.106390770921074 36.1679179637429 36.26020875297564 36.32173594579747 36.352499542208385 36.444790331441126 36.47555392785204 36.53708112067387 36.598608313495696 36.66013550631752 36.66013550631752 36.72166269913935 36.72166269913935 36.752426295550265 36.752426295550265 36.752426295550265 36.752426295550265 36.752426295550265 36.752426295550265 36.752426295550265 36.752426295550265 36.752426295550265 36.72166269913935 36.752426295550265 36.752426295550265 36.72166269913935 36.72166269913935 36.72166269913935 36.72166269913935 36.69089910272844 36.69089910272844 36.66013550631752 36.62937190990661 36.56784471708478 36.53708112067387 36.506317524262954 36.53708112067387 36.506317524262954 36.506317524262954 36.53708112067387 36.506317524262954 36.53708112067387 36.56784471708478 36.53708112067387 36.56784471708478 36.56784471708478 36.598608313495696 36.62937190990661 36.66013550631752 36.69089910272844 36.72166269913935 36.72166269913935 36.72166269913935 36.752426295550265 36.752426295550265 36.752426295550265 36.752426295550265 36.752426295550265 36.752426295550265 36.752426295550265 36.752426295550265 36.752426295550265 36.752426295550265 36.752426295550265 36.752426295550265 36.752426295550265 36.752426295550265 36.752426295550265 36.752426295550265 36.752426295550265 36.752426295550265 36.752426295550265 36.752426295550265 36.78318989196118 36.81395348837209 36.84471708478301 36.87548068119392 36.906244277604834 36.93700787401575 36.998535066837576 37.02929866324849 37.060062259659404 37.09082585607032 37.12158945248123 37.152353048892145 37.152353048892145 37.152353048892145 37.18311664530306 37.152353048892145 37.152353048892145 37.152353048892145 37.152353048892145 37.152353048892145 37.152353048892145 37.152353048892145 37.152353048892145 37.152353048892145 37.152353048892145 37.152353048892145 37.09082585607032 37.02929866324849 36.998535066837576 36.96777147042666 36.93700787401575 36.87548068119392 36.87548068119392 36.87548068119392 36.87548068119392 36.87548068119392 36.87548068119392 36.87548068119392 36.87548068119392 36.87548068119392 36.87548068119392 36.87548068119392 36.906244277604834 36.87548068119392 36.906244277604834 36.87548068119392 36.87548068119392 36.87548068119392 36.906244277604834 36.906244277604834 36.906244277604834 36.906244277604834 36.906244277604834 36.906244277604834 36.906244277604834 36.906244277604834 36.906244277604834 36.87548068119392 36.87548068119392 36.87548068119392 36.87548068119392 36.87548068119392 36.87548068119392 36.84471708478301 36.84471708478301 36.84471708478301 36.84471708478301 36.84471708478301 36.81395348837209 36.84471708478301 36.84471708478301 36.84471708478301 36.81395348837209 36.84471708478301 36.81395348837209 36.84471708478301 36.84471708478301 36.81395348837209 36.84471708478301 36.84471708478301 36.84471708478301 36.84471708478301 36.84471708478301 36.81395348837209 36.84471708478301 36.81395348837209 36.81395348837209 36.78318989196118 36.752426295550265 36.72166269913935 36.66013550631752 36.66013550631752 36.62937190990661 36.62937190990661 36.62937190990661 36.62937190990661 36.66013550631752 36.66013550631752 36.66013550631752 36.66013550631752 36.66013550631752 36.69089910272844 36.69089910272844 36.72166269913935 36.72166269913935 36.72166269913935 36.752426295550265 36.752426295550265 36.752426295550265 36.752426295550265 36.752426295550265 36.78318989196118 36.752426295550265 36.752426295550265 36.752426295550265 36.752426295550265 36.752426295550265 36.752426295550265 36.81395348837209 36.81395348837209 36.84471708478301 36.87548068119392 36.93700787401575 36.96777147042666 36.998535066837576 37.060062259659404 37.060062259659404 37.12158945248123 37.152353048892145 37.18311664530306 37.21388024171397 37.24464383812489 37.2754074345358 37.306171030946714 37.36769822376854 37.36769822376854 37.398461820179456 37.42922541659037 37.459989013001284 37.4907526094122 37.521516205823104 37.521516205823104 37.521516205823104 37.552279802234025 37.58304339864493 37.58304339864493 37.58304339864493 37.58304339864493 37.61380699505585 37.61380699505585 37.61380699505585 37.64457059146676 37.67533418787768 37.67533418787768 37.70609778428859 37.73686138069951 37.73686138069951 37.73686138069951 37.798388573521336 37.798388573521336 37.82915216993224 37.82915216993224 37.82915216993224 37.82915216993224 37.82915216993224 37.82915216993224 37.859915766343164 37.859915766343164 37.82915216993224 37.82915216993224 37.82915216993224 37.82915216993224 37.82915216993224 37.859915766343164 37.89067936275407 37.921442959164985 37.98297015198681 37.98297015198681 38.075260941219554 38.10602453763047 38.167551730452296 38.22907892327412 38.29060611609595 38.35213330891778 38.413660501739606 38.475187694561434 38.50595129097235 38.53671488738326 38.567478483794176 38.629005676616 38.65976927302692 38.629005676616 38.65976927302692 38.65976927302692 38.65976927302692 38.65976927302692 38.65976927302692 38.65976927302692 38.65976927302692 38.65976927302692 38.65976927302692 38.65976927302692 38.65976927302692 38.65976927302692 38.65976927302692 38.65976927302692 38.65976927302692 38.65976927302692 38.65976927302692 38.65976927302692 38.65976927302692 38.65976927302692 38.65976927302692 38.65976927302692 38.65976927302692 38.629005676616 38.65976927302692 38.65976927302692 38.65976927302692 38.629005676616 38.629005676616 38.629005676616 38.59824208020509 38.567478483794176 38.50595129097235 38.44442409815052 38.38289690532869 38.321369712506865 38.13678813404138 38.013733748397726 37.921442959164985 37.798388573521336 37.67533418787768 37.58304339864493 37.42922541659037 37.2754074345358 37.12158945248123 36.96777147042666 36.84471708478301 36.72166269913935 36.62937190990661 36.47555392785204 36.32173594579747 36.22944515656473 36.106390770921074 35.98333638527742 35.89104559604468 35.706464017579194 35.61417322834646 35.491118842702804 35.337300860648234 35.24501007141549 35.09119208936092 34.84508331807361 34.69126533601904 34.5989745467863 34.50668375755356 34.41439296832082 34.32210217908808 34.29133858267716 34.16828419703351 34.075993407800766 33.983702618568024 33.89141182933528 33.829884636513455 33.73759384728072 33.64530305804798 33.55301226881524 33.49148507599341 33.368430690349754 33.27613990111701 33.214612708295185 33.18384911188427 33.15308551547336 33.09155832265153 32.99926753341879 32.93774034059696 32.84544955136422 32.84544955136422 32.75315876213148 32.72239516572056 32.660867972898735 32.53781358725508 32.47628639443325 32.44552279802234 32.3532320087896 32.29170481596777 32.23017762314594 32.168650430324114 32.107123237502286 32.07635964109137 32.04559604468046 32.014832448269544 31.984068851858634 31.984068851858634 31.95330525544772 31.922541659036806 31.891778062625892 31.830250869804065 31.768723676982237 31.64566929133858 31.55337850210584 31.461087712873102 31.307269730818533 31.307269730818533 31.245742537996705 31.153451748763963 31.12268815235305 31.030397363120308 30.96887017029848 30.87657938106574 30.81505218824391 30.753524995422083 30.630470609778428 30.507416224134772 30.415125434902034 30.322834645669293 30.23054385643655 30.07672587438198 29.953671488738326 29.8921442959165 29.769089910272843 29.6767991210401 29.58450833180736 29.522981138985532 29.39992675334188 29.215345174876397 29.184581578465483 29.15381798205457 29.123054385643655 29.123054385643655 29.123054385643655 29.09229078923274 29.09229078923274 29.061527192821828 29.030763596410914 29.030763596410914 29.0 28.969236403589086 28.938472807178172 28.938472807178172 28.90770921076726 28.876945614356345 28.876945614356345 28.876945614356345 28.84618201794543 28.84618201794543 28.84618201794543 28.876945614356345 28.84618201794543 28.84618201794543 28.84618201794543 28.84618201794543 28.815418421534517 28.784654825123603 28.75389122871269 28.75389122871269 28.75389122871269 28.723127632301775 28.723127632301775 28.723127632301775 28.723127632301775 28.723127632301775 28.723127632301775 28.723127632301775 28.723127632301775 28.69236403589086 28.69236403589086 28.69236403589086 28.69236403589086 28.661600439479948 28.661600439479948 28.661600439479948 28.661600439479948 28.630836843069034 28.630836843069034 28.630836843069034 28.630836843069034 28.60007324665812 28.60007324665812 28.630836843069034 28.60007324665812 28.630836843069034 28.60007324665812 28.60007324665812 28.60007324665812 28.60007324665812 28.60007324665812 28.60007324665812 28.60007324665812 28.569309650247206 28.569309650247206 28.569309650247206 28.569309650247206 28.569309650247206 28.569309650247206 28.569309650247206 28.569309650247206 28.569309650247206 28.569309650247206 28.569309650247206 28.569309650247206 28.569309650247206 28.569309650247206 28.569309650247206 28.569309650247206 28.569309650247206 28.569309650247206 28.569309650247206 28.569309650247206 28.569309650247206 28.569309650247206 28.569309650247206 28.569309650247206 28.569309650247206 28.569309650247206 28.569309650247206 28.569309650247206 28.569309650247206 28.538546053836292 28.538546053836292 28.538546053836292 28.538546053836292 28.538546053836292 28.569309650247206 28.569309650247206 28.569309650247206 28.569309650247206 28.538546053836292 28.569309650247206 28.569309650247206 28.538546053836292 28.538546053836292 28.538546053836292 28.538546053836292 28.538546053836292 28.538546053836292 28.538546053836292 28.538546053836292 28.538546053836292 28.569309650247206 28.538546053836292 28.538546053836292 28.538546053836292 28.538546053836292 28.569309650247206 28.538546053836292 28.538546053836292 28.538546053836292 28.538546053836292 28.538546053836292 28.538546053836292 28.538546053836292 28.538546053836292 28.538546053836292 28.538546053836292 28.538546053836292 28.538546053836292 28.538546053836292 28.538546053836292 28.538546053836292 28.538546053836292 28.538546053836292 28.538546053836292 28.538546053836292 28.538546053836292 28.538546053836292 28.538546053836292 28.538546053836292 28.538546053836292 28.538546053836292 28.538546053836292 28.538546053836292 28.538546053836292 28.538546053836292 28.538546053836292 28.538546053836292 28.538546053836292 28.538546053836292 28.538546053836292 28.538546053836292 28.538546053836292 28.538546053836292 28.538546053836292 28.538546053836292 28.538546053836292 28.538546053836292 28.538546053836292 28.538546053836292 28.538546053836292 28.538546053836292 28.538546053836292 28.538546053836292 28.538546053836292 28.538546053836292 28.538546053836292 28.538546053836292 28.538546053836292 28.538546053836292 28.538546053836292 28.538546053836292 28.538546053836292 28.538546053836292 28.538546053836292 28.538546053836292 28.538546053836292 28.538546053836292 28.538546053836292 28.538546053836292 28.538546053836292 28.538546053836292 28.538546053836292 28.538546053836292 28.538546053836292 28.538546053836292 28.538546053836292 28.538546053836292 28.538546053836292 28.538546053836292 28.538546053836292 28.538546053836292 28.538546053836292 28.538546053836292 28.538546053836292 28.538546053836292 28.538546053836292 28.538546053836292 28.538546053836292 28.538546053836292 28.538546053836292 28.538546053836292 28.538546053836292 28.538546053836292 28.538546053836292 28.538546053836292 28.538546053836292 28.538546053836292 28.538546053836292 28.538546053836292 28.538546053836292 28.538546053836292 28.538546053836292 28.538546053836292 28.538546053836292 28.538546053836292 28.538546053836292 28.538546053836292 28.538546053836292 28.538546053836292 28.538546053836292 28.538546053836292 28.538546053836292 28.538546053836292 28.538546053836292 28.538546053836292 28.538546053836292 28.538546053836292 28.538546053836292 28.538546053836292 28.538546053836292 28.538546053836292 28.538546053836292 28.538546053836292 28.538546053836292 28.538546053836292 28.538546053836292 28.538546053836292 28.538546053836292 28.538546053836292 28.538546053836292 28.538546053836292 28.538546053836292 28.538546053836292 28.538546053836292 28.538546053836292 28.538546053836292 28.538546053836292 28.538546053836292 28.538546053836292 28.538546053836292 28.538546053836292 28.538546053836292 28.538546053836292 28.538546053836292 28.538546053836292 28.538546053836292 28.538546053836292 28.538546053836292 28.538546053836292 28.538546053836292 28.538546053836292 28.538546053836292 28.538546053836292 28.538546053836292 28.538546053836292 28.538546053836292 28.538546053836292 28.538546053836292 28.538546053836292 28.538546053836292 28.538546053836292 28.538546053836292 28.538546053836292 28.538546053836292 28.538546053836292 28.538546053836292 28.538546053836292 28.538546053836292 28.538546053836292 28.538546053836292 28.538546053836292 28.538546053836292 28.538546053836292 28.538546053836292 28.538546053836292 28.538546053836292 28.538546053836292 28.538546053836292 28.538546053836292 28.538546053836292 28.538546053836292 28.538546053836292 28.538546053836292 28.538546053836292 28.538546053836292 28.538546053836292 28.538546053836292 28.538546053836292 28.538546053836292 28.538546053836292 28.538546053836292 28.538546053836292 28.538546053836292 28.538546053836292 28.538546053836292 28.538546053836292 28.538546053836292 28.538546053836292 28.538546053836292 28.538546053836292 28.538546053836292 28.538546053836292 28.538546053836292 28.538546053836292 28.538546053836292 28.538546053836292 28.538546053836292 28.538546053836292 28.538546053836292 28.538546053836292 28.538546053836292 28.538546053836292 28.538546053836292 28.538546053836292 28.538546053836292 28.538546053836292 28.538546053836292 28.538546053836292 28.538546053836292 28.538546053836292 28.538546053836292 28.538546053836292 28.538546053836292 28.538546053836292 28.538546053836292 28.538546053836292 28.538546053836292 28.538546053836292 28.538546053836292 28.538546053836292 28.538546053836292 28.538546053836292 28.538546053836292 28.538546053836292 28.538546053836292 28.538546053836292 28.538546053836292 28.538546053836292 28.538546053836292 28.538546053836292 28.538546053836292 28.538546053836292 28.538546053836292 28.538546053836292 28.538546053836292 28.538546053836292 28.538546053836292 28.538546053836292 28.538546053836292 28.538546053836292 28.538546053836292 28.538546053836292 28.538546053836292 28.538546053836292 28.538546053836292 28.538546053836292 28.538546053836292 28.538546053836292 28.538546053836292 28.538546053836292 28.538546053836292 28.538546053836292 28.538546053836292 28.538546053836292 28.538546053836292 28.538546053836292 28.538546053836292 28.538546053836292 28.538546053836292 28.538546053836292 28.538546053836292 28.538546053836292 28.538546053836292 28.538546053836292 28.538546053836292 28.538546053836292 28.538546053836292 28.538546053836292 28.538546053836292 28.538546053836292 28.538546053836292 28.538546053836292 28.538546053836292 28.538546053836292 28.538546053836292 28.538546053836292 28.538546053836292 28.538546053836292 28.538546053836292 28.538546053836292 28.538546053836292 28.538546053836292 28.538546053836292 28.538546053836292 28.538546053836292 28.538546053836292 28.538546053836292 28.538546053836292 28.538546053836292 28.538546053836292 28.538546053836292 28.538546053836292 28.538546053836292 28.538546053836292 28.538546053836292 28.538546053836292 28.538546053836292 28.538546053836292 28.538546053836292 28.538546053836292 28.538546053836292 28.538546053836292 28.538546053836292 28.538546053836292 28.538546053836292 28.538546053836292 28.538546053836292 28.538546053836292 28.538546053836292 28.538546053836292 28.538546053836292 28.538546053836292 28.538546053836292 28.538546053836292 28.538546053836292 28.538546053836292 28.538546053836292 28.538546053836292 28.538546053836292 28.538546053836292 28.538546053836292 28.538546053836292 28.538546053836292 28.538546053836292 28.538546053836292 28.538546053836292 28.538546053836292 28.538546053836292 28.538546053836292 28.538546053836292 28.538546053836292 28.538546053836292 28.538546053836292 28.538546053836292 28.538546053836292 28.538546053836292 28.538546053836292 28.538546053836292 28.538546053836292 28.538546053836292 28.538546053836292 28.538546053836292 28.538546053836292 28.538546053836292 28.538546053836292 28.538546053836292 28.538546053836292 28.538546053836292 28.538546053836292 28.538546053836292 28.538546053836292 28.538546053836292 28.538546053836292 28.538546053836292 28.538546053836292 28.538546053836292 28.538546053836292 28.538546053836292 28.538546053836292 28.538546053836292 28.538546053836292 28.538546053836292 28.538546053836292 28.538546053836292 28.538546053836292 28.538546053836292 28.538546053836292 28.538546053836292 28.538546053836292 28.538546053836292 28.538546053836292 28.538546053836292 28.538546053836292 28.538546053836292 28.538546053836292 28.538546053836292 28.538546053836292 28.538546053836292 28.538546053836292 28.538546053836292 28.538546053836292 28.538546053836292 28.538546053836292 28.538546053836292 28.538546053836292 28.538546053836292 28.538546053836292 28.538546053836292 28.538546053836292 28.538546053836292 28.538546053836292 28.538546053836292 28.538546053836292 28.538546053836292 28.538546053836292 28.538546053836292 28.538546053836292 28.538546053836292 28.538546053836292 28.538546053836292 28.538546053836292 28.538546053836292 28.538546053836292 28.538546053836292 28.538546053836292 28.538546053836292 28.538546053836292 28.538546053836292 28.538546053836292 28.538546053836292 28.538546053836292 28.538546053836292 28.538546053836292 28.538546053836292 28.538546053836292 28.538546053836292 28.538546053836292 28.538546053836292 28.538546053836292 28.538546053836292 28.538546053836292 28.538546053836292 28.538546053836292 28.538546053836292 28.538546053836292 28.538546053836292 28.538546053836292 28.538546053836292 28.538546053836292 28.538546053836292 28.538546053836292 28.538546053836292 28.538546053836292 28.538546053836292 28.538546053836292 28.538546053836292 28.538546053836292 28.538546053836292 28.538546053836292 28.538546053836292 28.538546053836292 28.538546053836292 28.538546053836292 28.538546053836292 28.538546053836292 28.538546053836292 28.538546053836292 28.538546053836292 28.538546053836292 28.538546053836292 28.538546053836292 28.538546053836292 28.538546053836292 28.538546053836292 28.538546053836292 28.538546053836292 28.538546053836292 28.538546053836292 28.538546053836292 28.538546053836292 28.538546053836292 28.538546053836292 28.538546053836292 28.538546053836292 28.538546053836292 28.538546053836292 28.538546053836292 28.538546053836292 28.538546053836292 28.538546053836292 28.538546053836292 28.538546053836292 28.538546053836292 28.538546053836292 28.538546053836292 28.538546053836292 28.538546053836292 28.538546053836292 28.538546053836292 28.538546053836292 28.538546053836292 28.538546053836292 28.538546053836292 28.538546053836292 28.538546053836292 28.538546053836292 28.538546053836292 28.538546053836292 28.538546053836292 28.538546053836292 28.538546053836292 28.538546053836292 28.538546053836292 28.538546053836292 28.538546053836292 28.538546053836292 28.538546053836292 28.538546053836292 28.538546053836292 28.538546053836292 28.538546053836292 28.538546053836292 28.538546053836292 28.538546053836292 28.538546053836292 28.538546053836292 28.538546053836292 28.538546053836292 28.538546053836292 28.538546053836292 28.538546053836292 28.538546053836292 28.538546053836292 28.538546053836292 28.538546053836292 28.538546053836292 28.538546053836292 28.538546053836292 28.538546053836292 28.538546053836292 28.538546053836292 28.538546053836292 28.538546053836292 28.538546053836292 28.538546053836292 28.538546053836292 28.538546053836292 28.538546053836292 28.538546053836292 28.538546053836292 28.538546053836292 28.538546053836292 28.538546053836292 28.538546053836292 28.538546053836292 28.538546053836292 28.538546053836292 28.538546053836292 28.538546053836292 28.538546053836292 28.538546053836292 28.538546053836292 28.538546053836292 28.538546053836292 28.538546053836292 28.538546053836292 28.538546053836292 28.538546053836292 28.538546053836292 28.538546053836292 28.538546053836292 28.538546053836292 28.538546053836292 28.538546053836292 28.538546053836292 28.538546053836292 28.538546053836292 28.538546053836292 28.538546053836292 28.538546053836292 28.538546053836292 28.538546053836292 28.538546053836292 28.538546053836292 28.538546053836292 28.538546053836292 28.538546053836292 28.538546053836292 28.538546053836292 28.538546053836292 28.538546053836292 28.538546053836292 28.538546053836292 28.538546053836292 28.538546053836292 28.538546053836292 28.538546053836292 28.538546053836292 28.538546053836292 28.538546053836292 28.538546053836292 28.538546053836292 28.538546053836292 28.538546053836292 28.538546053836292 28.538546053836292 28.538546053836292 28.538546053836292 28.538546053836292 28.538546053836292 28.538546053836292 28.538546053836292 28.538546053836292 28.538546053836292 28.538546053836292 28.538546053836292 28.538546053836292 28.538546053836292 28.538546053836292 28.538546053836292 28.538546053836292 28.538546053836292 28.538546053836292 28.538546053836292 28.538546053836292 28.538546053836292 28.538546053836292 28.538546053836292 28.538546053836292 28.538546053836292 28.538546053836292 28.538546053836292 28.538546053836292 28.538546053836292 28.538546053836292 28.538546053836292 28.538546053836292 28.538546053836292 28.538546053836292 28.538546053836292 28.538546053836292 28.538546053836292 28.538546053836292 28.538546053836292 28.538546053836292 28.538546053836292 28.538546053836292 28.538546053836292 28.50778245742538 28.538546053836292 28.538546053836292 28.538546053836292 28.538546053836292 28.538546053836292 28.538546053836292 28.538546053836292 28.538546053836292 28.538546053836292 28.538546053836292 28.538546053836292 28.538546053836292 28.538546053836292 28.538546053836292 28.538546053836292 28.538546053836292 28.538546053836292 28.538546053836292 28.538546053836292 28.538546053836292 28.538546053836292 28.538546053836292 28.538546053836292 28.538546053836292 28.538546053836292 28.538546053836292 28.538546053836292 28.538546053836292 28.538546053836292 28.538546053836292 28.538546053836292 28.538546053836292 28.538546053836292 28.538546053836292 28.538546053836292 28.538546053836292 28.538546053836292 28.538546053836292 28.538546053836292 28.538546053836292 28.538546053836292 28.538546053836292 28.538546053836292 28.538546053836292 28.538546053836292 28.538546053836292 28.538546053836292 28.50778245742538 28.538546053836292 28.538546053836292 28.538546053836292 28.538546053836292 28.538546053836292 28.538546053836292 28.538546053836292 28.538546053836292 28.538546053836292 28.538546053836292 28.538546053836292 28.538546053836292 28.538546053836292 28.538546053836292 28.538546053836292 28.538546053836292 28.538546053836292 28.538546053836292 28.538546053836292 28.538546053836292 28.538546053836292 28.538546053836292 28.538546053836292 28.538546053836292 28.538546053836292 28.538546053836292 28.538546053836292 28.538546053836292 28.538546053836292 28.538546053836292 28.538546053836292 28.538546053836292 28.538546053836292 28.538546053836292 28.538546053836292 28.538546053836292 28.538546053836292 28.538546053836292 28.538546053836292 28.538546053836292 28.50778245742538 28.538546053836292 28.538546053836292 28.538546053836292 28.538546053836292 28.538546053836292 28.538546053836292 28.538546053836292 28.538546053836292 28.538546053836292 28.538546053836292 28.538546053836292 28.538546053836292 28.538546053836292 28.538546053836292 28.538546053836292 28.538546053836292 28.538546053836292 28.538546053836292 28.538546053836292 28.538546053836292 28.538546053836292 28.538546053836292 28.538546053836292 28.538546053836292 28.538546053836292 28.538546053836292 28.538546053836292 28.538546053836292 28.538546053836292 28.538546053836292 28.538546053836292 28.538546053836292 28.538546053836292 28.538546053836292 28.538546053836292 28.538546053836292 28.538546053836292 28.538546053836292 28.538546053836292 28.538546053836292 28.538546053836292 28.538546053836292 28.538546053836292 28.538546053836292 28.538546053836292 28.538546053836292 28.538546053836292 28.538546053836292 28.538546053836292 28.538546053836292 28.538546053836292 28.538546053836292 28.538546053836292 28.538546053836292 28.538546053836292 28.538546053836292 28.538546053836292 28.538546053836292 28.538546053836292 28.538546053836292 28.538546053836292 28.538546053836292 28.538546053836292 28.538546053836292 28.538546053836292 28.538546053836292 28.538546053836292 28.538546053836292 28.538546053836292 28.538546053836292 28.538546053836292 28.538546053836292 28.538546053836292 28.538546053836292 28.538546053836292 28.538546053836292 28.538546053836292 28.538546053836292 28.538546053836292 28.538546053836292 28.538546053836292 28.538546053836292 28.569309650247206 28.538546053836292 28.538546053836292 28.538546053836292 28.538546053836292 28.538546053836292 28.538546053836292 28.538546053836292 28.538546053836292 28.538546053836292 28.538546053836292 28.538546053836292 28.538546053836292 28.538546053836292 28.538546053836292 28.538546053836292 28.538546053836292 28.538546053836292 28.538546053836292 28.538546053836292 28.538546053836292 28.538546053836292 28.569309650247206 28.569309650247206 28.60007324665812 28.60007324665812 28.661600439479948 28.723127632301775 28.815418421534517 28.84618201794543 28.84618201794543 28.876945614356345 28.90770921076726 28.938472807178172 28.969236403589086 29.0 29.030763596410914 29.061527192821828 29.09229078923274 29.15381798205457 29.215345174876397 29.276872367698225 29.338399560520052 29.39992675334188 29.461453946163708 29.522981138985532 29.522981138985532 29.553744735396446 29.58450833180736 29.615271928218274 29.646035524629188 29.6767991210401 29.73832631386193 29.769089910272843 29.799853506683757 29.8921442959165 29.98443508514924 30.015198681560154 30.107489470792896 30.107489470792896 30.169016663614723 30.199780260025637 30.23054385643655 30.261307452847465 30.322834645669293 30.353598242080206 30.445889031312948 30.47665262772386 30.5689434169566 30.630470609778428 30.66123420618934 30.81505218824391 30.938106573887566 31.06116095953122 31.27650613440762 31.399560520051274 31.614905694927668 31.737960080571323 31.830250869804065 31.922541659036806 32.04559604468046 32.1378868339132 32.29170481596777 32.38399560520051 32.44552279802234 32.59934078007691 32.69163156930965 32.906976744186046 32.99926753341879 33.2453763047061 33.39919428676067 33.522248672404324 33.7068302508698 33.983702618568024 34.10675700421168 34.35286577549899 34.44515656473173 34.72202893242996 34.99890130012818 35.24501007141549 35.706464017579194 36.044863578099246 36.26020875297564 36.62937190990661 36.78318989196118 37.09082585607032 37.552279802234025 37.767624977110415 38.075260941219554 38.35213330891778 38.50595129097235 38.721296465848745 38.8443508514924 39.028932429957884 39.18275041201245 39.275041201245195 39.367331990477936 39.428859183299764 39.45962277971067 39.49038637612159 39.49038637612159 39.49038637612159 39.49038637612159 39.49038637612159 39.49038637612159 39.49038637612159 39.45962277971067 39.45962277971067 39.428859183299764 39.39809558688884 39.367331990477936 39.33656839406702 39.30580479765611 39.275041201245195 39.275041201245195 39.24427760483428 39.24427760483428 39.21351400842337 39.24427760483428 39.24427760483428 39.21351400842337 39.21351400842337 39.21351400842337 39.18275041201245 39.121223219190625 39.121223219190625 39.121223219190625 39.121223219190625 39.121223219190625 39.121223219190625 39.121223219190625 39.121223219190625 39.121223219190625 39.121223219190625 39.121223219190625 39.15198681560154 39.15198681560154 39.121223219190625 39.121223219190625 39.121223219190625 39.121223219190625 39.0596960263688 38.99816883354697 38.93664164072514 38.90587804431423 38.8443508514924 38.78282365867057 38.721296465848745 38.69053286943783 38.65976927302692 38.65976927302692 38.65976927302692 38.59824208020509 38.567478483794176 38.53671488738326 38.50595129097235 38.44442409815052 38.44442409815052 38.413660501739606 38.413660501739606 38.38289690532869 38.413660501739606 38.38289690532869 38.38289690532869 38.35213330891778 38.35213330891778 38.35213330891778 38.38289690532869 38.35213330891778 38.38289690532869 38.38289690532869 38.38289690532869 38.38289690532869 38.38289690532869 38.38289690532869 38.38289690532869 38.38289690532869 38.38289690532869 38.38289690532869 38.38289690532869 38.38289690532869 38.413660501739606 38.38289690532869 38.38289690532869 38.38289690532869 38.38289690532869 38.38289690532869 38.413660501739606 38.38289690532869 38.38289690532869 38.38289690532869 38.413660501739606 38.38289690532869 38.38289690532869 38.38289690532869 38.38289690532869 38.38289690532869 38.38289690532869 38.38289690532869 38.38289690532869 38.38289690532869 38.38289690532869 38.38289690532869 38.38289690532869 38.38289690532869 38.38289690532869 38.38289690532869 38.38289690532869 38.38289690532869 38.38289690532869 38.38289690532869 38.38289690532869 38.38289690532869 38.38289690532869 38.38289690532869 38.38289690532869 38.35213330891778 38.38289690532869 38.35213330891778 38.35213330891778 38.38289690532869 38.38289690532869 38.38289690532869 38.35213330891778 38.35213330891778 38.38289690532869 38.35213330891778 38.38289690532869 38.38289690532869 38.38289690532869 38.38289690532869 38.38289690532869 38.38289690532869 38.38289690532869 38.38289690532869 38.38289690532869 38.38289690532869 38.38289690532869 38.38289690532869 38.38289690532869 38.38289690532869 38.38289690532869 38.38289690532869 38.38289690532869 38.38289690532869 38.35213330891778 38.321369712506865 38.29060611609595 38.25984251968504 38.25984251968504 38.19831532686321 38.167551730452296 38.13678813404138 38.10602453763047 38.075260941219554 38.04449734480864 38.013733748397726 38.013733748397726 37.98297015198681 37.98297015198681 37.9522065555759 37.921442959164985 37.921442959164985 37.921442959164985 37.89067936275407 37.89067936275407 37.859915766343164 37.82915216993224 37.798388573521336 37.798388573521336 37.798388573521336 37.798388573521336 37.767624977110415 37.767624977110415 37.767624977110415 37.767624977110415 37.767624977110415 37.73686138069951 37.73686138069951 37.73686138069951 37.73686138069951 37.73686138069951 37.73686138069951 37.73686138069951 37.767624977110415 37.73686138069951 37.73686138069951 37.73686138069951 37.73686138069951 37.73686138069951 37.73686138069951 37.73686138069951 37.73686138069951 37.73686138069951 37.73686138069951 37.73686138069951 37.73686138069951 37.73686138069951 37.73686138069951 37.73686138069951 37.73686138069951 37.73686138069951 37.73686138069951 37.767624977110415 37.767624977110415 37.767624977110415 37.73686138069951 37.767624977110415 37.73686138069951 37.70609778428859 37.67533418787768 37.64457059146676 37.61380699505585 37.552279802234025 37.521516205823104 37.4907526094122 37.4907526094122 37.459989013001284 37.4907526094122 37.459989013001284 37.4907526094122 37.4907526094122 37.4907526094122 37.4907526094122 37.4907526094122 37.4907526094122 37.521516205823104 37.521516205823104 37.521516205823104 37.521516205823104 37.552279802234025 37.58304339864493 37.58304339864493 37.61380699505585 37.64457059146676 37.67533418787768 37.67533418787768 37.70609778428859 37.73686138069951 37.73686138069951 37.767624977110415 37.798388573521336 37.798388573521336 37.798388573521336 37.82915216993224 37.82915216993224 37.82915216993224 37.82915216993224 37.82915216993224 37.798388573521336 37.82915216993224 37.82915216993224 37.798388573521336 37.798388573521336 37.798388573521336 37.798388573521336 37.798388573521336 37.798388573521336 37.767624977110415 37.73686138069951 37.73686138069951 37.70609778428859 37.67533418787768 37.64457059146676 37.64457059146676 37.61380699505585 37.61380699505585 37.61380699505585 37.58304339864493 37.61380699505585 37.61380699505585 37.58304339864493 37.61380699505585 37.58304339864493 37.58304339864493 37.58304339864493 37.58304339864493 37.58304339864493 37.58304339864493 37.58304339864493 37.58304339864493 37.58304339864493 37.58304339864493 37.61380699505585 37.61380699505585 37.61380699505585 37.61380699505585 37.61380699505585 37.61380699505585 37.61380699505585 37.61380699505585 37.64457059146676 37.64457059146676 37.64457059146676 37.64457059146676 37.64457059146676 37.64457059146676 37.64457059146676 37.64457059146676 37.64457059146676 37.64457059146676 37.64457059146676 37.64457059146676 37.64457059146676 37.61380699505585 37.64457059146676 37.61380699505585 37.61380699505585 37.61380699505585 37.58304339864493 37.521516205823104 37.4907526094122 37.398461820179456 37.33693462735763 37.24464383812489 37.09082585607032 36.96777147042666 36.752426295550265 36.62937190990661 36.506317524262954 36.352499542208385 36.26020875297564 36.07562717451016 35.952572788866505 35.79875480681194 35.64493682475737 35.55264603552463 35.46035524629189 35.27577366782641 35.21424647500458 35.06042849295001 34.937374107306354 34.84508331807361 34.75279252884087 34.66050173960813 34.56821095037539 34.475920161142646 34.383629371909905 34.32210217908808 34.229811389855335 34.19904779344442 34.137520600622594 34.075993407800766 34.01446621497894 33.922175425746204 33.89141182933528 33.79912104010255 33.76835744369163 33.7068302508698 33.614539461637065 33.55301226881524 33.522248672404324 33.39919428676067 33.30690349752793 33.2453763047061 33.18384911188427 33.12232191906244 33.060794726240616 32.99926753341879 32.93774034059696 32.906976744186046 32.87621314777513 32.78392235854239 32.72239516572056 32.660867972898735 32.63010437648782 32.53781358725508 32.507049990844166 32.44552279802234 32.38399560520051 32.32246841237868 32.260941219556855 32.23017762314594 32.23017762314594 32.19941402673503 32.168650430324114 32.1378868339132 32.1378868339132 32.107123237502286 32.07635964109137 32.07635964109137 32.07635964109137 32.04559604468046 32.04559604468046 32.04559604468046 32.014832448269544 31.984068851858634 31.95330525544772 31.922541659036806 31.891778062625892 31.86101446621498 31.830250869804065 31.768723676982237 31.70719648416041 31.614905694927668 31.584142098516754 31.491851309284012 31.430324116462188 31.399560520051274 31.36879692364036 31.27650613440762 31.245742537996705 31.21497894158579 31.184215345174877 31.12268815235305 31.06116095953122 31.030397363120308 30.96887017029848 30.938106573887566 30.907342977476652 30.87657938106574 30.845815784654825 30.845815784654825 30.784288591832997 30.784288591832997 30.784288591832997 30.753524995422083 30.72276139901117 30.691997802600255 30.66123420618934 30.66123420618934 30.599707013367514 30.5689434169566 30.538179820545686 30.47665262772386 30.445889031312948 30.38436183849112 30.322834645669293 30.23054385643655 30.13825306720381 30.045962277971068 29.953671488738326 29.861380699505585 29.769089910272843 29.615271928218274 29.522981138985532 29.430690349752794 29.369163156930966 29.276872367698225 29.276872367698225 29.24610877128731 29.215345174876397 29.184581578465483 29.15381798205457 29.123054385643655 29.030763596410914 29.0 29.030763596410914 29.0 29.0 29.0 29.0 29.0 28.969236403589086 28.969236403589086 28.969236403589086 28.969236403589086 28.969236403589086 28.938472807178172 28.938472807178172 28.938472807178172 28.938472807178172 28.938472807178172 28.938472807178172 28.90770921076726 28.938472807178172 28.90770921076726 28.90770921076726 28.90770921076726 28.876945614356345 28.876945614356345 28.876945614356345 28.876945614356345 28.84618201794543 28.84618201794543 28.84618201794543 28.815418421534517 28.784654825123603 28.75389122871269 28.75389122871269 28.723127632301775 28.69236403589086 28.661600439479948 28.630836843069034 28.630836843069034 28.60007324665812 28.60007324665812 28.569309650247206 28.569309650247206 28.538546053836292 28.538546053836292 28.50778245742538 28.50778245742538 28.50778245742538 28.50778245742538 28.50778245742538 28.50778245742538 28.477018861014468 28.477018861014468 28.477018861014468 28.477018861014468 28.446255264603554 28.446255264603554 28.41549166819264 28.384728071781726 28.384728071781726 28.353964475370812 28.353964475370812 28.3232008789599 28.3232008789599 28.3232008789599 28.3232008789599 28.3232008789599 28.3232008789599 28.292437282548985 28.292437282548985 28.292437282548985 28.292437282548985 28.26167368613807 28.26167368613807 28.26167368613807 28.26167368613807 28.230910089727157 28.230910089727157 28.230910089727157 28.230910089727157 28.230910089727157 28.230910089727157 28.230910089727157 28.230910089727157 28.230910089727157 28.200146493316243 28.200146493316243 28.200146493316243 28.16938289690533 28.16938289690533 28.16938289690533 28.16938289690533 28.16938289690533 28.16938289690533 28.16938289690533 28.16938289690533 28.16938289690533 28.16938289690533 28.16938289690533 28.16938289690533 28.16938289690533 28.16938289690533 28.16938289690533 28.16938289690533 28.16938289690533 28.16938289690533 28.138619300494415 28.16938289690533 28.16938289690533 28.16938289690533 28.138619300494415 28.16938289690533 28.138619300494415 28.16938289690533 28.16938289690533 28.16938289690533 28.138619300494415 28.138619300494415 28.16938289690533 28.16938289690533 28.16938289690533 28.16938289690533 28.138619300494415 28.138619300494415 28.138619300494415 28.138619300494415 28.138619300494415 28.138619300494415 28.138619300494415 28.138619300494415 28.138619300494415 28.138619300494415 28.16938289690533 28.138619300494415 28.138619300494415 28.138619300494415 28.138619300494415 28.138619300494415 28.138619300494415 28.138619300494415 28.138619300494415 28.138619300494415 28.138619300494415 28.138619300494415 28.138619300494415 28.138619300494415 28.138619300494415 28.138619300494415 28.138619300494415 28.138619300494415 28.138619300494415 28.138619300494415 28.138619300494415 28.138619300494415 28.138619300494415 28.138619300494415 28.138619300494415 28.138619300494415 28.138619300494415 28.138619300494415 28.138619300494415 28.138619300494415 28.138619300494415 28.138619300494415 28.138619300494415 28.138619300494415 28.138619300494415 28.138619300494415 28.138619300494415 28.138619300494415 28.138619300494415 28.138619300494415 28.138619300494415 28.138619300494415 28.138619300494415 28.138619300494415 28.138619300494415 28.138619300494415 28.138619300494415 28.138619300494415 28.138619300494415 28.138619300494415 28.138619300494415 28.138619300494415 28.138619300494415 28.138619300494415 28.138619300494415 28.138619300494415 28.138619300494415 28.138619300494415 28.138619300494415 28.138619300494415 28.138619300494415 28.138619300494415 28.138619300494415 28.138619300494415 28.138619300494415 28.138619300494415 28.138619300494415 28.138619300494415 28.138619300494415 28.138619300494415 28.138619300494415 28.138619300494415 28.138619300494415 28.138619300494415 28.138619300494415 28.138619300494415 28.138619300494415 28.138619300494415 28.138619300494415 28.138619300494415 28.138619300494415 28.138619300494415 28.138619300494415 28.138619300494415 28.138619300494415 28.138619300494415 28.138619300494415 28.138619300494415 28.138619300494415 28.138619300494415 28.138619300494415 28.138619300494415 28.138619300494415 28.138619300494415 28.138619300494415 28.138619300494415 28.138619300494415 28.138619300494415 28.138619300494415 28.138619300494415 28.138619300494415 28.138619300494415 28.138619300494415 28.138619300494415 28.138619300494415 28.138619300494415 28.138619300494415 28.138619300494415 28.138619300494415 28.138619300494415 28.138619300494415 28.138619300494415 28.138619300494415 28.138619300494415 28.138619300494415 28.138619300494415 28.138619300494415 28.138619300494415 28.138619300494415 28.138619300494415 28.138619300494415 28.138619300494415 28.138619300494415 28.138619300494415 28.138619300494415 28.138619300494415 28.138619300494415 28.138619300494415 28.138619300494415 28.138619300494415 28.138619300494415 28.138619300494415 28.138619300494415 28.138619300494415 28.138619300494415 28.138619300494415 28.138619300494415 28.138619300494415 28.138619300494415 28.138619300494415 28.138619300494415 28.138619300494415 28.138619300494415 28.138619300494415 28.138619300494415 28.138619300494415 28.138619300494415 28.138619300494415 28.138619300494415 28.138619300494415 28.1078557040835 28.138619300494415 28.138619300494415 28.138619300494415 28.138619300494415 28.138619300494415 28.138619300494415 28.138619300494415 28.1078557040835 28.138619300494415 28.138619300494415 28.138619300494415 28.138619300494415 28.138619300494415 28.138619300494415 28.138619300494415 28.138619300494415 28.138619300494415 28.138619300494415 28.138619300494415 28.138619300494415 28.138619300494415 28.138619300494415 28.138619300494415 28.138619300494415 28.138619300494415 28.138619300494415 28.138619300494415 28.138619300494415 28.138619300494415 28.138619300494415 28.138619300494415 28.138619300494415 28.138619300494415 28.138619300494415 28.1078557040835 28.138619300494415 28.138619300494415 28.138619300494415 28.138619300494415 28.138619300494415 28.1078557040835 28.138619300494415 28.138619300494415 28.138619300494415 28.138619300494415 28.138619300494415 28.138619300494415 28.138619300494415 28.138619300494415 28.138619300494415 28.138619300494415 28.138619300494415 28.138619300494415 28.138619300494415 28.138619300494415 28.138619300494415 28.138619300494415 28.138619300494415 28.138619300494415 28.138619300494415 28.138619300494415 28.138619300494415 28.1078557040835 28.138619300494415 28.1078557040835 28.138619300494415 28.138619300494415 28.138619300494415 28.138619300494415 28.138619300494415 28.138619300494415 28.138619300494415 28.138619300494415 28.138619300494415 28.138619300494415 28.138619300494415 28.138619300494415 28.138619300494415 28.138619300494415 28.138619300494415 28.138619300494415 28.138619300494415 28.138619300494415 28.138619300494415 28.138619300494415 28.138619300494415 28.138619300494415 28.138619300494415 28.138619300494415 28.138619300494415 28.138619300494415 28.138619300494415 28.138619300494415 28.138619300494415 28.138619300494415 28.138619300494415 28.1078557040835 28.138619300494415 28.1078557040835 28.1078557040835 28.138619300494415 28.138619300494415 28.138619300494415 28.138619300494415 28.138619300494415 28.138619300494415 28.138619300494415 28.138619300494415 28.138619300494415 28.138619300494415 28.138619300494415 28.138619300494415 28.138619300494415 28.138619300494415 28.138619300494415 28.138619300494415 28.138619300494415 28.138619300494415 28.138619300494415 28.138619300494415 28.138619300494415 28.138619300494415 28.138619300494415 28.138619300494415 28.138619300494415 28.138619300494415 28.138619300494415 28.138619300494415 28.138619300494415 28.138619300494415 28.138619300494415 28.138619300494415 28.138619300494415 28.138619300494415 28.138619300494415 28.138619300494415 28.138619300494415 28.138619300494415 28.138619300494415 28.138619300494415 28.138619300494415 28.138619300494415 28.138619300494415 28.138619300494415 28.138619300494415 28.138619300494415 28.1078557040835 28.138619300494415 28.138619300494415 28.138619300494415 28.1078557040835 28.138619300494415 28.138619300494415 28.138619300494415 28.138619300494415 28.138619300494415 28.138619300494415 28.138619300494415 28.1078557040835 28.138619300494415 28.138619300494415 28.138619300494415 28.138619300494415 28.138619300494415 28.138619300494415 28.138619300494415 28.138619300494415 28.138619300494415 28.138619300494415 28.138619300494415 28.138619300494415 28.138619300494415 28.138619300494415 28.138619300494415 28.138619300494415 28.138619300494415 28.138619300494415 28.138619300494415 28.138619300494415 28.138619300494415 28.138619300494415 28.138619300494415 28.138619300494415 28.138619300494415 28.138619300494415 28.138619300494415 28.138619300494415 28.138619300494415 28.138619300494415 28.138619300494415 28.138619300494415 28.138619300494415 28.138619300494415 28.138619300494415 28.138619300494415 28.138619300494415 28.1078557040835 28.138619300494415 28.138619300494415 28.138619300494415 28.138619300494415 28.138619300494415 28.1078557040835 28.138619300494415 28.138619300494415 28.138619300494415 28.138619300494415 28.1078557040835 28.138619300494415 28.138619300494415 28.138619300494415 28.138619300494415 28.138619300494415 28.138619300494415 28.138619300494415 28.138619300494415 28.138619300494415 28.138619300494415 28.138619300494415 28.138619300494415 28.138619300494415 28.138619300494415 28.138619300494415 28.138619300494415 28.138619300494415 28.138619300494415 28.138619300494415 28.138619300494415 28.138619300494415 28.138619300494415 28.138619300494415 28.138619300494415 28.138619300494415 28.138619300494415 28.138619300494415 28.138619300494415 28.138619300494415 28.138619300494415 28.138619300494415 28.138619300494415 28.138619300494415 28.138619300494415 28.138619300494415 28.138619300494415 28.138619300494415 28.138619300494415 28.138619300494415 28.138619300494415 28.138619300494415 28.1078557040835 28.138619300494415 28.138619300494415 28.138619300494415 28.138619300494415 28.1078557040835 28.138619300494415 28.138619300494415 28.138619300494415 28.138619300494415 28.1078557040835 28.138619300494415 28.138619300494415 28.138619300494415 28.138619300494415 28.138619300494415 28.138619300494415 28.1078557040835 28.138619300494415 28.138619300494415 28.1078557040835 28.138619300494415 28.138619300494415 28.138619300494415 28.138619300494415 28.138619300494415 28.138619300494415 28.138619300494415 28.138619300494415 28.138619300494415 28.138619300494415 28.138619300494415 28.138619300494415 28.138619300494415 28.138619300494415 28.138619300494415 28.138619300494415 28.138619300494415 28.138619300494415 28.138619300494415 28.138619300494415 28.138619300494415 28.138619300494415 28.138619300494415 28.138619300494415 28.138619300494415 28.138619300494415 28.138619300494415 28.138619300494415 28.138619300494415 28.138619300494415 28.138619300494415 28.138619300494415 28.138619300494415 28.138619300494415 28.138619300494415 28.138619300494415 28.138619300494415 28.138619300494415 28.138619300494415 28.1078557040835 28.138619300494415 28.138619300494415 28.138619300494415 28.138619300494415 28.138619300494415 28.138619300494415 28.138619300494415 28.138619300494415 28.138619300494415 28.138619300494415 28.138619300494415 28.1078557040835 28.138619300494415 28.138619300494415 28.138619300494415 28.138619300494415 28.138619300494415 28.138619300494415 28.138619300494415 28.138619300494415 28.138619300494415 28.138619300494415 28.138619300494415 28.138619300494415 28.138619300494415 28.138619300494415 28.138619300494415 28.138619300494415 28.138619300494415 28.138619300494415 28.138619300494415 28.138619300494415 28.138619300494415 28.138619300494415 28.138619300494415 28.1078557040835 28.138619300494415 28.138619300494415 28.138619300494415 28.138619300494415 28.138619300494415 28.138619300494415 28.138619300494415 28.138619300494415 28.138619300494415 28.138619300494415 28.138619300494415 28.138619300494415 28.138619300494415 28.138619300494415 28.138619300494415 28.138619300494415 28.138619300494415 28.138619300494415 28.138619300494415 28.138619300494415 28.1078557040835 28.138619300494415 28.138619300494415 28.138619300494415 28.138619300494415 28.138619300494415 28.138619300494415 28.138619300494415 28.138619300494415 28.138619300494415 28.1078557040835 28.138619300494415 28.138619300494415 28.138619300494415 28.138619300494415 28.138619300494415 28.138619300494415 28.1078557040835 28.138619300494415 28.1078557040835 28.138619300494415 28.138619300494415 28.138619300494415 28.138619300494415 28.138619300494415 28.138619300494415 28.138619300494415 28.138619300494415 28.138619300494415 28.138619300494415 28.138619300494415 28.138619300494415 28.138619300494415 28.138619300494415 28.138619300494415 28.138619300494415 28.138619300494415 28.138619300494415 28.138619300494415 28.138619300494415 28.1078557040835 28.138619300494415 28.138619300494415 28.138619300494415 28.138619300494415 28.138619300494415 28.138619300494415 28.138619300494415 28.138619300494415 28.138619300494415 28.138619300494415 28.138619300494415 28.138619300494415 28.138619300494415 28.138619300494415 28.138619300494415 28.138619300494415 28.138619300494415 28.138619300494415 28.138619300494415 28.138619300494415 28.138619300494415 28.138619300494415 28.138619300494415 28.138619300494415 28.1078557040835 28.138619300494415 28.138619300494415 28.138619300494415 28.138619300494415 28.138619300494415 28.138619300494415 28.1078557040835 28.138619300494415 28.138619300494415 28.138619300494415 28.138619300494415 28.138619300494415 28.138619300494415 28.138619300494415 28.138619300494415 28.138619300494415 28.138619300494415 28.138619300494415 28.138619300494415 28.138619300494415 28.138619300494415 28.138619300494415 28.138619300494415 28.138619300494415 28.138619300494415 28.138619300494415 28.1078557040835 28.138619300494415 28.138619300494415 28.138619300494415 28.138619300494415 28.138619300494415 28.138619300494415 28.138619300494415 28.138619300494415 28.138619300494415 28.138619300494415 28.138619300494415 28.138619300494415 28.138619300494415 28.138619300494415 28.138619300494415 28.1078557040835 28.138619300494415 28.138619300494415 28.138619300494415 28.138619300494415 28.138619300494415 28.138619300494415 28.138619300494415 28.138619300494415 28.138619300494415 28.138619300494415 28.138619300494415 28.138619300494415 28.138619300494415 28.138619300494415 28.138619300494415 28.138619300494415 28.138619300494415 28.138619300494415 28.138619300494415 28.138619300494415 28.1078557040835 28.138619300494415 28.1078557040835 28.138619300494415 28.138619300494415 28.138619300494415 28.1078557040835 28.138619300494415 28.138619300494415 28.138619300494415 28.138619300494415 28.138619300494415 28.138619300494415 28.138619300494415 28.138619300494415 28.1078557040835 28.138619300494415 28.138619300494415 28.138619300494415 28.138619300494415 28.138619300494415 28.138619300494415 28.1078557040835 28.138619300494415 28.138619300494415 28.138619300494415 28.138619300494415 28.138619300494415 28.138619300494415 28.138619300494415 28.138619300494415 28.138619300494415 28.138619300494415 28.138619300494415 28.138619300494415 28.138619300494415 28.138619300494415 28.138619300494415 28.138619300494415 28.138619300494415 28.138619300494415 28.138619300494415 28.138619300494415 28.1078557040835 28.1078557040835 28.138619300494415 28.138619300494415 28.138619300494415 28.138619300494415 28.138619300494415 28.138619300494415 28.138619300494415 28.138619300494415 28.138619300494415 28.138619300494415 28.138619300494415 28.138619300494415 28.138619300494415 28.138619300494415 28.138619300494415 28.138619300494415 28.138619300494415 28.138619300494415 28.138619300494415 28.138619300494415 28.138619300494415 28.138619300494415 28.138619300494415 28.138619300494415 28.138619300494415 28.138619300494415 28.138619300494415 28.138619300494415 28.138619300494415 28.138619300494415 28.138619300494415 28.138619300494415 28.138619300494415 28.138619300494415 28.138619300494415 28.138619300494415 28.138619300494415 28.138619300494415 28.138619300494415 28.138619300494415 28.138619300494415 28.138619300494415 28.138619300494415 28.138619300494415 28.138619300494415 28.138619300494415 28.138619300494415 28.138619300494415 28.138619300494415 28.138619300494415 28.138619300494415 28.138619300494415 28.138619300494415 28.1078557040835 28.138619300494415 28.138619300494415 28.138619300494415 28.138619300494415 28.138619300494415 28.138619300494415 28.138619300494415 28.138619300494415 28.138619300494415 28.138619300494415 28.138619300494415 28.1078557040835 28.138619300494415 28.138619300494415 28.138619300494415 28.138619300494415 28.138619300494415 28.138619300494415 28.138619300494415 28.138619300494415 28.138619300494415 28.138619300494415 28.138619300494415 28.138619300494415 28.1078557040835 28.138619300494415 28.138619300494415 28.138619300494415 28.138619300494415 28.1078557040835 28.138619300494415 28.138619300494415 28.138619300494415 28.1078557040835 28.138619300494415 28.138619300494415 28.138619300494415 28.138619300494415 28.138619300494415 28.1078557040835 28.138619300494415 28.138619300494415 28.138619300494415 28.138619300494415 28.138619300494415 28.138619300494415 28.138619300494415 28.138619300494415 28.138619300494415 28.138619300494415 28.138619300494415 28.138619300494415 28.138619300494415 28.138619300494415 28.138619300494415 28.138619300494415 28.138619300494415 28.138619300494415 28.138619300494415 28.138619300494415 28.138619300494415 28.138619300494415 28.138619300494415 28.138619300494415 28.138619300494415 28.138619300494415 28.138619300494415 28.138619300494415 28.138619300494415 28.138619300494415 28.138619300494415 28.138619300494415 28.138619300494415 28.138619300494415 28.138619300494415 28.138619300494415 28.138619300494415 28.138619300494415 28.138619300494415 28.16938289690533 28.16938289690533 28.200146493316243 28.230910089727157 28.26167368613807 28.292437282548985 28.353964475370812 28.384728071781726 28.41549166819264 28.477018861014468 28.477018861014468 28.538546053836292 28.538546053836292 28.569309650247206 28.569309650247206 28.60007324665812 28.60007324665812 28.630836843069034 28.630836843069034 28.661600439479948 28.661600439479948 28.661600439479948 28.69236403589086 28.69236403589086 28.69236403589086 28.723127632301775 28.723127632301775 28.75389122871269 28.75389122871269 28.784654825123603 28.784654825123603 28.815418421534517 28.815418421534517 28.815418421534517 28.84618201794543 28.84618201794543 28.876945614356345 28.90770921076726 28.938472807178172 28.969236403589086 29.030763596410914 29.061527192821828 29.123054385643655 29.15381798205457 29.215345174876397 29.24610877128731 29.30763596410914 29.338399560520052 29.39992675334188 29.461453946163708 29.553744735396446 29.615271928218274 29.6767991210401 29.707562717451015 29.769089910272843 29.8921442959165 30.015198681560154 30.07672587438198 30.199780260025637 30.353598242080206 30.47665262772386 30.630470609778428 30.753524995422083 30.938106573887566 31.091924555942136 31.245742537996705 31.461087712873102 31.614905694927668 31.676432887749495 31.891778062625892 31.984068851858634 32.107123237502286 32.29170481596777 32.38399560520051 32.47628639443325 32.568577183665994 32.69163156930965 32.84544955136422 32.99926753341879 33.15308551547336 33.49148507599341 33.7068302508698 33.89141182933528 34.26057498626625 34.475920161142646 34.72202893242996 34.937374107306354 35.15271928218275 35.46035524629189 35.67570042116829 36.044863578099246 36.29097234938656 36.56784471708478 36.84471708478301 36.998535066837576 37.18311664530306 37.4907526094122 37.73686138069951 37.859915766343164 38.013733748397726 38.19831532686321 38.44442409815052 38.629005676616 38.69053286943783 38.90587804431423 39.028932429957884 39.21351400842337 39.367331990477936 39.582677165354326 39.76725874381981 39.890313129463465 39.982603918696206 40.07489470792895 40.136421900750776 40.16718549716169 40.16718549716169 40.16718549716169 40.16718549716169 40.16718549716169 40.16718549716169 40.16718549716169 40.16718549716169 40.16718549716169 40.16718549716169 40.16718549716169 40.16718549716169 40.136421900750776 40.136421900750776 40.16718549716169 40.136421900750776 40.136421900750776 40.136421900750776 40.10565830433986 40.07489470792895 40.07489470792895 40.044131111518034 40.044131111518034 40.01336751510712 40.01336751510712 40.01336751510712 40.01336751510712 40.01336751510712 40.01336751510712 40.044131111518034 40.01336751510712 40.01336751510712 40.01336751510712 40.044131111518034 40.01336751510712 40.01336751510712 40.01336751510712 40.01336751510712 40.01336751510712 40.01336751510712 40.01336751510712 40.01336751510712 40.01336751510712 40.01336751510712 40.01336751510712 40.01336751510712 40.01336751510712 40.01336751510712 40.01336751510712 40.01336751510712 40.01336751510712 40.01336751510712 40.01336751510712 40.01336751510712 40.01336751510712 40.01336751510712 40.01336751510712 40.01336751510712 40.044131111518034 40.01336751510712 40.01336751510712 40.044131111518034 40.01336751510712 40.01336751510712 40.01336751510712 40.01336751510712 39.890313129463465 39.7364951474089 39.674967954587075 39.55191356894342 39.49038637612159 39.428859183299764 39.33656839406702 39.30580479765611 39.275041201245195 39.275041201245195 39.275041201245195 39.275041201245195 39.24427760483428 39.24427760483428 39.275041201245195 39.24427760483428 39.24427760483428 39.275041201245195 39.275041201245195 39.24427760483428 39.24427760483428 39.24427760483428 39.18275041201245 39.15198681560154 39.09045962277971 39.09045962277971 39.09045962277971 39.09045962277971 39.09045962277971 39.09045962277971 39.09045962277971 39.09045962277971 39.09045962277971 39.09045962277971 39.09045962277971 39.09045962277971 39.09045962277971 39.09045962277971 39.09045962277971 39.09045962277971 39.09045962277971 39.09045962277971 39.09045962277971 39.09045962277971 39.09045962277971 39.09045962277971 39.09045962277971 39.121223219190625 39.09045962277971 39.09045962277971 39.09045962277971 39.09045962277971 39.09045962277971 39.121223219190625 39.09045962277971 39.09045962277971 39.09045962277971 39.09045962277971 39.09045962277971 38.99816883354697 38.967405237136056 38.93664164072514 38.90587804431423 38.90587804431423 38.90587804431423 38.90587804431423 38.90587804431423 38.90587804431423 38.90587804431423 38.90587804431423 38.93664164072514 38.93664164072514 38.93664164072514 38.93664164072514 38.93664164072514 38.93664164072514 38.93664164072514 38.93664164072514 38.93664164072514 38.93664164072514 38.93664164072514 38.93664164072514 38.93664164072514 38.93664164072514 38.93664164072514 38.93664164072514 38.93664164072514 38.93664164072514 38.93664164072514 38.93664164072514 38.90587804431423 38.90587804431423 38.90587804431423 38.8443508514924 38.8443508514924 38.81358725508149 38.81358725508149 38.81358725508149 38.81358725508149 38.81358725508149 38.81358725508149 38.78282365867057 38.75206006225966 38.721296465848745 38.69053286943783 38.65976927302692 38.629005676616 38.59824208020509 38.59824208020509 38.59824208020509 38.59824208020509 38.59824208020509 38.59824208020509 38.59824208020509 38.59824208020509 38.59824208020509 38.59824208020509 38.59824208020509 38.59824208020509 38.59824208020509 38.59824208020509 38.59824208020509 38.59824208020509 38.59824208020509 38.59824208020509 38.59824208020509 38.59824208020509 38.59824208020509 38.59824208020509 38.59824208020509 38.59824208020509 38.59824208020509 38.59824208020509 38.59824208020509 38.59824208020509 38.59824208020509 38.59824208020509 38.59824208020509 38.59824208020509 38.59824208020509 38.59824208020509 38.567478483794176 38.59824208020509 38.567478483794176 38.567478483794176 38.53671488738326 38.53671488738326 38.53671488738326 38.50595129097235 38.50595129097235 38.475187694561434 38.44442409815052 38.413660501739606 38.35213330891778 38.35213330891778 38.321369712506865 38.29060611609595 38.29060611609595 38.29060611609595 38.29060611609595 38.29060611609595 38.29060611609595 38.29060611609595 38.29060611609595 38.29060611609595 38.321369712506865 38.321369712506865 38.29060611609595 38.321369712506865 38.29060611609595 38.321369712506865 38.29060611609595 38.321369712506865 38.321369712506865 38.321369712506865 38.321369712506865 38.321369712506865 38.321369712506865 38.321369712506865 38.321369712506865 38.29060611609595 38.321369712506865 38.29060611609595 38.321369712506865 38.29060611609595 38.29060611609595 38.321369712506865 38.321369712506865 38.321369712506865 38.321369712506865 38.35213330891778 38.321369712506865 38.35213330891778 38.35213330891778 38.35213330891778 38.35213330891778 38.35213330891778 38.321369712506865 38.321369712506865 38.321369712506865 38.321369712506865 38.35213330891778 38.321369712506865 38.321369712506865 38.321369712506865 38.321369712506865 38.321369712506865 38.321369712506865 38.321369712506865 38.321369712506865 38.35213330891778 38.35213330891778 38.35213330891778 38.321369712506865 38.321369712506865 38.35213330891778 38.35213330891778 38.321369712506865 38.321369712506865 38.35213330891778 38.321369712506865 38.321369712506865 38.35213330891778 38.321369712506865 38.35213330891778 38.321369712506865 38.321369712506865 38.35213330891778 38.321369712506865 38.35213330891778 38.35213330891778 38.35213330891778 38.321369712506865 38.35213330891778 38.35213330891778 38.35213330891778 38.35213330891778 38.35213330891778 38.321369712506865 38.35213330891778 38.35213330891778 38.35213330891778 38.321369712506865 38.321369712506865 38.321369712506865 38.321369712506865 38.321369712506865 38.321369712506865 38.321369712506865 38.29060611609595 38.22907892327412 38.22907892327412 38.19831532686321 38.19831532686321 38.19831532686321 38.19831532686321 38.19831532686321 38.19831532686321 38.19831532686321 38.19831532686321 38.19831532686321 38.19831532686321 38.19831532686321 38.19831532686321 38.19831532686321 38.19831532686321 38.19831532686321 38.22907892327412 38.19831532686321 38.22907892327412 38.19831532686321 38.19831532686321 38.19831532686321 38.19831532686321 38.167551730452296 38.10602453763047 38.04449734480864 37.9522065555759 37.798388573521336 37.70609778428859 37.64457059146676 37.521516205823104 37.33693462735763 37.21388024171397 37.060062259659404 36.96777147042666 36.81395348837209 36.598608313495696 36.444790331441126 36.26020875297564 36.07562717451016 35.98333638527742 35.89104559604468 35.89104559604468 35.79875480681194 35.706464017579194 35.64493682475737 35.52188243911371 35.337300860648234 35.183482878593665 34.937374107306354 34.8143197216627 34.75279252884087 34.66050173960813 34.56821095037539 34.537447353964474 34.41439296832082 34.35286577549899 34.29133858267716 34.26057498626625 34.19904779344442 34.137520600622594 34.075993407800766 34.01446621497894 33.983702618568024 33.95293902215711 33.922175425746204 33.922175425746204 33.829884636513455 33.7068302508698 33.64530305804798 33.58377586522615 33.49148507599341 33.42995788317158 33.27613990111701 33.214612708295185 33.09155832265153 32.968503937007874 32.93774034059696 32.84544955136422 32.78392235854239 32.78392235854239 32.75315876213148 32.69163156930965 32.660867972898735 32.568577183665994 32.47628639443325 32.414759201611425 32.38399560520051 32.32246841237868 32.23017762314594 32.1378868339132 32.014832448269544 31.95330525544772 31.922541659036806 31.891778062625892 31.86101446621498 31.830250869804065 31.768723676982237 31.737960080571323 31.70719648416041 31.64566929133858 31.584142098516754 31.491851309284012 31.430324116462188 31.338033327229446 31.21497894158579 31.12268815235305 31.06116095953122 30.938106573887566 30.87657938106574 30.691997802600255 30.630470609778428 30.507416224134772 30.415125434902034 30.353598242080206 30.199780260025637 30.107489470792896 30.015198681560154 29.799853506683757 29.799853506683757 29.799853506683757 29.769089910272843 29.769089910272843 29.73832631386193 29.73832631386193 29.707562717451015 29.646035524629188 29.58450833180736 29.49221754257462 29.39992675334188 29.30763596410914 29.24610877128731 29.215345174876397 29.184581578465483 29.15381798205457 29.15381798205457 29.15381798205457 29.15381798205457 29.15381798205457 29.123054385643655 29.123054385643655 29.123054385643655 29.123054385643655 29.123054385643655 29.123054385643655 29.09229078923274 29.061527192821828 29.030763596410914 29.030763596410914 29.0 29.0 28.969236403589086 28.969236403589086 28.969236403589086 28.969236403589086 28.969236403589086 28.969236403589086 28.969236403589086 28.969236403589086 28.969236403589086 28.938472807178172 28.938472807178172 28.938472807178172 28.938472807178172 28.90770921076726 28.90770921076726 28.876945614356345 28.876945614356345 28.876945614356345 28.876945614356345 28.876945614356345 28.876945614356345 28.876945614356345 28.876945614356345 28.876945614356345 28.876945614356345 28.876945614356345 28.876945614356345 28.876945614356345 28.876945614356345 28.876945614356345 28.876945614356345 28.876945614356345 28.876945614356345 28.84618201794543 28.876945614356345 28.876945614356345 28.876945614356345 28.876945614356345 28.876945614356345 28.876945614356345 28.876945614356345 28.876945614356345 28.876945614356345 28.876945614356345 28.876945614356345 28.876945614356345 28.876945614356345 28.876945614356345 28.876945614356345 28.876945614356345 28.876945614356345 28.876945614356345 28.876945614356345 28.876945614356345 28.876945614356345 28.876945614356345 28.876945614356345 28.876945614356345 28.876945614356345 28.876945614356345 28.876945614356345 28.876945614356345 28.876945614356345 28.876945614356345 28.876945614356345 28.876945614356345 28.876945614356345 28.876945614356345 28.876945614356345 28.876945614356345 28.876945614356345 28.876945614356345 28.876945614356345 28.876945614356345 28.876945614356345 28.876945614356345 28.876945614356345 28.876945614356345 28.876945614356345 28.876945614356345 28.876945614356345 28.876945614356345 28.876945614356345 28.876945614356345 28.876945614356345 28.876945614356345 28.876945614356345 28.876945614356345 28.876945614356345 28.876945614356345 28.876945614356345 28.876945614356345 28.876945614356345 28.876945614356345 28.876945614356345 28.876945614356345 28.876945614356345 28.876945614356345 28.876945614356345 28.876945614356345 28.876945614356345 28.84618201794543 28.876945614356345 28.876945614356345 28.876945614356345 28.876945614356345 28.876945614356345 28.876945614356345 28.876945614356345 28.876945614356345 28.876945614356345 28.876945614356345 28.876945614356345 28.876945614356345 28.876945614356345 28.876945614356345 28.876945614356345 28.876945614356345 28.876945614356345 28.876945614356345 28.876945614356345 28.876945614356345 28.876945614356345 28.876945614356345 28.876945614356345 28.876945614356345 28.876945614356345 28.876945614356345 28.876945614356345 28.876945614356345 28.876945614356345 28.876945614356345 28.84618201794543 28.876945614356345 28.876945614356345 28.876945614356345 28.876945614356345 28.84618201794543 28.876945614356345 28.876945614356345 28.876945614356345 28.876945614356345 28.876945614356345 28.876945614356345 28.876945614356345 28.876945614356345 28.876945614356345 28.876945614356345 28.876945614356345 28.876945614356345 28.876945614356345 28.876945614356345 28.876945614356345 28.876945614356345 28.876945614356345 28.876945614356345 28.876945614356345 28.876945614356345 28.876945614356345 28.876945614356345 28.876945614356345 28.876945614356345 28.876945614356345 28.876945614356345 28.876945614356345 28.876945614356345 28.876945614356345 28.876945614356345 28.876945614356345 28.876945614356345 28.876945614356345 28.876945614356345 28.876945614356345 28.876945614356345 28.876945614356345 28.876945614356345 28.876945614356345 28.876945614356345 28.876945614356345 28.876945614356345 28.876945614356345 28.876945614356345 28.876945614356345 28.876945614356345 28.876945614356345 28.876945614356345 28.84618201794543 28.876945614356345 28.876945614356345 28.876945614356345 28.876945614356345 28.876945614356345 28.876945614356345 28.876945614356345 28.876945614356345 28.876945614356345 28.876945614356345 28.876945614356345 28.876945614356345 28.876945614356345 28.876945614356345 28.876945614356345 28.876945614356345 28.876945614356345 28.876945614356345 28.876945614356345 28.84618201794543 28.876945614356345 28.876945614356345 28.876945614356345 28.876945614356345 28.876945614356345 28.876945614356345 28.876945614356345 28.876945614356345 28.84618201794543 28.876945614356345 28.876945614356345 28.876945614356345 28.876945614356345 28.876945614356345 28.876945614356345 28.84618201794543 28.876945614356345 28.876945614356345 28.876945614356345 28.876945614356345 28.876945614356345 28.876945614356345 28.876945614356345 28.876945614356345 28.876945614356345 28.876945614356345 28.876945614356345 28.876945614356345 28.876945614356345 28.876945614356345 28.876945614356345 28.876945614356345 28.876945614356345 28.84618201794543 28.876945614356345 28.876945614356345 28.876945614356345 28.876945614356345 28.876945614356345 28.876945614356345 28.876945614356345 28.876945614356345 28.876945614356345 28.876945614356345 28.876945614356345 28.876945614356345 28.876945614356345 28.876945614356345 28.876945614356345 28.876945614356345 28.876945614356345 28.876945614356345 28.876945614356345 28.876945614356345 28.876945614356345 28.876945614356345 28.84618201794543 28.876945614356345 28.876945614356345 28.876945614356345 28.84618201794543 28.876945614356345 28.876945614356345 28.876945614356345 28.876945614356345 28.876945614356345 28.876945614356345 28.876945614356345 28.876945614356345 28.876945614356345 28.84618201794543 28.876945614356345 28.876945614356345 28.876945614356345 28.876945614356345 28.876945614356345 28.876945614356345 28.876945614356345 28.876945614356345 28.876945614356345 28.876945614356345 28.876945614356345 28.876945614356345 28.876945614356345 28.876945614356345 28.876945614356345 28.876945614356345 28.876945614356345 28.876945614356345 28.876945614356345 28.876945614356345 28.876945614356345 28.876945614356345 28.876945614356345 28.876945614356345 28.876945614356345 28.876945614356345 28.876945614356345 28.876945614356345 28.876945614356345 28.876945614356345 28.876945614356345 28.876945614356345 28.876945614356345 28.876945614356345 28.876945614356345 28.876945614356345 28.876945614356345 28.876945614356345 28.876945614356345 28.876945614356345 28.876945614356345 28.876945614356345 28.876945614356345 28.876945614356345 28.876945614356345 28.876945614356345 28.876945614356345 28.876945614356345 28.876945614356345 28.876945614356345 28.876945614356345 28.876945614356345 28.876945614356345 28.876945614356345 28.876945614356345 28.876945614356345 28.876945614356345 28.876945614356345 28.876945614356345 28.876945614356345 28.876945614356345 28.876945614356345 28.876945614356345 28.876945614356345 28.876945614356345 28.876945614356345 28.876945614356345 28.876945614356345 28.876945614356345 28.876945614356345 28.876945614356345 28.876945614356345 28.876945614356345 28.876945614356345 28.876945614356345 28.876945614356345 28.876945614356345 28.876945614356345 28.876945614356345 28.876945614356345 28.876945614356345 28.876945614356345 28.876945614356345 28.876945614356345 28.876945614356345 28.876945614356345 28.876945614356345 28.876945614356345 28.876945614356345 28.876945614356345 28.876945614356345 28.876945614356345 28.876945614356345 28.876945614356345 28.876945614356345 28.876945614356345 28.876945614356345 28.876945614356345 28.876945614356345 28.876945614356345 28.876945614356345 28.876945614356345 28.876945614356345 28.84618201794543 28.876945614356345 28.876945614356345 28.876945614356345 28.876945614356345 28.876945614356345 28.876945614356345 28.876945614356345 28.876945614356345 28.876945614356345 28.876945614356345 28.876945614356345 28.84618201794543 28.876945614356345 28.876945614356345 28.876945614356345 28.876945614356345 28.876945614356345 28.876945614356345 28.876945614356345 28.876945614356345 28.876945614356345 28.876945614356345 28.876945614356345 28.876945614356345 28.876945614356345 28.876945614356345 28.876945614356345 28.876945614356345 28.876945614356345 28.876945614356345 28.876945614356345 28.876945614356345 28.876945614356345 28.876945614356345 28.876945614356345 28.84618201794543 28.876945614356345 28.876945614356345 28.876945614356345 28.876945614356345 28.876945614356345 28.84618201794543 28.876945614356345 28.876945614356345 28.876945614356345 28.84618201794543 28.876945614356345 28.876945614356345 28.876945614356345 28.876945614356345 28.84618201794543 28.876945614356345 28.876945614356345 28.876945614356345 28.876945614356345 28.876945614356345 28.876945614356345 28.876945614356345 28.876945614356345 28.876945614356345 28.876945614356345 28.876945614356345 28.876945614356345 28.876945614356345 28.876945614356345 28.876945614356345 28.876945614356345 28.876945614356345 28.876945614356345 28.876945614356345 28.876945614356345 28.876945614356345 28.876945614356345 28.876945614356345 28.876945614356345 28.876945614356345 28.876945614356345 28.876945614356345 28.876945614356345 28.876945614356345 28.876945614356345 28.876945614356345 28.876945614356345 28.876945614356345 28.876945614356345 28.876945614356345 28.876945614356345 28.876945614356345 28.876945614356345 28.876945614356345 28.876945614356345 28.876945614356345 28.876945614356345 28.876945614356345 28.876945614356345 28.84618201794543 28.876945614356345 28.876945614356345 28.876945614356345 28.876945614356345 28.876945614356345 28.876945614356345 28.876945614356345 28.876945614356345 28.876945614356345 28.876945614356345 28.876945614356345 28.876945614356345 28.876945614356345 28.876945614356345 28.876945614356345 28.876945614356345 28.876945614356345 28.876945614356345 28.876945614356345 28.876945614356345 28.876945614356345 28.876945614356345 28.876945614356345 28.876945614356345 28.876945614356345 28.876945614356345 28.876945614356345 28.876945614356345 28.876945614356345 28.876945614356345 28.876945614356345 28.876945614356345 28.876945614356345 28.876945614356345 28.876945614356345 28.876945614356345 28.876945614356345 28.84618201794543 28.876945614356345 28.876945614356345 28.876945614356345 28.876945614356345 28.876945614356345 28.876945614356345 28.876945614356345 28.876945614356345 28.876945614356345 28.876945614356345 28.876945614356345 28.876945614356345 28.876945614356345 28.84618201794543 28.876945614356345 28.876945614356345 28.876945614356345 28.876945614356345 28.876945614356345 28.876945614356345 28.876945614356345 28.876945614356345 28.876945614356345 28.876945614356345 28.876945614356345 28.876945614356345 28.84618201794543 28.876945614356345 28.876945614356345 28.84618201794543 28.876945614356345 28.876945614356345 28.84618201794543 28.876945614356345 28.876945614356345 28.84618201794543 28.876945614356345 28.876945614356345 28.876945614356345 28.876945614356345 28.876945614356345 28.876945614356345 28.876945614356345 28.876945614356345 28.876945614356345 28.876945614356345 28.876945614356345 28.876945614356345 28.876945614356345 28.876945614356345 28.876945614356345 28.876945614356345 28.876945614356345 28.876945614356345 28.876945614356345 28.876945614356345 28.876945614356345 28.876945614356345 28.876945614356345 28.876945614356345 28.876945614356345 28.876945614356345 28.84618201794543 28.876945614356345 28.876945614356345 28.876945614356345 28.84618201794543 28.876945614356345 28.876945614356345 28.876945614356345 28.876945614356345 28.876945614356345 28.876945614356345 28.876945614356345 28.876945614356345 28.876945614356345 28.876945614356345 28.876945614356345 28.876945614356345 28.876945614356345 28.876945614356345 28.876945614356345 28.876945614356345 28.876945614356345 28.876945614356345 28.876945614356345 28.876945614356345 28.876945614356345 28.876945614356345 28.876945614356345 28.876945614356345 28.876945614356345 28.876945614356345 28.876945614356345 28.876945614356345 28.876945614356345 28.876945614356345 28.876945614356345 28.876945614356345 28.876945614356345 28.876945614356345 28.876945614356345 28.876945614356345 28.876945614356345 28.876945614356345 28.876945614356345 28.876945614356345 28.876945614356345 28.876945614356345 28.876945614356345 28.876945614356345 28.84618201794543 28.876945614356345 28.876945614356345 28.876945614356345 28.876945614356345 28.876945614356345 28.876945614356345 28.876945614356345 28.876945614356345 28.876945614356345 28.876945614356345 28.876945614356345 28.876945614356345 28.876945614356345 28.876945614356345 28.876945614356345 28.876945614356345 28.876945614356345 28.876945614356345 28.876945614356345 28.876945614356345 28.876945614356345 28.876945614356345 28.876945614356345 28.876945614356345 28.876945614356345 28.876945614356345 28.84618201794543 28.876945614356345 28.876945614356345 28.876945614356345 28.876945614356345 28.876945614356345 28.84618201794543 28.876945614356345 28.876945614356345 28.84618201794543 28.876945614356345 28.876945614356345 28.876945614356345 28.84618201794543 28.876945614356345 28.876945614356345 28.876945614356345 28.876945614356345 28.876945614356345 28.876945614356345 28.876945614356345 28.876945614356345 28.876945614356345 28.876945614356345 28.876945614356345 28.84618201794543 28.876945614356345 28.876945614356345 28.876945614356345 28.876945614356345 28.876945614356345 28.876945614356345 28.876945614356345 28.876945614356345 28.876945614356345 28.876945614356345 28.876945614356345 28.876945614356345 28.876945614356345 28.876945614356345 28.876945614356345 28.876945614356345 28.876945614356345 28.876945614356345 28.876945614356345 28.876945614356345 28.876945614356345 28.876945614356345 28.876945614356345 28.876945614356345 28.876945614356345 28.876945614356345 28.876945614356345 28.876945614356345 28.876945614356345 28.876945614356345 28.876945614356345 28.876945614356345 28.876945614356345 28.876945614356345 28.876945614356345 28.876945614356345 28.876945614356345 28.876945614356345 28.876945614356345 28.876945614356345 28.876945614356345 28.876945614356345 28.876945614356345 28.876945614356345 28.876945614356345 28.876945614356345 28.876945614356345 28.876945614356345 28.876945614356345 28.876945614356345 28.876945614356345 28.84618201794543 28.876945614356345 28.876945614356345 28.876945614356345 28.876945614356345 28.876945614356345 28.876945614356345 28.876945614356345 28.876945614356345 28.876945614356345 28.876945614356345 28.876945614356345 28.876945614356345 28.876945614356345 28.84618201794543 28.876945614356345 28.84618201794543 28.876945614356345 28.876945614356345 28.876945614356345 28.876945614356345 28.876945614356345 28.876945614356345 28.876945614356345 28.876945614356345 28.876945614356345 28.876945614356345 28.876945614356345 28.876945614356345 28.876945614356345 28.876945614356345 28.876945614356345 28.876945614356345 28.876945614356345 28.876945614356345 28.876945614356345 28.876945614356345 28.876945614356345 28.84618201794543 28.876945614356345 28.876945614356345 28.876945614356345 28.876945614356345 28.876945614356345 28.876945614356345 28.876945614356345 28.84618201794543 28.84618201794543 28.876945614356345 28.876945614356345 28.876945614356345 28.876945614356345 28.876945614356345 28.876945614356345 28.876945614356345 28.876945614356345 28.876945614356345 28.876945614356345 28.876945614356345 28.876945614356345 28.876945614356345 28.876945614356345 28.876945614356345 28.876945614356345 28.876945614356345 28.84618201794543 28.876945614356345 28.876945614356345 28.84618201794543 28.876945614356345 28.876945614356345 28.876945614356345 28.876945614356345 28.876945614356345 28.876945614356345 28.876945614356345 28.876945614356345 28.876945614356345 28.876945614356345 28.876945614356345 28.876945614356345 28.876945614356345 28.876945614356345 28.876945614356345 28.876945614356345 28.876945614356345 28.876945614356345 28.876945614356345 28.84618201794543 28.876945614356345 28.84618201794543 28.876945614356345 28.876945614356345 28.876945614356345 28.876945614356345 28.876945614356345 28.876945614356345 28.876945614356345 28.876945614356345 28.876945614356345 28.876945614356345 28.876945614356345 28.876945614356345 28.876945614356345 28.876945614356345 28.84618201794543 28.876945614356345 28.876945614356345 28.876945614356345 28.876945614356345 28.876945614356345 28.876945614356345 28.876945614356345 28.876945614356345 28.876945614356345 28.876945614356345 28.876945614356345 28.876945614356345 28.876945614356345 28.876945614356345 28.876945614356345 28.876945614356345 28.876945614356345 28.876945614356345 28.876945614356345 28.876945614356345 28.876945614356345 28.876945614356345 28.876945614356345 28.876945614356345 28.876945614356345 28.876945614356345 28.876945614356345 28.876945614356345 28.876945614356345 28.876945614356345 28.876945614356345 28.876945614356345 28.876945614356345 28.876945614356345 28.876945614356345 28.876945614356345 28.876945614356345 28.876945614356345 28.876945614356345 28.876945614356345 28.876945614356345 28.876945614356345 28.876945614356345 28.876945614356345 28.876945614356345 28.876945614356345 28.876945614356345 28.876945614356345 28.876945614356345 28.876945614356345 28.876945614356345 28.876945614356345 28.876945614356345 28.876945614356345 28.876945614356345 28.876945614356345 28.876945614356345 28.876945614356345 28.876945614356345 28.90770921076726 28.90770921076726 28.938472807178172 28.938472807178172 28.969236403589086 29.0 29.030763596410914 29.061527192821828 29.09229078923274 29.123054385643655 29.15381798205457 29.15381798205457 29.15381798205457 29.184581578465483 29.184581578465483 29.215345174876397 29.215345174876397 29.24610877128731 29.24610877128731 29.276872367698225 29.30763596410914 29.30763596410914 29.338399560520052 29.338399560520052 29.369163156930966 29.369163156930966 29.369163156930966 29.369163156930966 29.39992675334188 29.39992675334188 29.430690349752794 29.49221754257462 29.522981138985532 29.58450833180736 29.6767991210401 29.707562717451015 29.769089910272843 29.83061710309467 29.83061710309467 29.8921442959165 29.922907892327412 29.98443508514924 30.045962277971068 30.07672587438198 30.13825306720381 30.23054385643655 30.261307452847465 30.322834645669293 30.353598242080206 30.38436183849112 30.415125434902034 30.445889031312948 30.507416224134772 30.538179820545686 30.538179820545686 30.5689434169566 30.599707013367514 30.630470609778428 30.66123420618934 30.66123420618934 30.72276139901117 30.784288591832997 30.81505218824391 30.907342977476652 30.96887017029848 30.999633766709394 31.06116095953122 31.12268815235305 31.21497894158579 31.27650613440762 31.399560520051274 31.491851309284012 31.584142098516754 31.64566929133858 31.737960080571323 31.79948727339315 31.922541659036806 31.984068851858634 32.07635964109137 32.1378868339132 32.19941402673503 32.29170481596777 32.414759201611425 32.47628639443325 32.568577183665994 32.63010437648782 32.75315876213148 32.87621314777513 32.99926753341879 33.12232191906244 33.27613990111701 33.368430690349754 33.522248672404324 33.58377586522615 33.73759384728072 33.860648232924376 33.983702618568024 34.075993407800766 34.229811389855335 34.32210217908808 34.50668375755356 34.56821095037539 34.84508331807361 35.029664896539096 35.183482878593665 35.39882805347006 35.64493682475737 35.89104559604468 36.1679179637429 36.41402673503021 36.62937190990661 36.906244277604834 37.060062259659404 37.306171030946714 37.552279802234025 37.70609778428859 37.921442959164985 38.10602453763047 38.321369712506865 38.53671488738326 38.75206006225966 38.99816883354697 39.18275041201245 39.39809558688884 39.582677165354326 39.7364951474089 39.921076725874386 40.10565830433986 40.25947628639443 40.413294268449 40.597875846914484 40.690166636147225 40.843984618201794 40.936275407434536 41.090093389489105 41.243911371543675 41.336202160776416 41.42849295000916 41.490020142830986 41.55154733565281 41.64383812488555 41.67460172129647 41.7668925105292 41.797656106940124 41.82841970335103 41.82841970335103 41.85918329976195 41.85918329976195 41.88994689617286 41.88994689617286 41.92071049258377 41.92071049258377 41.951474088994686 41.951474088994686 41.951474088994686 41.951474088994686 41.951474088994686 41.951474088994686 41.951474088994686 41.951474088994686 41.951474088994686 41.92071049258377 41.92071049258377 41.92071049258377 41.92071049258377 41.88994689617286 41.85918329976195 41.85918329976195 41.85918329976195 41.82841970335103 41.85918329976195 41.85918329976195 41.85918329976195 41.85918329976195 41.85918329976195 41.85918329976195 41.85918329976195 41.85918329976195 41.85918329976195 41.85918329976195 41.88994689617286 41.88994689617286 41.951474088994686 42.013001281816514 42.07452847463834 42.197582860282 42.259110053103825 42.28987364951474 42.35140084233657 42.38216443874748 42.44369163156931 42.47445522798022 42.505218824391136 42.53598242080205 42.566746017212964 42.59750961362388 42.62827321003479 42.62827321003479 42.659036806445705 42.68980040285662 42.68980040285662 42.68980040285662 42.68980040285662 42.68980040285662 42.68980040285662 42.68980040285662 42.68980040285662 42.68980040285662 42.68980040285662 42.68980040285662 42.68980040285662 42.68980040285662 42.68980040285662 42.68980040285662 42.68980040285662 42.68980040285662 42.68980040285662 42.68980040285662 42.68980040285662 42.68980040285662 42.68980040285662 42.68980040285662 42.68980040285662 42.68980040285662 42.72056399926753 42.72056399926753 42.68980040285662 42.68980040285662 42.72056399926753 42.72056399926753 42.75132759567845 42.75132759567845 42.812854788500275 42.84361838491119 42.8743819813221 42.8743819813221 42.905145577733016 42.905145577733016 42.93590917414393 42.93590917414393 42.93590917414393 42.93590917414393 42.966672770554844 42.966672770554844 42.966672770554844 42.966672770554844 42.966672770554844 42.966672770554844 42.966672770554844 42.966672770554844 42.966672770554844 42.93590917414393 42.966672770554844 42.966672770554844 42.966672770554844 42.966672770554844 42.966672770554844 42.966672770554844 42.966672770554844 42.966672770554844 42.966672770554844 42.966672770554844 42.966672770554844 42.966672770554844 42.93590917414393 42.966672770554844 42.966672770554844 42.966672770554844 42.93590917414393 42.966672770554844 42.966672770554844 42.93590917414393 42.93590917414393 42.93590917414393 42.93590917414393 42.93590917414393 42.93590917414393 42.93590917414393 42.905145577733016 42.905145577733016 42.905145577733016 42.905145577733016 42.905145577733016 42.8743819813221 42.8743819813221 42.812854788500275 42.812854788500275 42.812854788500275 42.812854788500275 42.812854788500275 42.78209119208936 42.78209119208936 42.78209119208936 42.75132759567845 42.75132759567845 42.75132759567845 42.75132759567845 42.75132759567845 42.75132759567845 42.75132759567845 42.75132759567845 42.75132759567845 42.75132759567845 42.75132759567845 42.75132759567845 42.72056399926753 42.75132759567845 42.75132759567845 42.75132759567845 42.75132759567845 42.75132759567845 42.75132759567845 42.75132759567845 42.75132759567845 42.75132759567845 42.75132759567845 42.75132759567845 42.75132759567845 42.75132759567845 42.75132759567845 42.75132759567845 42.75132759567845 42.75132759567845 42.72056399926753 42.75132759567845 42.72056399926753 42.68980040285662 42.68980040285662 42.659036806445705 42.62827321003479 42.62827321003479 42.62827321003479 42.62827321003479 42.62827321003479 42.62827321003479 42.62827321003479 42.62827321003479 42.62827321003479 42.62827321003479 42.659036806445705 42.62827321003479 42.659036806445705 42.659036806445705 42.659036806445705 42.659036806445705 42.62827321003479 42.62827321003479 42.659036806445705 42.62827321003479 42.659036806445705 42.62827321003479 42.659036806445705 42.62827321003479 42.62827321003479 42.62827321003479 42.62827321003479 42.659036806445705 42.62827321003479 42.62827321003479 42.62827321003479 42.659036806445705 42.62827321003479 42.659036806445705 42.62827321003479 42.659036806445705 42.659036806445705 42.659036806445705 42.659036806445705 42.659036806445705 42.659036806445705 42.659036806445705 42.68980040285662 42.68980040285662 42.68980040285662 42.68980040285662 42.68980040285662 42.68980040285662 42.68980040285662 42.68980040285662 42.68980040285662 42.68980040285662 42.68980040285662 42.68980040285662 42.68980040285662 42.659036806445705 42.659036806445705 42.659036806445705 42.62827321003479 42.62827321003479 42.62827321003479 42.62827321003479 42.62827321003479 42.62827321003479 42.62827321003479 42.62827321003479 42.62827321003479 42.62827321003479 42.62827321003479 42.62827321003479 42.62827321003479 42.62827321003479 42.62827321003479 42.659036806445705 42.659036806445705 42.68980040285662 42.68980040285662 42.68980040285662 42.68980040285662 42.72056399926753 42.72056399926753 42.72056399926753 42.75132759567845 42.75132759567845 42.75132759567845 42.75132759567845 42.75132759567845 42.75132759567845 42.75132759567845 42.78209119208936 42.75132759567845 42.75132759567845 42.78209119208936 42.75132759567845 42.75132759567845 42.72056399926753 42.72056399926753 42.72056399926753 42.68980040285662 42.659036806445705 42.62827321003479 42.59750961362388 42.566746017212964 42.505218824391136 42.44369163156931 42.412928035158394 42.32063724592565 42.28987364951474 42.197582860282 42.16681926387108 42.07452847463834 42.04376487822743 41.951474088994686 41.82841970335103 41.705365317707376 41.55154733565281 41.36696575718733 41.21314777513276 41.090093389489105 40.81322102179088 40.65940303973631 40.413294268449 40.25947628639443 40.044131111518034 39.79802234023072 39.70573155099798 39.5211499725325 39.30580479765611 39.15198681560154 38.967405237136056 38.78282365867057 38.59824208020509 38.44442409815052 38.321369712506865 38.19831532686321 38.04449734480864 37.89067936275407 37.70609778428859 37.521516205823104 37.33693462735763 37.12158945248123 36.96777147042666 36.78318989196118 36.56784471708478 36.41402673503021 36.198681560153815 36.044863578099246 35.82951840322285 35.583409631935545 35.30653726423732 35.12195568577184 34.87584691448453 34.629738143197216 34.383629371909905 34.229811389855335 33.983702618568024 33.829884636513455 33.73759384728072 33.614539461637065 33.55301226881524 33.49148507599341 33.39919428676067 33.368430690349754 33.33766709393884 33.27613990111701 33.2453763047061 33.18384911188427 33.12232191906244 33.09155832265153 32.99926753341879 32.968503937007874 32.906976744186046 32.814685954953305 32.78392235854239 32.69163156930965 32.63010437648782 32.568577183665994 32.47628639443325 32.414759201611425 32.32246841237868 32.168650430324114 32.107123237502286 32.014832448269544 31.95330525544772 31.922541659036806 31.86101446621498 31.79948727339315 31.737960080571323 31.676432887749495 31.584142098516754 31.522614905694926 31.430324116462188 31.338033327229446 31.245742537996705 31.21497894158579 31.12268815235305 31.030397363120308 30.96887017029848 30.81505218824391 30.753524995422083 30.66123420618934 30.538179820545686 30.415125434902034 30.29207104925838 30.199780260025637 30.107489470792896 29.953671488738326 29.8921442959165 29.799853506683757 29.6767991210401 29.6767991210401 29.615271928218274 29.615271928218274 29.58450833180736 29.522981138985532 29.49221754257462 29.430690349752794 29.369163156930966 29.30763596410914 29.215345174876397 29.15381798205457 29.123054385643655 29.061527192821828 29.061527192821828 29.030763596410914 29.0 28.969236403589086 28.969236403589086 28.938472807178172 28.969236403589086 28.938472807178172 28.938472807178172 28.938472807178172 28.938472807178172 28.90770921076726 28.938472807178172 28.938472807178172 28.90770921076726 28.84618201794543 28.815418421534517 28.75389122871269 28.69236403589086 28.661600439479948 28.630836843069034 28.60007324665812 28.569309650247206 28.569309650247206 28.538546053836292 28.538546053836292 28.50778245742538 28.477018861014468 28.477018861014468 28.477018861014468 28.446255264603554 28.446255264603554 28.41549166819264 28.41549166819264 28.384728071781726 28.384728071781726 28.353964475370812 28.353964475370812 28.3232008789599 28.3232008789599 28.292437282548985 28.292437282548985 28.26167368613807 28.26167368613807 28.26167368613807 28.26167368613807 28.26167368613807 28.230910089727157 28.26167368613807 28.230910089727157 28.230910089727157 28.230910089727157 28.230910089727157 28.230910089727157 28.230910089727157 28.230910089727157 28.230910089727157 28.230910089727157 28.230910089727157 28.230910089727157 28.230910089727157 28.230910089727157 28.230910089727157 28.26167368613807 28.230910089727157 28.230910089727157 28.230910089727157 28.230910089727157 28.230910089727157 28.230910089727157 28.230910089727157 28.230910089727157 28.230910089727157 28.230910089727157 28.230910089727157 28.230910089727157 28.230910089727157 28.230910089727157 28.230910089727157 28.230910089727157 28.230910089727157 28.230910089727157 28.230910089727157 28.230910089727157 28.230910089727157 28.230910089727157 28.230910089727157 28.230910089727157 28.230910089727157 28.230910089727157 28.230910089727157 28.230910089727157 28.230910089727157 28.230910089727157 28.230910089727157 28.230910089727157 28.230910089727157 28.230910089727157 28.230910089727157 28.230910089727157 28.230910089727157 28.230910089727157 28.230910089727157 28.230910089727157 28.230910089727157 28.230910089727157 28.230910089727157 28.230910089727157 28.230910089727157 28.230910089727157 28.230910089727157 28.230910089727157 28.230910089727157 28.230910089727157 28.230910089727157 28.230910089727157 28.230910089727157 28.230910089727157 28.230910089727157 28.230910089727157 28.230910089727157 28.230910089727157 28.230910089727157 28.230910089727157 28.230910089727157 28.230910089727157 28.230910089727157 28.230910089727157 28.230910089727157 28.230910089727157 28.230910089727157 28.230910089727157 28.230910089727157 28.230910089727157 28.230910089727157 28.26167368613807 28.230910089727157 28.230910089727157 28.230910089727157 28.230910089727157 28.230910089727157 28.230910089727157 28.230910089727157 28.230910089727157 28.230910089727157 28.230910089727157 28.230910089727157 28.230910089727157 28.230910089727157 28.230910089727157 28.230910089727157 28.230910089727157 28.230910089727157 28.230910089727157 28.230910089727157 28.230910089727157 28.230910089727157 28.230910089727157 28.230910089727157 28.230910089727157 28.230910089727157 28.230910089727157 28.230910089727157 28.230910089727157 28.230910089727157 28.230910089727157 28.230910089727157 28.230910089727157 28.230910089727157 28.230910089727157 28.230910089727157 28.230910089727157 28.230910089727157 28.230910089727157 28.230910089727157 28.230910089727157 28.230910089727157 28.230910089727157 28.230910089727157 28.230910089727157 28.230910089727157 28.230910089727157 28.230910089727157 28.230910089727157 28.230910089727157 28.230910089727157 28.230910089727157 28.230910089727157 28.230910089727157 28.230910089727157 28.230910089727157 28.230910089727157 28.230910089727157 28.230910089727157 28.230910089727157 28.230910089727157 28.230910089727157 28.230910089727157 28.26167368613807 28.230910089727157 28.230910089727157 28.230910089727157 28.230910089727157 28.230910089727157 28.230910089727157 28.230910089727157 28.230910089727157 28.230910089727157 28.230910089727157 28.230910089727157 28.230910089727157 28.230910089727157 28.230910089727157 28.230910089727157 28.230910089727157 28.230910089727157 28.230910089727157 28.230910089727157 28.230910089727157 28.230910089727157 28.230910089727157 28.230910089727157 28.230910089727157 28.230910089727157 28.230910089727157 28.230910089727157 28.230910089727157 28.230910089727157 28.230910089727157 28.230910089727157 28.230910089727157 28.230910089727157 28.230910089727157 28.230910089727157 28.230910089727157 28.230910089727157 28.230910089727157 28.230910089727157 28.230910089727157 28.230910089727157 28.230910089727157 28.230910089727157 28.230910089727157 28.230910089727157 28.230910089727157 28.230910089727157 28.230910089727157 28.230910089727157 28.230910089727157 28.230910089727157 28.230910089727157 28.230910089727157 28.230910089727157 28.230910089727157 28.230910089727157 28.230910089727157 28.230910089727157 28.230910089727157 28.230910089727157 28.230910089727157 28.230910089727157 28.230910089727157 28.230910089727157 28.230910089727157 28.230910089727157 28.230910089727157 28.230910089727157 28.230910089727157 28.230910089727157 28.230910089727157 28.230910089727157 28.230910089727157 28.230910089727157 28.230910089727157 28.230910089727157 28.230910089727157 28.230910089727157 28.230910089727157 28.230910089727157 28.230910089727157 28.230910089727157 28.230910089727157 28.230910089727157 28.230910089727157 28.230910089727157 28.230910089727157 28.230910089727157 28.230910089727157 28.230910089727157 28.230910089727157 28.230910089727157 28.230910089727157 28.230910089727157 28.230910089727157 28.230910089727157 28.230910089727157 28.230910089727157 28.230910089727157 28.230910089727157 28.230910089727157 28.230910089727157 28.230910089727157 28.230910089727157 28.230910089727157 28.230910089727157 28.230910089727157 28.230910089727157 28.230910089727157 28.230910089727157 28.230910089727157 28.230910089727157 28.230910089727157 28.230910089727157 28.230910089727157 28.230910089727157 28.230910089727157 28.230910089727157 28.230910089727157 28.230910089727157 28.230910089727157 28.230910089727157 28.230910089727157 28.230910089727157 28.230910089727157 28.230910089727157 28.230910089727157 28.230910089727157 28.230910089727157 28.230910089727157 28.230910089727157 28.230910089727157 28.230910089727157 28.230910089727157 28.230910089727157 28.230910089727157 28.230910089727157 28.230910089727157 28.230910089727157 28.230910089727157 28.230910089727157 28.230910089727157 28.230910089727157 28.230910089727157 28.230910089727157 28.230910089727157 28.230910089727157 28.230910089727157 28.230910089727157 28.230910089727157 28.230910089727157 28.230910089727157 28.230910089727157 28.230910089727157 28.230910089727157 28.230910089727157 28.230910089727157 28.230910089727157 28.230910089727157 28.230910089727157 28.230910089727157 28.230910089727157 28.230910089727157 28.230910089727157 28.230910089727157 28.230910089727157 28.230910089727157 28.230910089727157 28.230910089727157 28.230910089727157 28.230910089727157 28.230910089727157 28.230910089727157 28.230910089727157 28.230910089727157 28.230910089727157 28.230910089727157 28.230910089727157 28.230910089727157 28.230910089727157 28.230910089727157 28.230910089727157 28.230910089727157 28.230910089727157 28.230910089727157 28.230910089727157 28.230910089727157 28.230910089727157 28.230910089727157 28.230910089727157 28.230910089727157 28.230910089727157 28.230910089727157 28.230910089727157 28.230910089727157 28.230910089727157 28.230910089727157 28.230910089727157 28.230910089727157 28.230910089727157 28.230910089727157 28.230910089727157 28.230910089727157 28.230910089727157 28.230910089727157 28.230910089727157 28.230910089727157 28.230910089727157 28.230910089727157 28.230910089727157 28.230910089727157 28.230910089727157 28.230910089727157 28.230910089727157 28.230910089727157 28.230910089727157 28.230910089727157 28.230910089727157 28.230910089727157 28.230910089727157 28.230910089727157 28.230910089727157 28.230910089727157 28.230910089727157 28.230910089727157 28.230910089727157 28.230910089727157 28.230910089727157 28.230910089727157 28.26167368613807 28.230910089727157 28.230910089727157 28.230910089727157 28.230910089727157 28.230910089727157 28.230910089727157 28.230910089727157 28.230910089727157 28.230910089727157 28.230910089727157 28.230910089727157 28.230910089727157 28.26167368613807 28.230910089727157 28.230910089727157 28.230910089727157 28.230910089727157 28.26167368613807 28.230910089727157 28.230910089727157 28.230910089727157 28.230910089727157 28.230910089727157 28.230910089727157 28.230910089727157 28.230910089727157 28.230910089727157 28.230910089727157 28.230910089727157 28.230910089727157 28.230910089727157 28.230910089727157 28.230910089727157 28.230910089727157 28.230910089727157 28.230910089727157 28.230910089727157 28.230910089727157 28.230910089727157 28.230910089727157 28.230910089727157 28.230910089727157 28.230910089727157 28.230910089727157 28.230910089727157 28.230910089727157 28.230910089727157 28.230910089727157 28.230910089727157 28.230910089727157 28.230910089727157 28.230910089727157 28.230910089727157 28.230910089727157 28.230910089727157 28.230910089727157 28.230910089727157 28.230910089727157 28.230910089727157 28.230910089727157 28.230910089727157 28.230910089727157 28.230910089727157 28.230910089727157 28.230910089727157 28.230910089727157 28.230910089727157 28.230910089727157 28.230910089727157 28.230910089727157 28.230910089727157 28.230910089727157 28.230910089727157 28.230910089727157 28.230910089727157 28.230910089727157 28.230910089727157 28.230910089727157 28.230910089727157 28.230910089727157 28.230910089727157 28.230910089727157 28.230910089727157 28.230910089727157 28.230910089727157 28.230910089727157 28.230910089727157 28.230910089727157 28.230910089727157 28.230910089727157 28.230910089727157 28.230910089727157 28.230910089727157 28.230910089727157 28.230910089727157 28.230910089727157 28.230910089727157 28.230910089727157 28.230910089727157 28.230910089727157 28.230910089727157 28.230910089727157 28.230910089727157 28.230910089727157 28.230910089727157 28.230910089727157 28.230910089727157 28.230910089727157 28.230910089727157 28.230910089727157 28.230910089727157 28.230910089727157 28.230910089727157 28.230910089727157 28.230910089727157 28.230910089727157 28.230910089727157 28.230910089727157 28.230910089727157 28.230910089727157 28.230910089727157 28.230910089727157 28.230910089727157 28.230910089727157 28.230910089727157 28.230910089727157 28.230910089727157 28.230910089727157 28.230910089727157 28.230910089727157 28.230910089727157 28.230910089727157 28.230910089727157 28.230910089727157 28.230910089727157 28.230910089727157 28.230910089727157 28.230910089727157 28.230910089727157 28.230910089727157 28.230910089727157 28.230910089727157 28.230910089727157 28.230910089727157 28.230910089727157 28.230910089727157 28.230910089727157 28.230910089727157 28.230910089727157 28.230910089727157 28.230910089727157 28.230910089727157 28.230910089727157 28.230910089727157 28.230910089727157 28.230910089727157 28.230910089727157 28.230910089727157 28.230910089727157 28.230910089727157 28.230910089727157 28.230910089727157 28.230910089727157 28.230910089727157 28.230910089727157 28.230910089727157 28.230910089727157 28.230910089727157 28.230910089727157 28.230910089727157 28.230910089727157 28.230910089727157 28.230910089727157 28.230910089727157 28.230910089727157 28.230910089727157 28.230910089727157 28.230910089727157 28.230910089727157 28.230910089727157 28.230910089727157 28.230910089727157 28.230910089727157 28.230910089727157 28.230910089727157 28.230910089727157 28.230910089727157 28.230910089727157 28.230910089727157 28.230910089727157 28.230910089727157 28.230910089727157 28.230910089727157 28.230910089727157 28.230910089727157 28.230910089727157 28.230910089727157 28.230910089727157 28.230910089727157 28.230910089727157 28.230910089727157 28.230910089727157 28.230910089727157 28.230910089727157 28.230910089727157 28.230910089727157 28.230910089727157 28.230910089727157 28.230910089727157 28.230910089727157 28.230910089727157 28.230910089727157 28.230910089727157 28.230910089727157 28.230910089727157 28.230910089727157 28.230910089727157 28.230910089727157 28.230910089727157 28.230910089727157 28.230910089727157 28.230910089727157 28.230910089727157 28.230910089727157 28.230910089727157 28.230910089727157 28.230910089727157 28.230910089727157 28.230910089727157 28.230910089727157 28.230910089727157 28.230910089727157 28.230910089727157 28.230910089727157 28.230910089727157 28.230910089727157 28.230910089727157 28.26167368613807 28.230910089727157 28.230910089727157 28.230910089727157 28.230910089727157 28.230910089727157 28.230910089727157 28.230910089727157 28.230910089727157 28.230910089727157 28.230910089727157 28.230910089727157 28.230910089727157 28.230910089727157 28.230910089727157 28.230910089727157 28.230910089727157 28.230910089727157 28.230910089727157 28.230910089727157 28.230910089727157 28.230910089727157 28.230910089727157 28.230910089727157 28.230910089727157 28.230910089727157 28.230910089727157 28.230910089727157 28.230910089727157 28.230910089727157 28.230910089727157 28.230910089727157 28.230910089727157 28.230910089727157 28.230910089727157 28.230910089727157 28.230910089727157 28.230910089727157 28.230910089727157 28.230910089727157 28.230910089727157 28.230910089727157 28.230910089727157 28.230910089727157 28.230910089727157 28.230910089727157 28.230910089727157 28.230910089727157 28.230910089727157 28.230910089727157 28.230910089727157 28.230910089727157 28.230910089727157 28.230910089727157 28.230910089727157 28.230910089727157 28.230910089727157 28.230910089727157 28.230910089727157 28.26167368613807 28.230910089727157 28.230910089727157 28.230910089727157 28.230910089727157 28.230910089727157 28.230910089727157 28.230910089727157 28.230910089727157 28.230910089727157 28.230910089727157 28.230910089727157 28.230910089727157 28.230910089727157 28.230910089727157 28.230910089727157 28.230910089727157 28.230910089727157 28.230910089727157 28.230910089727157 28.230910089727157 28.230910089727157 28.230910089727157 28.230910089727157 28.230910089727157 28.230910089727157 28.230910089727157 28.230910089727157 28.230910089727157 28.230910089727157 28.230910089727157 28.230910089727157 28.230910089727157 28.230910089727157 28.230910089727157 28.230910089727157 28.230910089727157 28.230910089727157 28.230910089727157 28.230910089727157 28.230910089727157 28.230910089727157 28.230910089727157 28.230910089727157 28.230910089727157 28.230910089727157 28.230910089727157 28.230910089727157 28.230910089727157 28.230910089727157 28.230910089727157 28.230910089727157 28.230910089727157 28.230910089727157 28.230910089727157 28.230910089727157 28.230910089727157 28.230910089727157 28.230910089727157 28.230910089727157 28.230910089727157 28.230910089727157 28.230910089727157 28.230910089727157 28.230910089727157 28.230910089727157 28.230910089727157 28.230910089727157 28.230910089727157 28.230910089727157 28.26167368613807 28.230910089727157 28.230910089727157 28.230910089727157 28.230910089727157 28.230910089727157 28.230910089727157 28.230910089727157 28.230910089727157 28.230910089727157 28.230910089727157 28.230910089727157 28.230910089727157 28.230910089727157 28.230910089727157 28.230910089727157 28.230910089727157 28.230910089727157 28.230910089727157 28.230910089727157 28.230910089727157 28.230910089727157 28.230910089727157 28.230910089727157 28.230910089727157 28.230910089727157 28.230910089727157 28.230910089727157 28.230910089727157 28.230910089727157 28.230910089727157 28.230910089727157 28.230910089727157 28.230910089727157 28.230910089727157 28.230910089727157 28.230910089727157 28.230910089727157 28.230910089727157 28.230910089727157 28.230910089727157 28.230910089727157 28.230910089727157 28.230910089727157 28.230910089727157 28.230910089727157 28.230910089727157 28.230910089727157 28.230910089727157 28.230910089727157 28.230910089727157 28.230910089727157 28.230910089727157 28.230910089727157 28.230910089727157 28.230910089727157 28.230910089727157 28.230910089727157 28.230910089727157 28.230910089727157 28.230910089727157 28.230910089727157 28.230910089727157 28.230910089727157 28.230910089727157 28.230910089727157 28.230910089727157 28.230910089727157 28.230910089727157 28.230910089727157 28.230910089727157 28.230910089727157 28.230910089727157 28.230910089727157 28.230910089727157 28.230910089727157 28.230910089727157 28.230910089727157 28.230910089727157 28.230910089727157 28.230910089727157 28.230910089727157 28.230910089727157 28.230910089727157 28.230910089727157 28.230910089727157 28.230910089727157 28.230910089727157 28.230910089727157 28.230910089727157 28.230910089727157 28.230910089727157 28.230910089727157 28.230910089727157 28.230910089727157 28.26167368613807 28.230910089727157 28.230910089727157 28.230910089727157 28.230910089727157 28.230910089727157 28.230910089727157 28.230910089727157 28.230910089727157 28.230910089727157 28.230910089727157 28.26167368613807 28.230910089727157 28.230910089727157 28.230910089727157 28.230910089727157 28.230910089727157 28.230910089727157 28.230910089727157 28.230910089727157 28.26167368613807 28.230910089727157 28.230910089727157 28.230910089727157 28.230910089727157 28.230910089727157 28.230910089727157 28.230910089727157 28.26167368613807 28.26167368613807 28.26167368613807 28.292437282548985 28.384728071781726 28.477018861014468 28.538546053836292 28.60007324665812 28.630836843069034 28.661600439479948 28.69236403589086 28.723127632301775 28.784654825123603 28.784654825123603 28.84618201794543 28.876945614356345 28.876945614356345 28.90770921076726 28.90770921076726 28.938472807178172 28.969236403589086 29.0 29.061527192821828 29.15381798205457 29.184581578465483 29.24610877128731 29.24610877128731 29.30763596410914 29.369163156930966 29.430690349752794 29.49221754257462 29.553744735396446 29.58450833180736 29.6767991210401 29.707562717451015 29.769089910272843 29.83061710309467 29.861380699505585 29.8921442959165 29.8921442959165 29.922907892327412 29.922907892327412 29.953671488738326 29.953671488738326 29.98443508514924 30.045962277971068 30.045962277971068 30.107489470792896 30.107489470792896 30.13825306720381 30.199780260025637 30.29207104925838 30.38436183849112 30.445889031312948 30.5689434169566 30.691997802600255 30.81505218824391 30.907342977476652 30.999633766709394 31.153451748763963 31.307269730818533 31.399560520051274 31.55337850210584 31.70719648416041 31.86101446621498 32.04559604468046 32.19941402673503 32.3532320087896 32.53781358725508 32.75315876213148 32.93774034059696 33.0300311298297 33.2453763047061 33.39919428676067 33.55301226881524 33.73759384728072 33.95293902215711 34.075993407800766 34.29133858267716 34.41439296832082 34.629738143197216 34.937374107306354 35.029664896539096 35.24501007141549 35.491118842702804 35.737227613990115 36.01409998168833 36.3832631386193 36.72166269913935 36.96777147042666 37.33693462735763 37.58304339864493 37.89067936275407 38.167551730452296 38.53671488738326 38.78282365867057 39.121223219190625 39.428859183299764 39.70573155099798 40.01336751510712 40.32100347921626 40.47482146127083 40.72093023255814 40.87474821461271 41.090093389489105 41.336202160776416 41.490020142830986 41.64383812488555 41.82841970335103 42.013001281816514 42.259110053103825 42.44369163156931 42.84361838491119 43.12049075260941 43.33583592748581 43.64347189159494 43.85881706647134 44.135689434169564 44.381798205456874 44.535616187511444 44.72019776597693 44.90477934444241 44.99707013367515 45.12012451931881 45.181651712140635 45.24317890496246 45.27394250137337 45.3354696941952 45.396996887017025 45.427760483427946 45.45852407983885 45.48928767624977 45.5508148690716 45.58157846548251 45.643105658304336 45.67386925471526 45.79692364035891 45.85845083318073 45.91997802600257 45.98150521882439 46.043032411646216 46.104559604468044 46.196850393700785 46.25837758652261 46.350668375755355 46.41219556857718 46.442959164988096 46.504486357809924 46.56601355063175 46.62754074345358 46.68906793627541 46.750595129097235 46.81212232191906 46.87364951474089 46.93517670756272 46.965940303973625 46.996703900384546 46.996703900384546 47.02746749679545 47.02746749679545 46.996703900384546 46.996703900384546 47.02746749679545 46.996703900384546 46.996703900384546 46.996703900384546 47.02746749679545 46.996703900384546 46.996703900384546 46.996703900384546 47.02746749679545 47.02746749679545 47.02746749679545 46.996703900384546 47.02746749679545 46.996703900384546 46.996703900384546 46.996703900384546 46.996703900384546 46.996703900384546 46.996703900384546 46.996703900384546 46.996703900384546 46.996703900384546 46.996703900384546 46.996703900384546 46.996703900384546 46.996703900384546 46.996703900384546 46.996703900384546 46.996703900384546 46.996703900384546 46.996703900384546 46.996703900384546 46.996703900384546 46.996703900384546 46.996703900384546 46.996703900384546 46.965940303973625 46.996703900384546 46.996703900384546 46.996703900384546 46.996703900384546 46.996703900384546 46.996703900384546 46.996703900384546 46.965940303973625 46.996703900384546 46.996703900384546 46.996703900384546 46.965940303973625 46.996703900384546 46.965940303973625 46.996703900384546 46.965940303973625 46.996703900384546 46.965940303973625 46.996703900384546 46.996703900384546 46.996703900384546 46.965940303973625 46.996703900384546 46.996703900384546 46.996703900384546 46.996703900384546 46.996703900384546 46.996703900384546 46.996703900384546 46.996703900384546 46.996703900384546 46.996703900384546 46.996703900384546 46.965940303973625 46.996703900384546 46.996703900384546 46.996703900384546 46.965940303973625 46.996703900384546 46.965940303973625 46.965940303973625 46.965940303973625 46.93517670756272 46.93517670756272 46.965940303973625 46.93517670756272 46.93517670756272 46.93517670756272 46.93517670756272 46.93517670756272 46.93517670756272 46.93517670756272 46.93517670756272 46.904413111151804 46.93517670756272 46.93517670756272 46.93517670756272 46.93517670756272 